399.2631262207	0.1522553563
401.1919335938	0.2387813479
403.1207409668	0.3153703213
405.0495483398	0.3266240060
406.9783557129	0.1391399205
408.9071630859	0.0745599270
410.8359704590	0.1322894096
412.7647778320	0.1661443859
414.6935852051	0.0599478707
416.6223925781	0.0560210422
418.5511999512	0.3348822892
420.4800073242	0.2060770392
422.4088146973	0.1548986584
424.3376220703	0.2419632673
426.2664294434	0.1627263427
428.1952368164	0.0905033350
430.1240441895	0.0142579591
432.0528515625	0.1742443293
433.9816589355	0.2023655325
435.9104663086	0.1737124026
437.8392736816	0.1505427659
439.7680810547	0.0669054836
441.6968884277	0.3047325909
443.6256958008	0.2752563655
445.5545031738	0.1887203902
447.4833105469	0.2108144313
449.4121179199	0.3432948589
451.3409252930	0.2705979347
453.2697326660	-0.0160225686
455.1985400391	0.2464182824
457.1273474121	0.1987973601
459.0561547852	-0.0337228738
460.9849621582	0.2554493845
462.9137695313	0.3621122837
464.8425769043	0.2824801207
466.7713842773	0.2922884822
468.7001916504	0.2665669918
470.6289990234	0.0999439582
472.5578063965	0.1498310715
474.4866137695	0.0341772810
476.4154211426	-0.0541303381
478.3442285156	0.3039574325
480.2730358887	0.5847976804
482.2018432617	0.2682826221
484.1306506348	0.1099218726
486.0594580078	0.6191283464
487.9882653809	0.7465499043
489.9170727539	0.3503924608
491.8458801270	0.1372963190
493.7746875000	0.3529133797
495.7034948730	0.3780562580
497.6323022461	0.8430066109
499.5611096191	1.3700757027
501.4899169922	0.2545342743
503.4187243652	0.8222227097
505.3475317383	1.1289492846
507.2763391113	1.1023879051
509.2051464844	1.0098119974
511.1339538574	-0.2377979755
513.0627612305	0.4762573838
514.9915686035	0.5736219883
516.9203759766	0.5595619082
518.8491833496	0.0183957424
520.7779907227	7.1626796722
522.7067980957	4.9464416504
524.6356054688	0.2163864523
526.5644128418	0.5890110135
528.4932202148	0.9501735568
530.4220275879	-0.0489027724
532.3508349609	0.5270577073
534.2796423340	0.7309527397
536.2084497070	0.9062710404
538.1372570801	-0.3253301382
540.0660644531	-0.2955038548
541.9948718262	1.3678694963
543.9236791992	0.8266541362
545.8524865723	0.2648277879
547.7812939453	2.1892235279
549.7101013184	0.0491170064
551.6389086914	-0.0919245481
553.5677160645	-0.4552467167
555.4965234375	6.0077338219
557.4253308105	3.1462469101
559.3541381836	-1.9100475311
561.2829455566	-0.2271785438
563.2117529297	-0.5521843433
565.1405603027	-1.7551118135
567.0693676758	0.2340517789
568.9981750488	0.1711675823
570.9269824219	3.8515324593
572.8557897949	-0.0417120866
574.7845971680	0.6873406172
576.7134045410	-2.2929751873
578.6422119141	1.3234255314
580.5710192871	6.3539571762
582.4998266602	0.3786602914
584.4286340332	-0.0814913735
586.3574414063	0.7063107491
588.2862487793	0.1319375932
590.2150561523	0.4335276186
592.1438635254	-2.1573882103
594.0726708984	0.0500544533
596.0014782715	0.3089612722
597.9302856445	1.0279630423
599.8590930176	0.4516135454
601.7879003906	0.2083747983
603.7167077637	-0.0368279181
605.6455151367	0.4646770358
607.5743225098	1.9547513723
609.5031298828	-0.0594831035
611.4319372559	0.9728160501
613.3607446289	4.1136112213
615.2895520020	0.3846908808
617.2183593750	4.8084387779
619.1471667480	-1.5806761980
621.0759741211	0.8455460072
623.0047814941	3.6591823101
624.9335888672	0.7057397962
626.8623962402	0.8739131689
628.7912036133	-1.7789484262
630.7200109863	0.2428454012
632.6488183594	0.4531819522
634.5776257324	0.4742048383
636.5064331055	0.2225236297
638.4352404785	0.2815354764
640.3640478516	0.2710816562
642.2928552246	0.3293909729
644.2216625977	0.2981243730
646.1504699707	0.2897363603
648.0792773438	0.4715251625
650.0080847168	0.3985469937
651.9368920898	0.2607363164
653.8656994629	0.3290409446
655.7945068359	0.3296748996
657.7233142090	0.2580823898
659.6521215820	0.3151093125
661.5809289551	0.3220001161
663.5097363281	0.3244672418
665.4385437012	0.3360032439
667.3673510742	0.2840324044
669.2961584473	0.3101751208
671.2249658203	0.2535632849
673.1537731934	0.3006322384
675.0825805664	0.3729233444
677.0113879395	0.2703731656
678.9401953125	0.3069038391
680.8690026855	0.3599333763
682.7978100586	0.3110550046
684.7266174316	0.3241814077
686.6554248047	0.3413628936
688.5842321777	0.2737900317
690.5130395508	0.3049201667
692.4418469238	0.3456318080
694.3706542969	0.3502898514
696.2994616699	0.3830094635
698.2282690430	0.3074076772
700.1570764160	0.3130336702
702.0858837891	0.3559072316
704.0146911621	0.3589514494
705.9434985352	0.4028013051
707.8723059082	0.3415649831
709.8011132813	0.3347819746
711.7299206543	0.3857221305
713.6587280273	0.4393865168
715.5875354004	0.5961852670
717.5163427734	0.4608499110
719.4451501465	1.0291751623
721.3739575195	1.3982630968
723.3027648926	0.3732237816
725.2315722656	0.8648341894
727.1603796387	0.4479598403
729.0891870117	1.6827753782
731.0179943848	1.8463606834
732.9468017578	1.1219984293
734.8756091309	1.8439162970
736.8044165039	1.4011557102
738.7332238770	1.9141701460
740.6620312500	1.8066848516
742.5908386230	0.9505944252
744.5196459961	3.3370265961
746.4484533691	2.1812968254
748.3772607422	13.1521377563
750.3060681152	1.0574507713
752.2348754883	0.3395568728
754.1636828613	0.8303163648
756.0924902344	0.2871912718
758.0212976074	0.7475302219
759.9501049805	0.9680410028
761.8789123535	0.9238666296
763.8077197266	1.1448040009
765.7365270996	0.7627110481
767.6653344727	0.6439493299
769.5941418457	0.5421410799
771.5229492188	0.6653498411
773.4517565918	1.1772015095
775.3805639648	0.5976825953
777.3093713379	0.4459352195
779.2381787109	1.3195065260
781.1669860840	0.7301002145
783.0957934570	0.7095968127
785.0246008301	0.5823831558
786.9534082031	0.1608057320
788.8822155762	0.6738322973
790.8110229492	1.2991572618
792.7398303223	0.5942136049
794.6686376953	0.3490795195
796.5974450684	1.1088228226
798.5262524414	0.8298644423
800.4550598145	0.4048494101
802.3838671875	0.7197471857
804.3126745605	0.5974512696
806.2414819336	0.5645836592
808.1702893066	0.7288632989
810.0990966797	0.7764164209
812.0279040527	1.4084285498
813.9567114258	1.2925552130
815.8855187988	1.7851014137
817.8143261719	1.1507258415
819.7431335449	0.5331212282
821.6719409180	1.1718952656
823.6007482910	0.7933564186
825.5295556641	0.6469417214
827.4583630371	0.6311030388
829.3871704102	0.5178798437
831.3159777832	0.4010473490
833.2447851563	0.3538360596
835.1735925293	0.4764879346
837.1023999023	0.4875687361
839.0312072754	0.4165470004
840.9600146484	0.5103514194
842.8888220215	0.5668990612
844.8176293945	0.3038363159
846.7464367676	0.3581517339
848.6752441406	0.5141776204
850.6040515137	0.3556476235
852.5328588867	0.7754182220
854.4616662598	0.8310257196
856.3904736328	0.5378033519
858.3192810059	0.9130930901
860.2480883789	0.7904993296
862.1768957520	0.6322982907
864.1057031250	1.4470368624
866.0345104980	1.3129706383
867.9633178711	0.5980575085
869.8921252441	1.3837052584
871.8209326172	1.8678106070
873.7497399902	1.5351680517
875.6785473633	1.1768029928
877.6073547363	1.1499191523
879.5361621094	1.1851942539
881.4649694824	0.7031881809
883.3937768555	1.3226212263
885.3225842285	2.3142786026
887.2513916016	1.2213698626
889.1801989746	1.6942666769
891.1090063477	1.0887891054
893.0378137207	1.1320757866
894.9666210938	3.6067767143
896.8954284668	1.4075095654
898.8242358398	0.8401048183
900.7530432129	0.5328883529
902.6818505859	0.7285522223
904.6106579590	1.8912690878
906.5394653320	0.9146823883
908.4682727051	0.4238330424
910.3970800781	0.5747765303
912.3258874512	0.7265301347
914.2546948242	0.9803624749
916.1835021973	0.9198209047
918.1123095703	0.5089363456
920.0411169434	0.5629425049
921.9699243164	0.8073651195
923.8987316895	0.7540950179
925.8275390625	0.6307069659
927.7563464355	0.5599706173
929.6851538086	0.4807274342
931.6139611816	0.5215649009
933.5427685547	0.5980959535
935.4715759277	0.6232827902
937.4003833008	0.5384146571
939.3291906738	0.5006059408
941.2579980469	0.4670778811
943.1868054199	0.4669601023
945.1156127930	0.4947715700
947.0444201660	0.4779298306
948.9732275391	0.5825419426
950.9020349121	0.6039937735
952.8308422852	0.4978831708
954.7596496582	0.5425099730
956.6884570313	0.5957872272
958.6172644043	0.6101740003
960.5460717773	0.5450302362
962.4748791504	0.5378202200
964.4036865234	0.6257901788
966.3324938965	0.5265250206
968.2613012695	0.4850518703
970.1901086426	0.5819215178
972.1189160156	0.5189490318
974.0477233887	0.4796338081
975.9765307617	0.5888456106
977.9053381348	0.5390416384
979.8341455078	0.4761482179
981.7629528809	0.5299219489
983.6917602539	0.4933561981
985.6205676270	0.4782723784
987.5493750000	0.4831122756
989.4781823730	0.4732388258
991.4069897461	0.4879209697
993.3357971191	0.4574832916
995.2646044922	0.4372341633
997.1934118652	0.4484293759
999.1222192383	0.4568164647
1001.0510266113	0.4453320205
1002.9798339844	0.4356260598
1004.9086413574	0.4500481486
1006.8374487305	0.4345735013
1008.7662561035	0.4312749505
1010.6950634766	0.4225501716
1012.6238708496	0.4055822194
1014.5526782227	0.4382800460
1016.4814855957	0.4272341728
1018.4102929688	0.4098083079
1020.3391003418	0.4231282473
1022.2679077148	0.4196262956
1024.1967150879	0.4267671406
1026.1255224609	0.4170457125
1028.0543298340	0.4140071273
1029.9831372070	0.4211530983
1031.9119445801	0.4126358032
1033.8407519531	0.4105975628
1035.7695593262	0.4162535965
1037.6983666992	0.4244992733
1039.6271740723	0.4056234956
1041.5559814453	0.4084304869
1043.4847888184	0.4233267903
1045.4135961914	0.4071251154
1047.3424035645	0.4070796072
1049.2712109375	0.3972515464
1051.2000183105	0.4017136693
1053.1288256836	0.4166161418
1055.0576330566	0.4138238132
1056.9864404297	0.4072304964
1058.9152478027	0.3920878172
1060.8440551758	0.4081549048
1062.7728625488	0.4090655744
1064.7016699219	0.4052204490
1066.6304772949	0.4082462490
1068.5592846680	0.3967393339
1070.4880920410	0.4055397511
1072.4168994141	0.4018639624
1074.3457067871	0.4170454443
1076.2745141602	0.4099756479
1078.2033215332	0.4017967582
1080.1321289062	0.4213662446
1082.0609362793	0.4059364796
1083.9897436523	0.4219253361
1085.9185510254	0.4097936749
1087.8473583984	0.4165630937
1089.7761657715	0.4328741431
1091.7049731445	0.3840935528
1093.6337805176	0.3926735520
1095.5625878906	0.4102738798
1097.4913952637	0.4075959623
1099.4202026367	0.4145300686
1101.3490100098	0.4451721609
1103.2778173828	0.4307578504
1105.2066247559	0.4034746885
1107.1354321289	0.4480802417
1109.0642395019	0.4181246161
1110.9930468750	0.4060429633
1112.9218542480	0.4261888564
1114.8506616211	0.4097244143
1116.7794689941	0.4434011281
1118.7082763672	0.4331136942
1120.6370837402	0.4074115753
1122.5658911133	0.4444559216
1124.4946984863	0.4375536442
1126.4235058594	0.4092987776
1128.3523132324	0.4249195158
1130.2811206055	0.4083567262
1132.2099279785	0.4151621461
1134.1387353516	0.4393553436
1136.0675427246	0.4111602008
1137.9963500977	0.4045616984
1139.9251574707	0.4021472633
1141.8539648437	0.4010566175
1143.7827722168	0.4043824971
1145.7115795898	0.4022734463
1147.6403869629	0.3815163970
1149.5691943359	0.3672207892
1151.4980017090	0.3894821703
1153.4268090820	0.3831823468
1155.3556164551	0.3769676983
1157.2844238281	0.3741761744
1159.2132312012	0.3670291305
1161.1420385742	0.3836448193
1163.0708459473	0.3875888288
1164.9996533203	0.3891066313
1166.9284606934	0.3754276037
1168.8572680664	0.3739572763
1170.7860754394	0.3787589371
1172.7148828125	0.3599993289
1174.6436901855	0.3734107316
1176.5724975586	0.3713691235
1178.5013049316	0.3608317971
1180.4301123047	0.3716050088
1182.3589196777	0.3673595488
1184.2877270508	0.3704163432
1186.2165344238	0.3659106493
1188.1453417969	0.3621414900
1190.0741491699	0.3650806248
1192.0029565430	0.3580733240
1193.9317639160	0.3609934449
1195.8605712891	0.3595861793
1197.7893786621	0.3565104902
1199.7181860351	0.3576031029
1201.6469934082	0.3579084873
1203.5758007812	0.3600351810
1205.5046081543	0.3559862375
1207.4334155273	0.3568281531
1209.3622229004	0.3570725024
1211.2910302734	0.3532297015
1213.2198376465	0.3553253412
1215.1486450195	0.3524563909
1217.0774523926	0.3503930271
1219.0062597656	0.3541481495
1220.9350671387	0.3518632948
1222.8638745117	0.3472583294
1224.7926818848	0.3475181758
1226.7214892578	0.3486325443
1228.6502966308	0.3474362791
1230.5791040039	0.3480415046
1232.5079113769	0.3509578407
1234.4367187500	0.3499396443
1236.3655261230	0.3477846086
1238.2943334961	0.3478664458
1240.2231408691	0.3474252224
1242.1519482422	0.3486813605
1244.0807556152	0.3501014709
1246.0095629883	0.3496681750
1247.9383703613	0.3474355936
1249.8671777344	0.3480912447
1251.7959851074	0.3515172303
1253.7247924805	0.3482279778
1255.6535998535	0.3465507925
1257.5824072266	0.3474720716
1259.5112145996	0.3465903699
1261.4400219726	0.3469846845
1263.3688293457	0.3423446417
1265.2976367187	0.3421548009
1267.2264440918	0.3472913206
1269.1552514648	0.3447711766
1271.0840588379	0.3418891728
1273.0128662109	0.3452529013
1274.9416735840	0.3491676748
1276.8704809570	0.3472802937
1278.7992883301	0.3435405493
1280.7280957031	0.3456720412
1282.6569030762	0.3491633534
1284.5857104492	0.3504216671
1286.5145178223	0.3518944383
1288.4433251953	0.3479622602
1290.3721325683	0.3421952426
1292.3009399414	0.3458401263
1294.2297473144	0.3488822579
1296.1585546875	0.3456888795
1298.0873620605	0.3483621478
1300.0161694336	0.3484107554
1301.9449768066	0.3428879976
1303.8737841797	0.3443942070
1305.8025915527	0.3444143236
1307.7313989258	0.3458546400
1309.6602062988	0.3476114273
1311.5890136719	0.3464438319
1313.5178210449	0.3461437225
1315.4466284180	0.3416445553
1317.3754357910	0.3458082080
1319.3042431640	0.3448255956
1321.2330505371	0.3381609917
1323.1618579101	0.3400619328
1325.0906652832	0.3399263322
1327.0194726562	0.3438936174
1328.9482800293	0.3414232433
1330.8770874023	0.3369091749
1332.8058947754	0.3390960395
1334.7347021484	0.3371124864
1336.6635095215	0.3357364833
1338.5923168945	0.3371876180
1340.5211242676	0.3384501338
1342.4499316406	0.3333618939
1344.3787390137	0.3355294466
1346.3075463867	0.3388699889
1348.2363537597	0.3331516385
1350.1651611328	0.3364957571
1352.0939685058	0.3371549845
1354.0227758789	0.3347947299
1355.9515832519	0.3365235627
1357.8803906250	0.3364152610
1359.8091979980	0.3346610665
1361.7380053711	0.3351427317
1363.6668127441	0.3387965858
1365.5956201172	0.3352085352
1367.5244274902	0.3372382522
1369.4532348633	0.3384512961
1371.3820422363	0.3334545791
1373.3108496094	0.3360740244
1375.2396569824	0.3345825970
1377.1684643555	0.3336476982
1379.0972717285	0.3352780044
1381.0260791015	0.3352049291
1382.9548864746	0.3353311121
1384.8836938476	0.3345904350
1386.8125012207	0.3355889320
1388.7413085937	0.3339653611
1390.6701159668	0.3339690864
1392.5989233398	0.3334553242
1394.5277307129	0.3307830989
1396.4565380859	0.3329731822
1398.3853454590	0.3317214549
1400.3141528320	0.3293479681
1402.2429602051	0.3316746652
1404.1717675781	0.3300018013
1406.1005749512	0.3282397091
1408.0293823242	0.3312340677
1409.9581896972	0.3316687346
1411.8869970703	0.3288064897
1413.8158044433	0.3275985420
1415.7446118164	0.3306464255
1417.6734191894	0.3309721649
1419.6022265625	0.3300043344
1421.5310339355	0.3342082798
1423.4598413086	0.3331865072
1425.3886486816	0.3299819529
1427.3174560547	0.3330843151
1429.2462634277	0.3360106349
1431.1750708008	0.3339600563
1433.1038781738	0.3305917978
1435.0326855469	0.3344658017
1436.9614929199	0.3391471505
1438.8903002929	0.3341927528
1440.8191076660	0.3359428346
1442.7479150390	0.3358463347
1444.6767224121	0.3312103748
1446.6055297851	0.3378425837
1448.5343371582	0.3373824954
1450.4631445312	0.3342728317
1452.3919519043	0.3343638480
1454.3207592773	0.3294770718
1456.2495666504	0.3360506296
1458.1783740234	0.3380070329
1460.1071813965	0.3285612762
1462.0359887695	0.3293875754
1463.9647961426	0.3305685520
1465.8936035156	0.3269386888
1467.8224108886	0.3276917040
1469.7512182617	0.3241674602
1471.6800256347	0.3188241720
1473.6088330078	0.3222295344
1475.5376403808	0.3209271729
1477.4664477539	0.3183225691
1479.3952551269	0.3167569935
1481.3240625000	0.3165945113
1483.2528698730	0.3172976971
1485.1816772461	0.3150058091
1487.1104846191	0.3178144097
1489.0392919922	0.3146624267
1490.9680993652	0.3121473789
1492.8969067383	0.3152188659
1494.8257141113	0.3113486767
1496.7545214843	0.3118076026
1498.6833288574	0.3125006258
1500.6121362304	0.3103032410
1502.5409436035	0.3086746931
1504.4697509765	0.3072935939
1506.3985583496	0.3090394437
1508.3273657226	0.3085109293
1510.2561730957	0.3087572455
1512.1849804687	0.3070800006
1514.1137878418	0.3056353629
1516.0425952148	0.3061673939
1517.9714025879	0.3040448427
1519.9002099609	0.3051064014
1521.8290173340	0.3068059683
1523.7578247070	0.3062453866
1525.6866320801	0.3054042161
1527.6154394531	0.3041336834
1529.5442468261	0.3026272655
1531.4730541992	0.3019089699
1533.4018615722	0.3029731810
1535.3306689453	0.3007971942
1537.2594763183	0.3002231717
1539.1882836914	0.3006058335
1541.1170910644	0.2996200919
1543.0458984375	0.2995218039
1544.9747058105	0.2984144092
1546.9035131836	0.2994827032
1548.8323205566	0.2981643677
1550.7611279297	0.2961140275
1552.6899353027	0.2971436679
1554.6187426758	0.2961595356
1556.5475500488	0.2957190275
1558.4763574218	0.2960483432
1560.4051647949	0.2952236235
1562.3339721679	0.2941687107
1564.2627795410	0.2937518060
1566.1915869140	0.2935131192
1568.1203942871	0.2923288345
1570.0492016601	0.2925039232
1571.9780090332	0.2916277349
1573.9068164062	0.2911548316
1575.8356237793	0.2916799188
1577.7644311523	0.2882989645
1579.6932385254	0.2876949608
1581.6220458984	0.2893683612
1583.5508532715	0.2880393267
1585.4796606445	0.2863791287
1587.4084680175	0.2873780429
1589.3372753906	0.2877595425
1591.2660827636	0.2851103842
1593.1948901367	0.2848906219
1595.1236975097	0.2852968872
1597.0525048828	0.2842085958
1598.9813122558	0.2845449150
1600.9101196289	0.2825380862
1602.8389270019	0.2827192545
1604.7677343750	0.2841972113
1606.6965417480	0.2833557725
1608.6253491211	0.2846392691
1610.5541564941	0.2826751471
1612.4829638672	0.2820219100
1614.4117712402	0.2842888534
1616.3405786132	0.2843851149
1618.2693859863	0.2851728499
1620.1981933593	0.2848533094
1622.1270007324	0.2869152725
1624.0558081054	0.2902682424
1625.9846154785	0.2913596332
1627.9134228515	0.2927471399
1629.8422302246	0.2950696945
1631.7710375976	0.2967923284
1633.6998449707	0.2976522446
1635.6286523437	0.3022101820
1637.5574597168	0.3062287867
1639.4862670898	0.3097166419
1641.4150744629	0.3129388392
1643.3438818359	0.3156801462
1645.2726892090	0.3188525736
1647.2014965820	0.3218258619
1649.1303039550	0.3264892995
1651.0591113281	0.3284479380
1652.9879187011	0.3328807056
1654.9167260742	0.3361433744
1656.8455334472	0.3385809958
1658.7743408203	0.3425802290
1660.7031481933	0.3442613184
1662.6319555664	0.3483118415
1664.5607629394	0.3495848775
1666.4895703125	0.3523502648
1668.4183776855	0.3589812517
1670.3471850586	0.3605195284
1672.2759924316	0.3613394201
1674.2047998047	0.3665359020
1676.1336071777	0.3686486483
1678.0624145507	0.3693558872
1679.9912219238	0.3727885187
1681.9200292968	0.3729579747
1683.8488366699	0.3772922754
1685.7776440429	0.3801153600
1687.7064514160	0.3802420795
1689.6352587890	0.3833270073
1691.5640661621	0.3830287158
1693.4928735351	0.3856889904
1695.4216809082	0.3864799142
1697.3504882812	0.3882848620
1699.2792956543	0.3913253546
1701.2081030273	0.3901322484
1703.1369104004	0.3910627961
1705.0657177734	0.3904212415
1706.9945251464	0.3916414380
1708.9233325195	0.3919372559
1710.8521398925	0.3923382461
1712.7809472656	0.3943492174
1714.7097546386	0.3936946988
1716.6385620117	0.3944747746
1718.5673693847	0.3931410909
1720.4961767578	0.3923476040
1722.4249841308	0.3942644000
1724.3537915039	0.3941376507
1726.2825988769	0.3921553493
1728.2114062500	0.3926678598
1730.1402136230	0.3922058940
1732.0690209961	0.3903792799
1733.9978283691	0.3919940293
1735.9266357421	0.3908436596
1737.8554431152	0.3904542029
1739.7842504882	0.3898522556
1741.7130578613	0.3878545165
1743.6418652343	0.3880075216
1745.5706726074	0.3855205774
1747.4994799804	0.3848346770
1749.4282873535	0.3851826191
1751.3570947265	0.3852622807
1753.2859020996	0.3850559592
1755.2147094726	0.3823900223
1757.1435168457	0.3826834261
1759.0723242187	0.3820719123
1761.0011315918	0.3799281716
1762.9299389648	0.3800342679
1764.8587463379	0.3786025047
1766.7875537109	0.3787122369
1768.7163610839	0.3789686561
1770.6451684570	0.3768504560
1772.5739758300	0.3777116239
1774.5027832031	0.3771848679
1776.4315905761	0.3757837713
1778.3603979492	0.3756814301
1780.2892053222	0.3736380339
1782.2180126953	0.3733142912
1784.1468200683	0.3734459877
1786.0756274414	0.3730129004
1788.0044348144	0.3721256554
1789.9332421875	0.3702611029
1791.8620495605	0.3706526160
1793.7908569336	0.3695817888
1795.7196643066	0.3679384887
1797.6484716796	0.3681975007
1799.5772790527	0.3681958914
1801.5060864257	0.3670504689
1803.4348937988	0.3654572070
1805.3637011718	0.3650866747
1807.2925085449	0.3639964461
1809.2213159179	0.3636638224
1811.1501232910	0.3631170690
1813.0789306640	0.3619261086
1815.0077380371	0.3625105917
1816.9365454101	0.3621541858
1818.8653527832	0.3618102372
1820.7941601562	0.3611147404
1822.7229675293	0.3601239622
1824.6517749023	0.3589786589
1826.5805822753	0.3582308888
1828.5093896484	0.3590478599
1830.4381970214	0.3572182059
1832.3670043945	0.3562850058
1834.2958117675	0.3559926748
1836.2246191406	0.3545324504
1838.1534265136	0.3550570011
1840.0822338867	0.3539637327
1842.0110412597	0.3537921607
1843.9398486328	0.3546131849
1845.8686560058	0.3523517251
1847.7974633789	0.3529645801
1849.7262707519	0.3538059890
1851.6550781250	0.3509929478
1853.5838854980	0.3507327437
1855.5126928710	0.3510122299
1857.4415002441	0.3494594693
1859.3703076171	0.3499494195
1861.2991149902	0.3496734202
1863.2279223632	0.3489126265
1865.1567297363	0.3488385677
1867.0855371093	0.3475843668
1869.0143444824	0.3470070660
1870.9431518554	0.3462762237
1872.8719592285	0.3457751870
1874.8007666015	0.3459544480
1876.7295739746	0.3454754651
1878.6583813476	0.3446852565
1880.5871887207	0.3437735736
1882.5159960937	0.3441892564
1884.4448034667	0.3433619440
1886.3736108398	0.3422999382
1888.3024182128	0.3436804712
1890.2312255859	0.3431584239
1892.1600329589	0.3430198729
1894.0888403320	0.3427647650
1896.0176477050	0.3403427601
1897.9464550781	0.3417357504
1899.8752624511	0.3425311148
1901.8040698242	0.3397630453
1903.7328771972	0.3392232358
1905.6616845703	0.3391600847
1907.5904919433	0.3379347324
1909.5192993164	0.3378765583
1911.4481066894	0.3377304375
1913.3769140625	0.3366570771
1915.3057214355	0.3363877237
1917.2345288085	0.3368409276
1919.1633361816	0.3368985355
1921.0921435546	0.3362776637
1923.0209509277	0.3351711631
1924.9497583007	0.3350623250
1926.8785656738	0.3356343210
1928.8073730468	0.3343679309
1930.7361804199	0.3333593905
1932.6649877929	0.3325237930
1934.5937951660	0.3315281868
1936.5226025390	0.3327180147
1938.4514099121	0.3329710662
1940.3802172851	0.3342552185
1942.3090246582	0.3336668611
1944.2378320312	0.3307175934
1946.1666394042	0.3325825334
1948.0954467773	0.3315508664
1950.0242541503	0.3299423158
1951.9530615234	0.3297717869
1953.8818688964	0.3282454014
1955.8106762695	0.3290920556
1957.7394836425	0.3282024860
1959.6682910156	0.3283560574
1961.5970983886	0.3290915787
1963.5259057617	0.3288978338
1965.4547131347	0.3282542527
1967.3835205078	0.3267480731
1969.3123278808	0.3276157379
1971.2411352539	0.3264512420
1973.1699426269	0.3262660801
1975.0987499999	0.3269802034
1977.0275573730	0.3265840411
1978.9563647460	0.3267700672
1980.8851721191	0.3253293633
1982.8139794921	0.3241673410
1984.7427868652	0.3230930567
1986.6715942382	0.3242744505
1988.6004016113	0.3238945305
1990.5292089843	0.3221372962
1992.4580163574	0.3234814107
1994.3868237304	0.3240968883
1996.3156311035	0.3237646520
1998.2444384765	0.3221077323
2000.1732458496	0.3224378228
2002.1020532226	0.3221372068
2004.0308605956	0.3211280406
2005.9596679687	0.3221725225
2007.8884753417	0.3214900792
2009.8172827148	0.3211784065
2011.7460900878	0.3210554421
2013.6748974609	0.3216165304
2015.6037048339	0.3205098510
2017.5325122070	0.3200679719
2019.4613195800	0.3206787109
2021.3901269531	0.3197525442
2023.3189343261	0.3220121562
2025.2477416992	0.3207327127
2027.1765490722	0.3187577724
2029.1053564453	0.3201688826
2031.0341638183	0.3204347789
2032.9629711914	0.3199315965
2034.8917785644	0.3191186488
2036.8205859374	0.3189564645
2038.7493933105	0.3173265755
2040.6782006835	0.3177517354
2042.6070080566	0.3187604249
2044.5358154296	0.3182120323
2046.4646228027	0.3179317117
2048.3934301757	0.3167650700
2050.3222375488	0.3176697791
2052.2510449218	0.3179030120
2054.1798522949	0.3165093362
2056.1086596679	0.3161051571
2058.0374670410	0.3171153069
2059.9662744140	0.3170564175
2061.8950817871	0.3162990510
2063.8238891601	0.3168334067
2065.7526965331	0.3172275722
2067.6815039062	0.3171062768
2069.6103112792	0.3152153194
2071.5391186523	0.3170222044
2073.4679260253	0.3172075748
2075.3967333984	0.3147456944
2077.3255407714	0.3169396222
2079.2543481445	0.3161359429
2081.1831555175	0.3158096671
2083.1119628906	0.3175509572
2085.0407702636	0.3172344565
2086.9695776367	0.3161110580
2088.8983850097	0.3165715933
2090.8271923828	0.3171795309
2092.7559997558	0.3150710464
2094.6848071288	0.3160632849
2096.6136145019	0.3166084588
2098.5424218749	0.3160687983
2100.4712292480	0.3166349530
2102.4000366210	0.3159329593
2104.3288439941	0.3145977855
2106.2576513671	0.3148266375
2108.1864587402	0.3163239360
2110.1152661132	0.3142627180
2112.0440734863	0.3156214058
2113.9728808593	0.3163462877
2115.9016882324	0.3153647482
2117.8304956054	0.3172432780
2119.7593029785	0.3152565956
2121.6881103515	0.3159520626
2123.6169177245	0.3161967397
2125.5457250976	0.3151381612
2127.4745324706	0.3158152401
2129.4033398437	0.3160938323
2131.3321472167	0.3162293732
2133.2609545898	0.3148536980
2135.1897619628	0.3164197505
2137.1185693359	0.3152384758
2139.0473767089	0.3150325716
2140.9761840820	0.3165167570
2142.9049914550	0.3146161139
2144.8337988281	0.3149227202
2146.7626062011	0.3144570887
2148.6914135742	0.3157523274
2150.6202209472	0.3156009912
2152.5490283203	0.3147886992
2154.4778356933	0.3159436285
2156.4066430663	0.3147808313
2158.3354504394	0.3147992194
2160.2642578124	0.3142741024
2162.1930651855	0.3151460290
2164.1218725585	0.3164479733
2166.0506799316	0.3163568974
2167.9794873046	0.3160074651
2169.9082946777	0.3150463998
2171.8371020507	0.3145420551
2173.7659094238	0.3148466349
2175.6947167968	0.3160281777
2177.6235241699	0.3138358593
2179.5523315429	0.3138819635
2181.4811389160	0.3156737089
2183.4099462890	0.3148564100
2185.3387536620	0.3144336343
2187.2675610351	0.3147394955
2189.1963684081	0.3156232536
2191.1251757812	0.3137080967
2193.0539831542	0.3157495558
2194.9827905273	0.3169082999
2196.9115979003	0.3151265383
2198.8404052734	0.3156159520
2200.7692126464	0.3129742146
2202.6980200195	0.3159079254
2204.6268273925	0.3167985082
2206.5556347656	0.3139089346
2208.4844421386	0.3151111305
2210.4132495117	0.3136072159
2212.3420568847	0.3142039776
2214.2708642577	0.3146030903
2216.1996716308	0.3136836290
2218.1284790038	0.3138547242
2220.0572863769	0.3135466576
2221.9860937499	0.3146438897
2223.9149011230	0.3144091666
2225.8437084960	0.3124032915
2227.7725158691	0.3115703166
2229.7013232421	0.3135120869
2231.6301306152	0.3142421246
2233.5589379882	0.3138501644
2235.4877453613	0.3148899376
2237.4165527343	0.3138649166
2239.3453601074	0.3124184012
2241.2741674804	0.3144339323
2243.2029748534	0.3145721853
2245.1317822265	0.3119154572
2247.0605895995	0.3132345378
2248.9893969726	0.3127661645
2250.9182043456	0.3111306131
2252.8470117187	0.3116957247
2254.7758190917	0.3114044070
2256.7046264648	0.3126707375
2258.6334338378	0.3116498888
2260.5622412109	0.3115024269
2262.4910485839	0.3131366074
2264.4198559570	0.3129764199
2266.3486633300	0.3130077422
2268.2774707031	0.3116128743
2270.2062780761	0.3121373057
2272.1350854491	0.3126815557
2274.0638928222	0.3115282953
2275.9927001952	0.3114989400
2277.9215075683	0.3118049800
2279.8503149413	0.3119727373
2281.7791223144	0.3107067943
2283.7079296874	0.3100263178
2285.6367370605	0.3107877970
2287.5655444335	0.3113188744
2289.4943518066	0.3115726411
2291.4231591796	0.3127749264
2293.3519665527	0.3117413819
2295.2807739257	0.3094903827
2297.2095812988	0.3099631369
2299.1383886718	0.3096605539
2301.0671960449	0.3111113906
2302.9960034179	0.3099385798
2304.9248107909	0.3075367808
2306.8536181640	0.3111407161
2308.7824255370	0.3102597892
2310.7112329101	0.3088554442
2312.6400402831	0.3094471097
2314.5688476562	0.3074198365
2316.4976550292	0.3074606359
2318.4264624023	0.3058405221
2320.3552697753	0.3059031963
2322.2840771484	0.3065448999
2324.2128845214	0.3040674031
2326.1416918945	0.3053500950
2328.0704992675	0.3060700893
2329.9993066406	0.3041403592
2331.9281140136	0.3028405309
2333.8569213866	0.3034972250
2335.7857287597	0.3032144904
2337.7145361327	0.3021011353
2339.6433435058	0.3043564558
2341.5721508788	0.3029760122
2343.5009582519	0.3018798828
2345.4297656249	0.3037380576
2347.3585729980	0.3048871756
2349.2873803710	0.3069131076
2351.2161877441	0.3047047555
2353.1449951171	0.3020485640
2355.0738024902	0.2996204793
2357.0026098632	0.2974513769
2358.9314172363	0.3003893793
2360.8602246093	0.3000683784
2362.7890319823	0.2990638316
2364.7178393554	0.2994917929
2366.6466467284	0.2999247611
2368.5754541015	0.3011468649
2370.5042614745	0.2993840277
2372.4330688476	0.2999219000
2374.3618762206	0.3024387956
2376.2906835937	0.3031174242
2378.2194909667	0.3052240312
2380.1482983398	0.3055470288
2382.0771057128	0.3039632738
2384.0059130859	0.3050299287
2385.9347204589	0.3059211373
2387.8635278320	0.3057957888
2389.7923352050	0.3043572307
2391.7211425780	0.3039515615
2393.6499499511	0.3042562008
2395.5787573241	0.3022722602
2397.5075646972	0.3045426011
2399.4363720702	0.3051148057
2401.3651794433	0.3031933010
2403.2939868163	0.3038576543
2405.2227941894	0.3021903038
2407.1516015624	0.3023215234
2409.0804089355	0.3024572730
2411.0092163085	0.3025779426
2412.9380236816	0.3042730987
2414.8668310546	0.3039239943
2416.7956384277	0.3027335405
2418.7244458007	0.3024722040
2420.6532531738	0.3042076528
2422.5820605468	0.3033763170
2424.5108679198	0.3018280864
2426.4396752929	0.3013530374
2428.3684826659	0.3016606569
2430.2972900390	0.3031258583
2432.2260974120	0.3025714159
2434.1549047851	0.3023391664
2436.0837121581	0.3013622165
2438.0125195312	0.3009425402
2439.9413269042	0.3004700840
2441.8701342773	0.2993080914
2443.7989416503	0.3005354404
2445.7277490234	0.3015538752
2447.6565563964	0.3013464212
2449.5853637695	0.2993117869
2451.5141711425	0.2997117341
2453.4429785155	0.3010112643
2455.3717858886	0.3002476692
2457.3005932616	0.3000823259
2459.2294006347	0.2990596890
2461.1582080077	0.2999320626
2463.0870153808	0.3015420437
2465.0158227538	0.3000521958
2466.9446301269	0.2979771793
2468.8734374999	0.2979753613
2470.8022448730	0.2976357341
2472.7310522460	0.2978044152
2474.6598596191	0.2987599671
2476.5886669921	0.2977526486
2478.5174743652	0.2982115149
2480.4462817382	0.2979714572
2482.3750891112	0.2970643640
2484.3038964843	0.2977580130
2486.2327038573	0.2979049087
2488.1615112304	0.2966320813
2490.0903186034	0.2961054444
2492.0191259765	0.2979842722
2493.9479333495	0.2977441847
2495.8767407226	0.2967805862
2497.8055480956	0.2946194708
2499.7343554687	0.2938721776
2501.6631628417	0.2965257466
2503.5919702148	0.2959366441
2505.5207775878	0.2956171632
2507.4495849609	0.2961746156
2509.3783923339	0.2957124710
2511.3071997069	0.2938859463
2513.2360070800	0.2934999466
2515.1648144530	0.2949904501
2517.0936218261	0.2948078811
2519.0224291991	0.2953225076
2520.9512365722	0.2929325104
2522.8800439452	0.2935345471
2524.8088513183	0.2969605327
2526.7376586913	0.2944605350
2528.6664660644	0.2945873737
2530.5952734374	0.2948323488
2532.5240808105	0.2920880616
2534.4528881835	0.2930600345
2536.3816955566	0.2925476134
2538.3105029296	0.2920098901
2540.2393103027	0.2948558331
2542.1681176757	0.2926373482
2544.0969250487	0.2913864255
2546.0257324218	0.2934459746
2547.9545397948	0.2899542749
2549.8833471679	0.2893578112
2551.8121545409	0.2927411199
2553.7409619140	0.2915031016
2555.6697692870	0.2897813022
2557.5985766601	0.2907244563
2559.5273840331	0.2904431820
2561.4561914062	0.2907524109
2563.3849987792	0.2920749187
2565.3138061523	0.2906290591
2567.2426135253	0.2894249260
2569.1714208984	0.2899801135
2571.1002282714	0.2905195057
2573.0290356444	0.2897872925
2574.9578430175	0.2899688184
2576.8866503905	0.2905200124
2578.8154577636	0.2901749313
2580.7442651366	0.2905216515
2582.6730725097	0.2889460921
2584.6018798827	0.2890073955
2586.5306872558	0.2898045480
2588.4594946288	0.2869743407
2590.3883020019	0.2843981385
2592.3171093749	0.2858373225
2594.2459167480	0.2877369523
2596.1747241210	0.2873715162
2598.1035314941	0.2879409492
2600.0323388671	0.2864494324
2601.9611462401	0.2864817083
2603.8899536132	0.2867081761
2605.8187609862	0.2853788435
2607.7475683593	0.2865183055
2609.6763757323	0.2862027287
2611.6051831054	0.2872790992
2613.5339904784	0.2857999206
2615.4627978515	0.2851815224
2617.3916052245	0.2857497036
2619.3204125976	0.2833368778
2621.2492199706	0.2853773832
2623.1780273437	0.2844873667
2625.1068347167	0.2836812139
2627.0356420898	0.2855166197
2628.9644494628	0.2853296101
2630.8932568358	0.2844970822
2632.8220642089	0.2833728492
2634.7508715819	0.2838649452
2636.6796789550	0.2840099931
2638.6084863280	0.2856224179
2640.5372937011	0.2842218876
2642.4661010741	0.2831319273
2644.3949084472	0.2833972871
2646.3237158202	0.2814839184
2648.2525231933	0.2832514942
2650.1813305663	0.2824983299
2652.1101379394	0.2839201689
2654.0389453124	0.2838020623
2655.9677526855	0.2802090645
2657.8965600585	0.2826791704
2659.8253674315	0.2818527818
2661.7541748046	0.2816173434
2663.6829821776	0.2819758654
2665.6117895507	0.2816720009
2667.5405969237	0.2845588326
2669.4694042968	0.2807220817
2671.3982116698	0.2789504826
2673.3270190429	0.2819575667
2675.2558264159	0.2795230150
2677.1846337890	0.2795931399
2679.1134411620	0.2806692123
2681.0422485351	0.2798606753
2682.9710559081	0.2809934616
2684.8998632812	0.2792222202
2686.8286706542	0.2797955573
2688.7574780273	0.2805769742
2690.6862854003	0.2786416709
2692.6150927733	0.2791110873
2694.5439001464	0.2772090137
2696.4727075194	0.2781772316
2698.4015148925	0.2797126770
2700.3303222655	0.2782787383
2702.2591296386	0.2789919674
2704.1879370116	0.2776471674
2706.1167443847	0.2776983380
2708.0455517577	0.2780581713
2709.9743591308	0.2759342492
2711.9031665038	0.2752032578
2713.8319738769	0.2756473720
2715.7607812499	0.2779644132
2717.6895886230	0.2785316110
2719.6183959960	0.2779408097
2721.5472033690	0.2783281803
2723.4760107421	0.2757027447
2725.4048181151	0.2746192217
2727.3336254882	0.2752365172
2729.2624328612	0.2734844685
2731.1912402343	0.2737120688
2733.1200476073	0.2743062079
2735.0488549804	0.2741798162
2736.9776623534	0.2750981748
2738.9064697265	0.2760690749
2740.8352770995	0.2760923803
2742.7640844726	0.2729568481
2744.6928918456	0.2720377147
2746.6216992187	0.2758688927
2748.5505065917	0.2761848867
2750.4793139647	0.2723439038
2752.4081213378	0.2728385925
2754.3369287108	0.2755028903
2756.2657360839	0.2749235332
2758.1945434569	0.2740437984
2760.1233508300	0.2739256024
2762.0521582030	0.2734352648
2763.9809655761	0.2711201310
2765.9097729491	0.2725504935
2767.8385803222	0.2736747265
2769.7673876952	0.2706934214
2771.6961950683	0.2725619078
2773.6250024413	0.2714949548
2775.5538098144	0.2692152560
2777.4826171874	0.2714757621
2779.4114245604	0.2716569901
2781.3402319335	0.2694045603
2783.2690393065	0.2686878443
2785.1978466796	0.2707827985
2787.1266540526	0.2692049742
2789.0554614257	0.2689692378
2790.9842687987	0.2695117593
2792.9130761718	0.2685430050
2794.8418835448	0.2702271342
2796.7706909179	0.2681603134
2798.6994982909	0.2687748075
2800.6283056640	0.2699926794
2802.5571130370	0.2670229971
2804.4859204101	0.2670859396
2806.4147277831	0.2682990730
2808.3435351562	0.2684906721
2810.2723425292	0.2667384148
2812.2011499022	0.2664183080
2814.1299572753	0.2674196362
2816.0587646483	0.2673109472
2817.9875720214	0.2671482563
2819.9163793944	0.2655937374
2821.8451867675	0.2650366426
2823.7739941405	0.2657120824
2825.7028015136	0.2655050457
2827.6316088866	0.2651358247
2829.5604162597	0.2646788359
2831.4892236327	0.2652602494
2833.4180310058	0.2656117678
2835.3468383788	0.2639966607
2837.2756457519	0.2656034827
2839.2044531249	0.2647557855
2841.1332604979	0.2617203593
2843.0620678710	0.2650240362
2844.9908752440	0.2631329298
2846.9196826171	0.2611872554
2848.8484899901	0.2629876435
2850.7772973632	0.2605474591
2852.7061047362	0.2623242736
2854.6349121093	0.2623855770
2856.5637194823	0.2607389390
2858.4925268554	0.2618524730
2860.4213342284	0.2592296898
2862.3501416015	0.2612094879
2864.2789489745	0.2635803223
2866.2077563476	0.2593124211
2868.1365637206	0.2589707673
2870.0653710936	0.2585205436
2871.9941784667	0.2584821582
2873.9229858397	0.2619306147
2875.8517932128	0.2594710290
2877.7806005858	0.2580480576
2879.7094079589	0.2584061623
2881.6382153319	0.2584710121
2883.5670227050	0.2592166960
2885.4958300780	0.2563277185
2887.4246374511	0.2578874826
2889.3534448241	0.2593776882
2891.2822521972	0.2588619292
2893.2110595702	0.2587331831
2895.1398669433	0.2567747533
2897.0686743163	0.2585920691
2898.9974816893	0.2576773763
2900.9262890624	0.2562213242
2902.8550964354	0.2570406795
2904.7839038085	0.2575283349
2906.7127111815	0.2582323551
2908.6415185546	0.2541996241
2910.5703259276	0.2540499270
2912.4991333007	0.2572896481
2914.4279406737	0.2555069029
2916.3567480468	0.2537047863
2918.2855554198	0.2539903522
2920.2143627929	0.2549557090
2922.1431701659	0.2542113960
2924.0719775390	0.2522655725
2926.0007849120	0.2535267770
2927.9295922851	0.2539455593
2929.8583996581	0.2516103983
2931.7872070311	0.2541056871
2933.7160144042	0.2557689548
2935.6448217772	0.2544315755
2937.5736291503	0.2532144487
2939.5024365233	0.2500599325
2941.4312438964	0.2527441084
2943.3600512694	0.2547178268
2945.2888586425	0.2519294322
2947.2176660155	0.2517528534
2949.1464733886	0.2512144148
2951.0752807616	0.2504561245
2953.0040881347	0.2504773736
2954.9328955077	0.2514015436
2956.8617028808	0.2503300607
2958.7905102538	0.2494697422
2960.7193176268	0.2495220900
2962.6481249999	0.2485516071
2964.5769323729	0.2500643134
2966.5057397460	0.2482137084
2968.4345471190	0.2471362799
2970.3633544921	0.2484728247
2972.2921618651	0.2484021485
2974.2209692382	0.2491566390
2976.1497766112	0.2471789569
2978.0785839843	0.2448403239
2980.0073913573	0.2437216640
2981.9361987304	0.2459237128
2983.8650061034	0.2474275827
2985.7938134765	0.2475769818
2987.7226208495	0.2490263432
2989.6514282225	0.2445544749
2991.5802355956	0.2422816008
2993.5090429686	0.2437549829
2995.4378503417	0.2442739904
2997.3666577147	0.2430392504
2999.2954650878	0.2416435331
3001.2242724608	0.2439173609
3003.1530798339	0.2433209270
3005.0818872069	0.2427559793
3007.0106945800	0.2438614070
3008.9395019530	0.2441416681
3010.8683093261	0.2404963374
3012.7971166991	0.2387169898
3014.7259240722	0.2426724285
3016.6547314452	0.2414057702
3018.5835388182	0.2425933033
3020.5123461913	0.2418140471
3022.4411535643	0.2401953340
3024.3699609374	0.2419934124
3026.2987683104	0.2385402620
3028.2275756835	0.2402196825
3030.1563830565	0.2399253249
3032.0851904296	0.2391225398
3034.0139978026	0.2401906401
3035.9428051757	0.2370380908
3037.8716125487	0.2376800478
3039.8004199218	0.2377736270
3041.7292272948	0.2388726026
3043.6580346679	0.2378503084
3045.5868420409	0.2366972566
3047.5156494139	0.2370779365
3049.4444567870	0.2341810763
3051.3732641600	0.2353859693
3053.3020715331	0.2341635972
3055.2308789061	0.2349140495
3057.1596862792	0.2377166599
3059.0884936522	0.2362962067
3061.0173010253	0.2379265279
3062.9461083983	0.2342477441
3064.8749157714	0.2305127233
3066.8037231444	0.2340636700
3068.7325305175	0.2342238724
3070.6613378905	0.2333689332
3072.5901452636	0.2325339019
3074.5189526366	0.2312126011
3076.4477600097	0.2335430384
3078.3765673827	0.2324932069
3080.3053747557	0.2310795486
3082.2341821288	0.2335024029
3084.1629895018	0.2317818552
3086.0917968749	0.2298606932
3088.0206042479	0.2296150178
3089.9494116210	0.2290822715
3091.8782189940	0.2301253825
3093.8070263671	0.2304016650
3095.7358337401	0.2307828814
3097.6646411132	0.2332025766
3099.5934484862	0.2324656099
3101.5222558593	0.2271932065
3103.4510632323	0.2260795981
3105.3798706054	0.2275293469
3107.3086779784	0.2277964205
3109.2374853514	0.2287096381
3111.1662927245	0.2277773321
3113.0951000975	0.2282682955
3115.0239074706	0.2298607528
3116.9527148436	0.2282028347
3118.8815222167	0.2283989489
3120.8103295897	0.2300257087
3122.7391369628	0.2288891375
3124.6679443358	0.2278562039
3126.5967517089	0.2263867855
3128.5255590819	0.2256162465
3130.4543664550	0.2257130295
3132.3831738280	0.2261938453
3134.3119812011	0.2286321223
3136.2407885741	0.2275407910
3138.1695959471	0.2264175713
3140.0984033202	0.2272424549
3142.0272106932	0.2274846137
3143.9560180663	0.2278546095
3145.8848254393	0.2268889099
3147.8136328124	0.2263175547
3149.7424401854	0.2249477506
3151.6712475585	0.2243084311
3153.6000549315	0.2254091650
3155.5288623046	0.2274990231
3157.4576696776	0.2283041924
3159.3864770507	0.2289822400
3161.3152844237	0.2286817878
3163.2440917968	0.2254633009
3165.1728991698	0.2272052765
3167.1017065428	0.2263294905
3169.0305139159	0.2265471071
3170.9593212889	0.2279920727
3172.8881286620	0.2250693738
3174.8169360350	0.2249518186
3176.7457434081	0.2249881029
3178.6745507811	0.2319985330
3180.6033581542	0.2305570692
3182.5321655272	0.2267221659
3184.4609729003	0.2294923812
3186.3897802733	0.2251189649
3188.3185876464	0.2308471054
3190.2473950194	0.2312760502
3192.1762023925	0.2277355939
3194.1050097655	0.2301161289
3196.0338171386	0.2301029265
3197.9626245116	0.2324485481
3199.8914318846	0.2278008759
3201.8202392577	0.2297460437
3203.7490466307	0.2313634753
3205.6778540038	0.2289025187
3207.6066613768	0.2335581481
3209.5354687499	0.2328055203
3211.4642761229	0.2332055271
3213.3930834960	0.2342158556
3215.3218908690	0.2356775701
3217.2506982421	0.2356349230
3219.1795056151	0.2333430648
3221.1083129882	0.2360230684
3223.0371203612	0.2364322692
3224.9659277343	0.2371123433
3226.8947351073	0.2369647324
3228.8235424803	0.2342242301
3230.7523498534	0.2357065678
3232.6811572264	0.2384212613
3234.6099645995	0.2376713604
3236.5387719725	0.2386129797
3238.4675793456	0.2410580516
3240.3963867186	0.2405918986
3242.3251940917	0.2416395843
3244.2540014647	0.2439304292
3246.1828088378	0.2456220388
3248.1116162108	0.2450300604
3250.0404235839	0.2462993413
3251.9692309569	0.2495363504
3253.8980383300	0.2482770234
3255.8268457030	0.2484132499
3257.7556530760	0.2505780458
3259.6844604491	0.2496206611
3261.6132678221	0.2489956617
3263.5420751952	0.2516873181
3265.4708825682	0.2514544427
3267.3996899413	0.2528510690
3269.3284973143	0.2544628382
3271.2573046874	0.2516497076
3273.1861120604	0.2564167082
3275.1149194335	0.2586570084
3277.0437268065	0.2563623786
3278.9725341796	0.2572550476
3280.9013415526	0.2563484907
3282.8301489257	0.2570735216
3284.7589562987	0.2583072186
3286.6877636717	0.2600136399
3288.6165710448	0.2614562511
3290.5453784178	0.2586452365
3292.4741857909	0.2577003241
3294.4029931639	0.2631544173
3296.3318005370	0.2638681829
3298.2606079100	0.2625062466
3300.1894152831	0.2655250728
3302.1182226561	0.2641941011
3304.0470300292	0.2656814158
3305.9758374022	0.2664957345
3307.9046447753	0.2658374906
3309.8334521483	0.2696067989
3311.7622595214	0.2696419656
3313.6910668944	0.2681662142
3315.6198742675	0.2701104879
3317.5486816405	0.2743486166
3319.4774890135	0.2717927396
3321.4062963866	0.2733231485
3323.3351037596	0.2775099576
3325.2639111327	0.2755298615
3327.1927185057	0.2797752917
3329.1215258788	0.2763787210
3331.0503332518	0.2749432027
3332.9791406249	0.2816267908
3334.9079479979	0.2801809609
3336.8367553710	0.2788150311
3338.7655627440	0.2775714993
3340.6943701171	0.2798056006
3342.6231774901	0.2848964036
3344.5519848632	0.2858252227
3346.4807922362	0.2847887576
3348.4095996092	0.2858770788
3350.3384069823	0.2876896858
3352.2672143553	0.2880521417
3354.1960217284	0.2904432416
3356.1248291014	0.2916064560
3358.0536364745	0.2926384509
3359.9824438475	0.2932335734
3361.9112512206	0.2961614430
3363.8400585936	0.2974654138
3365.7688659667	0.2983429134
3367.6976733397	0.3038215935
3369.6264807128	0.2975466251
3371.5552880858	0.2985915542
3373.4840954589	0.3067922890
3375.4129028319	0.3061152995
3377.3417102049	0.3085510433
3379.2705175780	0.3053873777
3381.1993249510	0.3068941236
3383.1281323241	0.3121330440
3385.0569396971	0.3140397072
3386.9857470702	0.3189095557
3388.9145544432	0.3177374899
3390.8433618163	0.3180089295
3392.7721691893	0.3186944425
3394.7009765624	0.3214834332
3396.6297839354	0.3238838017
3398.5585913085	0.3225304484
3400.4873986815	0.3282701671
3402.4162060546	0.3285913467
3404.3450134276	0.3315995932
3406.2738208006	0.3367998898
3408.2026281737	0.3355599642
3410.1314355467	0.3401809633
3412.0602429198	0.3397091329
3413.9890502928	0.3409849107
3415.9178576659	0.3450514078
3417.8466650389	0.3457185924
3419.7754724120	0.3503037691
3421.7042797850	0.3496718109
3423.6330871581	0.3519735336
3425.5618945311	0.3538339138
3427.4907019042	0.3550214767
3429.4195092772	0.3598109782
3431.3483166503	0.3597333431
3433.2771240233	0.3646618724
3435.2059313963	0.3634730279
3437.1347387694	0.3651299179
3439.0635461424	0.3714117408
3440.9923535155	0.3704765439
3442.9211608885	0.3767709434
3444.8499682616	0.3741109371
3446.7787756346	0.3777584136
3448.7075830077	0.3863720000
3450.6363903807	0.3803353906
3452.5651977538	0.3831480145
3454.4940051268	0.3844101131
3456.4228124999	0.3873341382
3458.3516198729	0.3906795084
3460.2804272460	0.3877737224
3462.2092346190	0.3933076859
3464.1380419921	0.3934819996
3466.0668493651	0.3946912587
3467.9956567381	0.4005152881
3469.9244641112	0.4008641243
3471.8532714842	0.4025923610
3473.7820788573	0.4065610468
3475.7108862303	0.4092490971
3477.6396936034	0.4083983004
3479.5685009764	0.4132574201
3481.4973083495	0.4189023376
3483.4261157225	0.4170554876
3485.3549230956	0.4187215269
3487.2837304686	0.4216330349
3489.2125378417	0.4236503243
3491.1413452147	0.4279539287
3493.0701525878	0.4297744036
3494.9989599608	0.4281248152
3496.9277673338	0.4297993183
3498.8565747069	0.4348102212
3500.7853820799	0.4360473752
3502.7141894530	0.4356366694
3504.6429968260	0.4356209636
3506.5718041991	0.4395773411
3508.5006115721	0.4447315335
3510.4294189452	0.4436918199
3512.3582263182	0.4466661513
3514.2870336913	0.4501127303
3516.2158410643	0.4487722218
3518.1446484374	0.4508653581
3520.0734558104	0.4540617764
3522.0022631835	0.4560062587
3523.9310705565	0.4578504264
3525.8598779295	0.4612866342
3527.7886853026	0.4612741768
3529.7174926756	0.4630988240
3531.6463000487	0.4659468532
3533.5751074217	0.4642775357
3535.5039147948	0.4713498056
3537.4327221678	0.4719648361
3539.3615295409	0.4694232941
3541.2903369139	0.4757990837
3543.2191442870	0.4766978920
3545.1479516600	0.4791996181
3547.0767590331	0.4796693921
3549.0055664061	0.4831036031
3550.9343737792	0.4876212180
3552.8631811522	0.4838326275
3554.7919885252	0.4886563122
3556.7207958983	0.4892196059
3558.6496032713	0.4861784279
3560.5784106444	0.4931963980
3562.5072180174	0.4951909482
3564.4360253905	0.4941297472
3566.3648327635	0.4974252582
3568.2936401366	0.4982182980
3570.2224475096	0.4968532920
3572.1512548827	0.4994395375
3574.0800622557	0.5037046075
3576.0088696288	0.5047850609
3577.9376770018	0.5048156977
3579.8664843749	0.5084359050
3581.7952917479	0.5104172826
3583.7240991210	0.5111740232
3585.6529064940	0.5160050392
3587.5817138670	0.5155543685
3589.5105212401	0.5151414275
3591.4393286131	0.5186350346
3593.3681359862	0.5162455440
3595.2969433592	0.5172841549
3597.2257507323	0.5194510818
3599.1545581053	0.5166498423
3601.0833654784	0.5221147537
3603.0121728514	0.5253217816
3604.9409802245	0.5219365954
3606.8697875975	0.5282791853
3608.7985949706	0.5305769444
3610.7274023436	0.5290726423
3612.6562097167	0.5356609225
3614.5850170897	0.5375795960
3616.5138244627	0.5358914733
3618.4426318358	0.5361092687
3620.3714392088	0.5404825211
3622.3002465819	0.5399238467
3624.2290539549	0.5369645953
3626.1578613280	0.5426546931
3628.0866687010	0.5458214283
3630.0154760741	0.5497000813
3631.9442834471	0.5485288501
3633.8730908202	0.5497856140
3635.8018981932	0.5586621165
3637.7307055663	0.5539265871
3639.6595129393	0.5564097762
3641.5883203124	0.5653355718
3643.5171276854	0.5619977117
3645.4459350584	0.5605585575
3647.3747424315	0.5630294085
3649.3035498045	0.5680613518
3651.2323571776	0.5685915351
3653.1611645506	0.5661475658
3655.0899719237	0.5703025460
3657.0187792967	0.5811073184
3658.9475866698	0.5825608969
3660.8763940428	0.5791444182
3662.8052014159	0.5877461433
3664.7340087889	0.5891425014
3666.6628161620	0.5840579867
3668.5916235350	0.5875990391
3670.5204309081	0.5883410573
3672.4492382811	0.5910493135
3674.3780456541	0.5955107808
3676.3068530272	0.5968197584
3678.2356604002	0.5961880684
3680.1644677733	0.5984573960
3682.0932751463	0.6021057367
3684.0220825194	0.6024744511
3685.9508898924	0.5997804403
3687.8796972655	0.5946858525
3689.8085046385	0.5945268869
3691.7373120116	0.5959450006
3693.6661193846	0.5945881605
3695.5949267577	0.5939407945
3697.5237341307	0.5958881974
3699.4525415038	0.5958362222
3701.3813488768	0.5925965905
3703.3101562499	0.5935989022
3705.2389636229	0.5892136693
3707.1677709959	0.5872191191
3709.0965783690	0.5888359547
3711.0253857420	0.5904436707
3712.9541931151	0.5915420651
3714.8830004881	0.5832874775
3716.8118078612	0.5855541229
3718.7406152342	0.5822095871
3720.6694226073	0.5782196522
3722.5982299803	0.5825492144
3724.5270373534	0.5773311257
3726.4558447264	0.5762449503
3728.3846520995	0.5718181729
3730.3134594725	0.5753630996
3732.2422668456	0.5766212344
3734.1710742186	0.5670989156
3736.0998815916	0.5694924593
3738.0286889647	0.5666692853
3739.9574963377	0.5669557452
3741.8863037108	0.5672569871
3743.8151110838	0.5624203682
3745.7439184569	0.5548030734
3747.6727258299	0.5563195944
3749.6015332030	0.5616350174
3751.5303405760	0.5535408854
3753.4591479491	0.5538239479
3755.3879553221	0.5525085330
3757.3167626952	0.5518689156
3759.2455700682	0.5525919795
3761.1743774413	0.5470591187
3763.1031848143	0.5498228073
3765.0319921873	0.5464780927
3766.9607995604	0.5458087325
3768.8896069334	0.5459021330
3770.8184143065	0.5423718095
3772.7472216795	0.5413277149
3774.6760290526	0.5354014039
3776.6048364256	0.5361366272
3778.5336437987	0.5393354893
3780.4624511717	0.5405422449
3782.3912585448	0.5369783044
3784.3200659178	0.5364648700
3786.2488732909	0.5369086862
3788.1776806639	0.5288583040
3790.1064880370	0.5289220214
3792.0352954100	0.5316004753
3793.9641027830	0.5291888714
3795.8929101561	0.5249720216
3797.8217175291	0.5285983086
3799.7505249022	0.5298202038
3801.6793322752	0.5226716399
3803.6081396483	0.5246524811
3805.5369470213	0.5209835172
3807.4657543944	0.5217818618
3809.3945617674	0.5246320963
3811.3233691405	0.5170840025
3813.2521765135	0.5172629356
3815.1809838866	0.5186818242
3817.1097912596	0.5192506909
3819.0385986327	0.5156256557
3820.9674060057	0.5116853118
3822.8962133787	0.5126373172
3824.8250207518	0.5129749775
3826.7538281248	0.5179719329
3828.6826354979	0.5132860541
3830.6114428709	0.5076588988
3832.5402502440	0.5092583895
3834.4690576170	0.5034552813
3836.3978649901	0.5025115013
3838.3266723631	0.5081899762
3840.2554797362	0.5055425167
3842.1842871092	0.4997720122
3844.1130944823	0.4999157786
3846.0419018553	0.5046185255
3847.9707092284	0.5020796061
3849.8995166014	0.4982499480
3851.8283239745	0.4993780255
3853.7571313475	0.4977778792
3855.6859387205	0.4951610267
3857.6147460936	0.4944009185
3859.5435534666	0.4987837076
3861.4723608397	0.4996667504
3863.4011682127	0.4922434688
3865.3299755858	0.4956356883
3867.2587829588	0.4986078441
3869.1875903319	0.4946126640
3871.1163977049	0.4968769252
3873.0452050780	0.4961266220
3874.9740124510	0.4885821939
3876.9028198241	0.4883026481
3878.8316271971	0.4909889400
3880.7604345702	0.4853553772
3882.6892419432	0.4856780171
3884.6180493162	0.4850632846
3886.5468566893	0.4845792055
3888.4756640623	0.4873270988
3890.4044714354	0.4828040898
3892.3332788084	0.4840310514
3894.2620861815	0.4815086424
3896.1908935545	0.4816299677
3898.1197009276	0.4850395322
3900.0485083006	0.4792039990
3901.9773156737	0.4854612648
3903.9061230467	0.4876099825
3905.8349304198	0.4820097387
3907.7637377928	0.4798845053
3909.6925451659	0.4767672122
3911.6213525389	0.4772763848
3913.5501599119	0.4758093357
3915.4789672850	0.4764095545
3917.4077746580	0.4737218320
3919.3365820311	0.4709850550
3921.2653894041	0.4784113169
3923.1941967772	0.4780074060
3925.1230041502	0.4736177027
3927.0518115233	0.4756738245
3928.9806188963	0.4769988358
3930.9094262694	0.4765275121
3932.8382336424	0.4736298621
3934.7670410155	0.4724103212
3936.6958483885	0.4729695022
3938.6246557616	0.4707399905
3940.5534631346	0.4691905379
3942.4822705076	0.4695915580
3944.4110778807	0.4702527225
3946.3398852537	0.4633123577
3948.2686926268	0.4641508460
3950.1974999998	0.4682620764
3952.1263073729	0.4587432146
3954.0551147459	0.4669375718
3955.9839221190	0.4700537622
3957.9127294920	0.4618892074
3959.8415368651	0.4656413198
3961.7703442381	0.4648112059
3963.6991516112	0.4661921859
3965.6279589842	0.4613889158
3967.5567663573	0.4620120823
3969.4855737303	0.4667952657
3971.4143811034	0.4650744200
3973.3431884764	0.4667135775
3975.2719958494	0.4580687582
3977.2008032225	0.4614739120
3979.1296105955	0.4645274282
3981.0584179686	0.4583722353
3982.9872253416	0.4607233405
3984.9160327147	0.4581974745
3986.8448400877	0.4570681751
3988.7736474608	0.4581189752
3990.7024548338	0.4597438574
3992.6312622069	0.4555743039
3994.5600695799	0.4553124607
3996.4888769530	0.4583629966
3998.4176843260	0.4526106715
4000.3464916991	0.4531885982
4002.2752990721	0.4504162371
4004.2041064451	0.4502937198
4006.1329138182	0.4581007957
4008.0617211912	0.4572129846
4009.9905285643	0.4535733759
4011.9193359373	0.4583604932
4013.8481433104	0.4573854804
4015.7769506834	0.4502651393
4017.7057580565	0.4568362832
4019.6345654295	0.4536961317
4021.5633728026	0.4496016204
4023.4921801756	0.4592764974
4025.4209875487	0.4561571479
4027.3497949217	0.4532523751
4029.2786022948	0.4574723840
4031.2074096678	0.4541247785
4033.1362170408	0.4512993097
4035.0650244139	0.4494838715
4036.9938317869	0.4462758303
4038.9226391600	0.4531611204
4040.8514465330	0.4517686963
4042.7802539061	0.4478158653
4044.7090612791	0.4528379440
4046.6378686522	0.4485516250
4048.5666760252	0.4479278624
4050.4954833983	0.4484350979
4052.4242907713	0.4499692023
4054.3530981444	0.4478051066
4056.2819055174	0.4417465627
4058.2107128905	0.4443265200
4060.1395202635	0.4434810281
4062.0683276365	0.4449064434
4063.9971350096	0.4413260520
4065.9259423826	0.4448339045
4067.8547497557	0.4507023990
4069.7835571287	0.4441915452
4071.7123645018	0.4447774589
4073.6411718748	0.4413200021
4075.5699792479	0.4429177046
4077.4987866209	0.4441653192
4079.4275939940	0.4417281151
4081.3564013670	0.4432019591
4083.2852087401	0.4381049573
4085.2140161131	0.4423198104
4087.1428234862	0.4466181695
4089.0716308592	0.4418205023
4091.0004382323	0.4391371608
4092.9292456053	0.4419203699
4094.8580529783	0.4383298159
4096.7868603514	0.4359384179
4098.7156677244	0.4447436929
4100.6444750975	0.4421962500
4102.5732824705	0.4382437468
4104.5020898436	0.4382554591
4106.4308972166	0.4399708509
4108.3597045897	0.4396238625
4110.2885119627	0.4360325336
4112.2173193358	0.4404193461
4114.1461267088	0.4375239313
4116.0749340819	0.4401074946
4118.0037414549	0.4397796392
4119.9325488280	0.4310555458
4121.8613562010	0.4410879314
4123.7901635740	0.4392810464
4125.7189709471	0.4308689237
4127.6477783201	0.4323473871
4129.5765856932	0.4296768606
4131.5053930662	0.4347563684
4133.4342004393	0.4318962395
4135.3630078123	0.4339231849
4137.2918151854	0.4443798363
4139.2206225584	0.4316957295
4141.1494299315	0.4327726960
4143.0782373045	0.4400101602
4145.0070446776	0.4341985881
4146.9358520506	0.4397311509
4148.8646594237	0.4386694133
4150.7934667967	0.4332837462
4152.7222741697	0.4303434789
4154.6510815428	0.4317205846
4156.5798889158	0.4368857145
4158.5086962889	0.4325195849
4160.4375036619	0.4305310249
4162.3663110350	0.4283226728
4164.2951184080	0.4290091991
4166.2239257811	0.4329696000
4168.1527331541	0.4287566245
4170.0815405272	0.4279151857
4172.0103479002	0.4260197580
4173.9391552733	0.4193964303
4175.8679626463	0.4260294735
4177.7967700194	0.4380050600
4179.7255773924	0.4324692190
4181.6543847654	0.4275726378
4183.5831921385	0.4310733080
4185.5119995115	0.4271703064
4187.4408068846	0.4292689264
4189.3696142576	0.4272836149
4191.2984216307	0.4178590477
4193.2272290037	0.4310895205
4195.1560363768	0.4342408180
4197.0848437498	0.4183386266
4199.0136511229	0.4291317463
4200.9424584959	0.4341468215
4202.8712658690	0.4240464866
4204.8000732420	0.4291893244
4206.7288806151	0.4272424281
4208.6576879881	0.4244533181
4210.5864953611	0.4301033914
4212.5153027342	0.4286433458
4214.4441101072	0.4264358282
4216.3729174803	0.4245638549
4218.3017248533	0.4242359996
4220.2305322264	0.4261462390
4222.1593395994	0.4208557606
4224.0881469725	0.4199419618
4226.0169543455	0.4256257117
4227.9457617186	0.4232108593
4229.8745690916	0.4223999083
4231.8033764647	0.4250240028
4233.7321838377	0.4239961803
4235.6609912108	0.4238297343
4237.5897985838	0.4204247892
4239.5186059569	0.4155211151
4241.4474133299	0.4225384593
4243.3762207029	0.4230229259
4245.3050280760	0.4137132168
4247.2338354490	0.4209350646
4249.1626428221	0.4218752384
4251.0914501951	0.4198839068
4253.0202575682	0.4220626354
4254.9490649412	0.4202308953
4256.8778723143	0.4272115827
4258.8066796873	0.4156929553
4260.7354870604	0.4129712582
4262.6642944334	0.4257874489
4264.5931018065	0.4176884592
4266.5219091795	0.4155644178
4268.4507165526	0.4160637856
4270.3795239256	0.4129779637
4272.3083312986	0.4161493182
4274.2371386717	0.4212130904
4276.1659460447	0.4226477146
4278.0947534178	0.4222651124
4280.0235607908	0.4173464775
4281.9523681639	0.4133345783
4283.8811755369	0.4205333889
4285.8099829100	0.4158314466
4287.7387902830	0.4159100652
4289.6675976561	0.4211598039
4291.5964050291	0.4140720367
4293.5252124022	0.4150070846
4295.4540197752	0.4178487062
4297.3828271483	0.4172760546
4299.3116345213	0.4147697985
4301.2404418943	0.4173383415
4303.1692492674	0.4183962643
4305.0980566404	0.4166380167
4307.0268640135	0.4188692272
4308.9556713865	0.4186868668
4310.8844787596	0.4178556204
4312.8132861326	0.4155454338
4314.7420935057	0.4187291563
4316.6709008787	0.4131865501
4318.5997082518	0.4146183431
4320.5285156248	0.4239203930
4322.4573229979	0.4182724059
4324.3861303709	0.4207426906
4326.3149377440	0.4187937975
4328.2437451170	0.4193703830
4330.1725524900	0.4193981886
4332.1013598631	0.4088386595
4334.0301672361	0.4101482332
4335.9589746092	0.4126107097
4337.8877819822	0.4138562679
4339.8165893553	0.4113817811
4341.7453967283	0.4083727002
4343.6742041014	0.4080598950
4345.6030114744	0.4147284627
4347.5318188475	0.4161536694
4349.4606262205	0.4109233320
4351.3894335936	0.4170226157
4353.3182409666	0.4098219573
4355.2470483397	0.4102489948
4357.1758557127	0.4157403409
4359.1046630858	0.4115186036
4361.0334704588	0.4177729785
4362.9622778318	0.4121649563
4364.8910852049	0.4071459472
4366.8198925779	0.4101878107
4368.7486999510	0.4090796709
4370.6775073240	0.4094154835
4372.6063146971	0.4124192297
4374.5351220701	0.4140502810
4376.4639294432	0.4089644849
4378.3927368162	0.4056564271
4380.3215441893	0.4094551206
4382.2503515623	0.4137314856
4384.1791589354	0.4074223936
4386.1079663084	0.4090802372
4388.0367736815	0.4115054607
4389.9655810545	0.4004818797
4391.8943884275	0.4016240537
4393.8231958006	0.4099005759
4395.7520031736	0.4126451313
4397.6808105467	0.4000958800
4399.6096179197	0.3979235291
4401.5384252928	0.4118107557
4403.4672326658	0.4141254127
4405.3960400389	0.4144281149
4407.3248474119	0.3987140059
4409.2536547850	0.3924670219
4411.1824621580	0.4072135091
4413.1112695311	0.4091805518
4415.0400769041	0.4094359875
4416.9688842772	0.4094837606
4418.8976916502	0.4047889709
4420.8264990232	0.3963641822
4422.7553063963	0.3983777463
4424.6841137693	0.4026632607
4426.6129211424	0.4030744731
4428.5417285154	0.4062270522
4430.4705358885	0.3947108388
4432.3993432615	0.3983964324
4434.3281506346	0.4064350724
4436.2569580076	0.4044201076
4438.1857653807	0.4089672267
4440.1145727537	0.3988642097
4442.0433801268	0.4019597173
4443.9721874998	0.4064119160
4445.9009948729	0.3981457651
4447.8298022459	0.4034209251
4449.7586096189	0.4015107453
4451.6874169920	0.4044406414
4453.6162243650	0.4037583172
4455.5450317381	0.3933891356
4457.4738391111	0.4038492441
4459.4026464842	0.4016564488
4461.3314538572	0.3938341141
4463.2602612303	0.4055564702
4465.1890686033	0.3947024643
4467.1178759764	0.3910620213
4469.0466833494	0.4087149799
4470.9754907225	0.4015570283
4472.9042980955	0.4030470550
4474.8331054686	0.4070040584
4476.7619128416	0.4009144604
4478.6907202147	0.4044277668
4480.6195275877	0.3962917030
4482.5483349607	0.4006369412
4484.4771423338	0.4093903005
4486.4059497068	0.4025096297
4488.3347570799	0.4032085240
4490.2635644529	0.4052481353
4492.1923718260	0.4056071341
4494.1211791990	0.4078128040
4496.0499865721	0.4081209600
4497.9787939451	0.4006133080
4499.9076013182	0.4023203552
4501.8364086912	0.4052546918
4503.7652160643	0.3953426182
4505.6940234373	0.3998166025
4507.6228308104	0.4024422467
4509.5516381834	0.4001550078
4511.4804455564	0.4080048800
4513.4092529295	0.4072666168
4515.3380603025	0.4013505280
4517.2668676756	0.4006929696
4519.1956750486	0.3970623910
4521.1244824217	0.3956242502
4523.0532897947	0.4013020992
4524.9820971678	0.3979637027
4526.9109045408	0.3956148028
4528.8397119139	0.4005372822
4530.7685192869	0.3994750381
4532.6973266600	0.3969863951
4534.6261340330	0.4016156197
4536.5549414061	0.4055491388
4538.4837487791	0.4003374279
4540.4125561521	0.4034730196
4542.3413635252	0.4091651738
4544.2701708982	0.4043607414
4546.1989782713	0.3944189250
4548.1277856443	0.3937230408
4550.0565930174	0.4032778740
4551.9854003904	0.3974667490
4553.9142077635	0.3954134285
4555.8430151365	0.3991573751
4557.7718225096	0.3902213275
4559.7006298826	0.3899893165
4561.6294372557	0.3966427743
4563.5582446287	0.3970889449
4565.4870520018	0.3953760862
4567.4158593748	0.4030771255
4569.3446667478	0.4040000439
4571.2734741209	0.3969491422
4573.2022814939	0.4025689960
4575.1310888670	0.3994356096
4577.0598962400	0.3917608559
4578.9887036131	0.3973510265
4580.9175109861	0.3964847028
4582.8463183592	0.3924092054
4584.7751257322	0.3947273493
4586.7039331053	0.3912386298
4588.6327404783	0.3960235715
4590.5615478514	0.4055801928
4592.4903552244	0.3958082795
4594.4191625975	0.3909277320
4596.3479699705	0.3993186951
4598.2767773435	0.4000850618
4600.2055847166	0.3956723213
4602.1343920896	0.3960176706
4604.0631994627	0.3940799236
4605.9920068357	0.3931793272
4607.9208142088	0.3997014165
4609.8496215818	0.3953540623
4611.7784289549	0.3964033425
4613.7072363279	0.4055431783
4615.6360437010	0.3948365748
4617.5648510740	0.3831174374
4619.4936584471	0.3872184157
4621.4224658201	0.3954086602
4623.3512731932	0.3941247463
4625.2800805662	0.3861676455
4627.2088879393	0.3865911961
4629.1376953123	0.3912362158
4631.0665026853	0.3935624063
4632.9953100584	0.4026857018
4634.9241174314	0.4044715762
4636.8529248045	0.3865495920
4638.7817321775	0.3862941861
4640.7105395506	0.3952394128
4642.6393469236	0.3956026435
4644.5681542967	0.4013126791
4646.4969616697	0.3959689140
4648.4257690428	0.3974048495
4650.3545764158	0.3957601786
4652.2833837889	0.3872355521
4654.2121911619	0.3961165249
4656.1409985350	0.3953665495
4658.0698059080	0.4052275717
4659.9986132810	0.4109008908
4661.9274206541	0.3974180520
4663.8562280271	0.3920105994
4665.7850354002	0.3885673583
4667.7138427732	0.3952871859
4669.6426501463	0.3900073767
4671.5714575193	0.3930304646
4673.5002648924	0.3946235776
4675.4290722654	0.3829428554
4677.3578796385	0.4014701545
4679.2866870115	0.3929133415
4681.2154943846	0.3843698204
4683.1443017576	0.4034475982
4685.0731091307	0.3947788775
4687.0019165037	0.3856128156
4688.9307238767	0.3887141943
4690.8595312498	0.3890904784
4692.7883386228	0.3885965347
4694.7171459959	0.3864971399
4696.6459533689	0.3910648525
4698.5747607420	0.3976630569
4700.5035681150	0.3831042647
4702.4323754881	0.3835390508
4704.3611828611	0.3901300132
4706.2899902342	0.3872296214
4708.2187976072	0.3976394534
4710.1476049803	0.3822914660
4712.0764123533	0.3876085579
4714.0052197264	0.3925132751
4715.9340270994	0.3913951814
4717.8628344724	0.4086759984
4719.7916418455	0.3839585483
4721.7204492185	0.3882872462
4723.6492565916	0.3861553967
4725.5780639646	0.3759306967
4727.5068713377	0.3895867169
4729.4356787107	0.3798764944
4731.3644860838	0.3898629844
4733.2932934568	0.3875330985
4735.2221008299	0.3852583468
4737.1509082029	0.3903425336
4739.0797155760	0.3863546252
4741.0085229490	0.3930883706
4742.9373303221	0.4015973508
4744.8661376951	0.4027249515
4746.7949450682	0.3896497488
4748.7237524412	0.3935732245
4750.6525598142	0.3790714145
4752.5813671873	0.3818872273
4754.5101745603	0.3908357620
4756.4389819334	0.3723472953
4758.3677893064	0.3827702999
4760.2965966795	0.3711163402
4762.2254040525	0.3801353872
4764.1542114256	0.3947055936
4766.0830187986	0.3850282729
4768.0118261717	0.3885282874
4769.9406335447	0.3881957829
4771.8694409178	0.3988465667
4773.7982482908	0.3898994625
4775.7270556639	0.3919590116
4777.6558630369	0.3971708417
4779.5846704099	0.3846358359
4781.5134777830	0.3810447156
4783.4422851560	0.3828043938
4785.3710925291	0.3892627656
4787.2998999021	0.3831161261
4789.2287072752	0.3979526460
4791.1575146482	0.3926268220
4793.0863220213	0.3675326407
4795.0151293943	0.3730138242
4796.9439367674	0.3830015063
4798.8727441404	0.3820596635
4800.8015515135	0.3833687007
4802.7303588865	0.3949305713
4804.6591662596	0.3801611066
4806.5879736326	0.3869447708
4808.5167810056	0.3922201991
4810.4455883787	0.3832845390
4812.3743957517	0.3965050876
4814.3032031248	0.3803853989
4816.2320104978	0.3858139813
4818.1608178709	0.3847759664
4820.0896252439	0.3796947002
4822.0184326170	0.3929790556
4823.9472399900	0.3780497909
4825.8760473631	0.3837663829
4827.8048547361	0.3880519569
4829.7336621092	0.3828311861
4831.6624694822	0.3821267188
4833.5912768553	0.3841255307
4835.5200842283	0.3910900652
4837.4488916013	0.3744724989
4839.3776989744	0.3692389727
4841.3065063474	0.3888441324
4843.2353137205	0.3921278119
4845.1641210935	0.3845913708
4847.0929284666	0.3838890493
4849.0217358396	0.3732361495
4850.9505432127	0.3735605478
4852.8793505857	0.3866876364
4854.8081579588	0.3880844414
4856.7369653318	0.3772576749
4858.6657727049	0.3729298115
4860.5945800779	0.3852452934
4862.5233874510	0.3813387752
4864.4521948240	0.3845864832
4866.3810021971	0.3793356419
4868.3098095701	0.3786774576
4870.2386169431	0.4095817506
4872.1674243162	0.3919506371
4874.0962316892	0.3779565692
4876.0250390623	0.3990629911
4877.9538464353	0.3850352764
4879.8826538084	0.3711365759
4881.8114611814	0.3779612184
4883.7402685545	0.3783923388
4885.6690759275	0.3805525601
4887.5978833006	0.3685062528
4889.5266906736	0.3707349300
4891.4554980467	0.3934330940
4893.3843054197	0.3732689023
4895.3131127928	0.3709120452
4897.2419201658	0.3873909414
4899.1707275388	0.3877919018
4901.0995349119	0.3728493452
4903.0283422849	0.3600381911
4904.9571496580	0.3832167685
4906.8859570310	0.3779873848
4908.8147644041	0.3703604341
4910.7435717771	0.3725463748
4912.6723791502	0.3818537295
4914.6011865232	0.3787987530
4916.5299938963	0.3579085171
4918.4588012693	0.3867615461
4920.3876086424	0.3774069548
4922.3164160154	0.3696998060
4924.2452233885	0.3729864955
4926.1740307615	0.3521778584
4928.1028381345	0.3679228127
4930.0316455076	0.3618044555
4931.9604528806	0.3643297851
4933.8892602537	0.3788289726
4935.8180676267	0.3801894188
4937.7468749998	0.3718126416
4939.6756823728	0.3723251820
4941.6044897459	0.3869449496
4943.5332971189	0.3793732524
4945.4621044920	0.3839053214
4947.3909118650	0.3821239471
4949.3197192381	0.3771274388
4951.2485266111	0.3601637483
4953.1773339842	0.3706664145
4955.1061413572	0.3981891274
4957.0349487302	0.3731385767
4958.9637561033	0.3712433875
4960.8925634763	0.3667825460
4962.8213708494	0.3748059869
4964.7501782224	0.3756050766
4966.6789855955	0.3556700051
4968.6077929685	0.3774968386
4970.5366003416	0.3772712350
4972.4654077146	0.3837007582
4974.3942150877	0.3799725771
4976.3230224607	0.3697378635
4978.2518298338	0.3911764920
4980.1806372068	0.3901484013
4982.1094445799	0.3722662330
4984.0382519529	0.3637208939
4985.9670593259	0.3740998507
4987.8958666990	0.3798792958
4989.8246740720	0.3742924929
4991.7534814451	0.3596578240
4993.6822888181	0.3681685030
4995.6110961912	0.3747671843
4997.5399035642	0.3632728755
4999.4687109373	0.3886975050
5001.3975183103	0.3803575635
5003.3263256834	0.3744128048
5005.2551330564	0.3875253499
5007.1839404295	0.3570992053
5009.1127478025	0.3597683311
5011.0415551756	0.3844144344
5012.9703625486	0.3890562057
5014.8991699217	0.3851013482
5016.8279772947	0.3707180619
5018.7567846677	0.3696532249
5020.6855920408	0.3800079226
5022.6143994138	0.3813290298
5024.5432067869	0.3860433102
5026.4720141599	0.3757175505
5028.4008215330	0.3685802519
5030.3296289060	0.3735152185
5032.2584362791	0.3618809283
5034.1872436521	0.3594532013
5036.1160510252	0.3616521657
5038.0448583982	0.3771568239
5039.9736657713	0.3820243776
5041.9024731443	0.3712539971
5043.8312805174	0.3681916296
5045.7600878904	0.3693337142
5047.6888952634	0.3720584214
5049.6177026365	0.3507363498
5051.5465100095	0.3695254624
5053.4753173826	0.3829628527
5055.4041247556	0.3667808175
5057.3329321287	0.3700163662
5059.2617395017	0.3667979836
5061.1905468748	0.3817231059
5063.1193542478	0.3742294610
5065.0481616209	0.3871406317
5066.9769689939	0.3866848648
5068.9057763670	0.3580633104
5070.8345837400	0.3703466058
5072.7633911131	0.3643479645
5074.6921984861	0.3653427660
5076.6210058591	0.3503064811
5078.5498132322	0.3767057359
5080.4786206052	0.3975200951
5082.4074279783	0.3546546400
5084.3362353513	0.3677025735
5086.2650427244	0.3692700863
5088.1938500974	0.3644334674
5090.1226574705	0.3463223875
5092.0514648435	0.3670995533
5093.9802722166	0.3924430311
5095.9090795896	0.3629513383
5097.8378869627	0.3936614394
5099.7666943357	0.3743049502
5101.6955017088	0.3767319918
5103.6243090818	0.3964698315
5105.5531164548	0.3599562943
5107.4819238279	0.3743382394
5109.4107312009	0.3619004786
5111.3395385740	0.3696795404
5113.2683459470	0.3912537992
5115.1971533201	0.3720190525
5117.1259606931	0.3699101806
5119.0547680662	0.3698213696
5120.9835754392	0.3617736101
5122.9123828123	0.3699032664
5124.8411901853	0.3938334882
5126.7699975584	0.3838984370
5128.6988049314	0.3615465164
5130.6276123045	0.3632197678
5132.5564196775	0.3800509870
5134.4852270506	0.3752985895
5136.4140344236	0.3749648333
5138.3428417966	0.3882648349
5140.2716491697	0.3557344973
5142.2004565427	0.3590605259
5144.1292639158	0.3868563771
5146.0580712888	0.3718633950
5147.9868786619	0.3606890738
5149.9156860349	0.3738052845
5151.8444934080	0.3741536438
5153.7733007810	0.3585747182
5155.7021081541	0.3668023646
5157.6309155271	0.3619587719
5159.5597229002	0.3638010919
5161.4885302732	0.3691586256
5163.4173376463	0.3707849681
5165.3461450193	0.3777490556
5167.2749523923	0.3615852594
5169.2037597654	0.3718023598
5171.1325671384	0.3789232969
5173.0613745115	0.3804594576
5174.9901818845	0.3671781719
5176.9189892576	0.3492918909
5178.8477966306	0.3769516349
5180.7766040037	0.3842528760
5182.7054113767	0.3820155561
5184.6342187498	0.3665258586
5186.5630261228	0.3580220342
5188.4918334959	0.3802772760
5190.4206408689	0.3737291396
5192.3494482420	0.3628918231
5194.2782556150	0.3793662488
5196.2070629880	0.3952352405
5198.1358703611	0.3726434708
5200.0646777341	0.3733992577
5201.9934851072	0.3844110966
5203.9222924802	0.3649272025
5205.8510998533	0.3688184023
5207.7799072263	0.3757345080
5209.7087145994	0.3762118220
5211.6375219724	0.3684383035
5213.5663293455	0.3754718900
5215.4951367185	0.3953857124
5217.4239440916	0.3893783391
5219.3527514646	0.3761045039
5221.2815588377	0.3619243205
5223.2103662107	0.3730911911
5225.1391735837	0.3812898695
5227.0679809568	0.3720004857
5228.9967883298	0.3779271543
5230.9255957029	0.3839083314
5232.8544030759	0.3863156140
5234.7832104490	0.3761270344
5236.7120178220	0.3837316036
5238.6408251951	0.3917486072
5240.5696325681	0.3668477535
5242.4984399412	0.3534284532
5244.4272473142	0.3513252139
5246.3560546873	0.3761847913
5248.2848620603	0.3989498615
5250.2136694334	0.3851165771
5252.1424768064	0.3806823790
5254.0712841795	0.3684668243
5256.0000915525	0.3629567623
5257.9288989255	0.3840228021
5259.8577062986	0.3748890758
5261.7865136716	0.3532352746
5263.7153210447	0.3664031029
5265.6441284177	0.3866882920
5267.5729357908	0.3684284687
5269.5017431638	0.3731784821
5271.4305505369	0.3960968554
5273.3593579099	0.3772490323
5275.2881652830	0.3604436815
5277.2169726560	0.3854179084
5279.1457800291	0.4088919759
5281.0745874021	0.3634915054
5283.0033947752	0.3512264192
5284.9322021482	0.3879354000
5286.8610095212	0.3818434477
5288.7898168943	0.3754000366
5290.7186242673	0.3488341570
5292.6474316404	0.3770906627
5294.5762390134	0.4267257452
5296.5050463865	0.3828660846
5298.4338537595	0.3507974744
5300.3626611326	0.3529930413
5302.2914685056	0.3837247491
5304.2202758787	0.4000711739
5306.1490832517	0.3733985424
5308.0778906248	0.3882622123
5310.0066979978	0.4000017047
5311.9355053709	0.3704612553
5313.8643127439	0.3701983988
5315.7931201169	0.3803980947
5317.7219274900	0.3590957820
5319.6507348630	0.3724417984
5321.5795422361	0.3802390397
5323.5083496091	0.3754116595
5325.4371569822	0.3713914752
5327.3659643552	0.3460918069
5329.2947717283	0.3718559146
5331.2235791013	0.3703452349
5333.1523864744	0.3815666735
5335.0811938474	0.3960240483
5337.0100012205	0.3384280801
5338.9388085935	0.3470191360
5340.8676159666	0.3589373827
5342.7964233396	0.3621219695
5344.7252307126	0.3778208494
5346.6540380857	0.3833697438
5348.5828454587	0.3826957941
5350.5116528318	0.3496846855
5352.4404602048	0.3783269525
5354.3692675779	0.3841781020
5356.2980749509	0.3843415380
5358.2268823240	0.3998455703
5360.1556896970	0.3669132292
5362.0844970701	0.3677473366
5364.0133044431	0.3385900855
5365.9421118162	0.3609123230
5367.8709191892	0.3729905486
5369.7997265623	0.3390974700
5371.7285339353	0.3833721578
5373.6573413083	0.3679550886
5375.5861486814	0.3931885064
5377.5149560544	0.4063668847
5379.4437634275	0.3618945479
5381.3725708005	0.3769798279
5383.3013781736	0.3452682495
5385.2301855466	0.3895618021
5387.1589929197	0.4138802588
5389.0878002927	0.3480470777
5391.0166076658	0.3723790348
5392.9454150388	0.3477565050
5394.8742224119	0.3295818269
5396.8030297849	0.4135493636
5398.7318371580	0.4209450483
5400.6606445310	0.3803829253
5402.5894519041	0.3993659914
5404.5182592771	0.3728130758
5406.4470666501	0.3615359664
5408.3758740232	0.3964419067
5410.3046813962	0.3738613129
5412.2334887693	0.3737628758
5414.1622961423	0.3697890937
5416.0911035154	0.3653475940
5418.0199108884	0.3753262758
5419.9487182615	0.3484474719
5421.8775256345	0.3664065003
5423.8063330076	0.3514800370
5425.7351403806	0.3406812251
5427.6639477537	0.3950508237
5429.5927551267	0.3788384795
5431.5215624998	0.3691015840
5433.4503698728	0.3910425007
5435.3791772458	0.3640316129
5437.3079846189	0.3873834312
5439.2367919919	0.3848364055
5441.1655993650	0.3290337920
5443.0944067380	0.3823246062
5445.0232141111	0.4180796742
5446.9520214841	0.3790546060
5448.8808288572	0.3733483851
5450.8096362302	0.3731565177
5452.7384436033	0.3746326268
5454.6672509763	0.3467311263
5456.5960583494	0.3617534935
5458.5248657224	0.4044497013
5460.4536730955	0.3730537295
5462.3824804685	0.3537368774
5464.3112878415	0.3447196186
5466.2400952146	0.3449235857
5468.1689025876	0.3678666949
5470.0977099607	0.3459869623
5472.0265173337	0.3261326849
5473.9553247068	0.3542846143
5475.8841320798	0.3731798232
5477.8129394529	0.3516605198
5479.7417468259	0.3747367263
5481.6705541990	0.4182700515
5483.5993615720	0.3917029798
5485.5281689451	0.3875421286
5487.4569763181	0.3935164809
5489.3857836912	0.3620001078
5491.3145910642	0.3574309051
5493.2433984372	0.3545480371
5495.1722058103	0.3696471155
5497.1010131833	0.3598760664
5499.0298205564	0.3555853367
5500.9586279294	0.4076897800
5502.8874353025	0.4060110748
5504.8162426755	0.3936580122
5506.7450500486	0.3515920341
5508.6738574216	0.3467477262
5510.6026647947	0.3961144388
5512.5314721677	0.3483491242
5514.4602795408	0.3559010625
5516.3890869138	0.3615903258
5518.3178942869	0.3457856178
5520.2467016599	0.4221782386
5522.1755090330	0.3991129994
5524.1043164060	0.3444399238
5526.0331237790	0.3626696467
5527.9619311521	0.3624405265
5529.8907385251	0.3858643472
5531.8195458982	0.3918844759
5533.7483532712	0.3498338163
5535.6771606443	0.3573435247
5537.6059680173	0.3752768338
5539.5347753904	0.3853643239
5541.4635827634	0.3885953128
5543.3923901365	0.3604938388
5545.3211975095	0.3763189614
5547.2500048826	0.3996565342
5549.1788122556	0.3796136677
5551.1076196287	0.3489887118
5553.0364270017	0.3554739058
5554.9652343747	0.3698858917
5556.8940417478	0.3753674626
5558.8228491208	0.3905427456
5560.7516564939	0.3656514883
5562.6804638669	0.3701297343
5564.6092712400	0.3884035349
5566.5380786130	0.3764965832
5568.4668859861	0.3639295697
5570.3956933591	0.3647988141
5572.3245007322	0.3618283868
5574.2533081052	0.3637653291
5576.1821154783	0.4114235938
5578.1109228513	0.3558275402
5580.0397302244	0.3650822341
5581.9685375974	0.4235775471
5583.8973449704	0.3429255784
5585.8261523435	0.3738417625
5587.7549597165	0.3906774223
5589.6837670896	0.3500798941
5591.6125744626	0.3456031978
5593.5413818357	0.3621557057
5595.4701892087	0.3940834999
5597.3989965818	0.3583636582
5599.3278039548	0.3672989309
5601.2566113279	0.3464153707
5603.1854187009	0.3449334204
5605.1142260740	0.3920232058
5607.0430334470	0.3412024975
5608.9718408201	0.3293925226
5610.9006481931	0.3609185517
5612.8294555661	0.3658044040
5614.7582629392	0.3515487611
5616.6870703122	0.3773411214
5618.6158776853	0.3674151003
5620.5446850583	0.3608111739
5622.4734924314	0.4140030146
5624.4022998044	0.3590571582
5626.3311071775	0.3410837948
5628.2599145505	0.3572008610
5630.1887219236	0.3607753813
5632.1175292966	0.3855375350
5634.0463366697	0.3524696231
5635.9751440427	0.3474483192
5637.9039514158	0.3429062366
5639.8327587888	0.3408854008
5641.7615661619	0.3539118171
5643.6903735349	0.3585310876
5645.6191809079	0.3623775244
5647.5479882810	0.3309136927
5649.4767956540	0.3484941423
5651.4056030271	0.3520465493
5653.3344104001	0.3431092203
5655.2632177732	0.3714327812
5657.1920251462	0.3256835341
5659.1208325193	0.3526325524
5661.0496398923	0.4217094183
5662.9784472654	0.3646496236
5664.9072546384	0.3751356006
5666.8360620115	0.4195465147
5668.7648693845	0.3452538848
5670.6936767576	0.3349605799
5672.6224841306	0.4197468460
5674.5512915036	0.4042479694
5676.4800988767	0.3433628082
5678.4089062497	0.3363059461
5680.3377136228	0.3482254744
5682.2665209958	0.3965315521
5684.1953283689	0.3659442365
5686.1241357419	0.3215671182
5688.0529431150	0.3802547157
5689.9817504880	0.3951813579
5691.9105578611	0.3862327039
5693.8393652341	0.3969906271
5695.7681726072	0.3773366213
5697.6969799802	0.3259997666
5699.6257873533	0.3483088315
5701.5545947263	0.4199685156
5703.4834020993	0.3582848012
5705.4122094724	0.3242615163
5707.3410168454	0.3658470809
5709.2698242185	0.4004463851
5711.1986315915	0.4103593528
5713.1274389646	0.3922145963
5715.0562463376	0.3980867565
5716.9850537107	0.3795995116
5718.9138610837	0.3317466676
5720.8426684568	0.3419996798
5722.7714758298	0.3828492761
5724.7002832029	0.3805578053
5726.6290905759	0.3599614501
5728.5578979490	0.3598312736
5730.4867053220	0.3530518413
5732.4155126950	0.3624224663
5734.3443200681	0.3714412451
5736.2731274411	0.3365975022
5738.2019348142	0.3296335936
5740.1307421872	0.3575563729
5742.0595495603	0.3583098650
5743.9883569333	0.3685259819
5745.9171643064	0.3284379840
5747.8459716794	0.3040862381
5749.7747790525	0.3741858006
5751.7035864255	0.3564825356
5753.6323937986	0.3674300015
5755.5612011716	0.3976208270
5757.4900085447	0.3786160052
5759.4188159177	0.3774887621
5761.3476232907	0.3381106853
5763.2764306638	0.3581472635
5765.2052380368	0.4059500098
5767.1340454099	0.4049397409
5769.0628527829	0.3811070025
5770.9916601560	0.3637413979
5772.9204675290	0.3468242288
5774.8492749021	0.3408031762
5776.7780822751	0.3821592033
5778.7068896482	0.4255717099
5780.6356970212	0.4125445783
5782.5645043943	0.3418015838
5784.4933117673	0.3604116142
5786.4221191404	0.3779591322
5788.3509265134	0.3653970957
5790.2797338865	0.3875791132
5792.2085412595	0.3376742005
5794.1373486325	0.3926190436
5796.0661560056	0.3674301803
5797.9949633786	0.3110084236
5799.9237707517	0.4001432359
5801.8525781247	0.3887082636
5803.7813854978	0.3655245602
5805.7101928708	0.3446843922
5807.6390002439	0.3300849199
5809.5678076169	0.3450353444
5811.4966149900	0.3772394955
5813.4254223630	0.4263232052
5815.3542297361	0.3622258902
5817.2830371091	0.3090966642
5819.2118444822	0.3446006477
5821.1406518552	0.3696917593
5823.0694592282	0.3439669311
5824.9982666013	0.3680879474
5826.9270739743	0.4018017054
5828.8558813474	0.3842712343
5830.7846887204	0.4033053517
5832.7134960935	0.4085493982
5834.6423034665	0.3674774170
5836.5711108396	0.3806999028
5838.4999182126	0.4174154103
5840.4287255857	0.3398860693
5842.3575329587	0.3612854481
5844.2863403318	0.4123994708
5846.2151477048	0.3774221838
5848.1439550779	0.3970665038
5850.0727624509	0.3503688574
5852.0015698239	0.3394666314
5853.9303771970	0.3890498281
5855.8591845700	0.4052669108
5857.7879919431	0.3173395097
5859.7167993161	0.2840072513
5861.6456066892	0.3748938441
5863.5744140622	0.3259056807
5865.5032214353	0.3665903509
5867.4320288083	0.3234470189
5869.3608361814	0.2646000087
5871.2896435544	0.4083105624
5873.2184509275	0.3706303537
5875.1472583005	0.3495750725
5877.0760656736	0.4126983583
5879.0048730466	0.3897103071
5880.9336804196	0.3583029509
5882.8624877927	0.3664278686
5884.7912951657	0.3879341185
5886.7201025388	0.3392244577
5888.6489099118	0.3610779345
5890.5777172849	0.3553833365
5892.5065246579	0.3321083486
5894.4353320310	0.4259180129
5896.3641394040	0.4089095592
5898.2929467771	0.3426912725
5900.2217541501	0.3480195701
5902.1505615232	0.2984084189
5904.0793688962	0.3518871963
5906.0081762693	0.4239575565
5907.9369836423	0.3786458671
5909.8657910154	0.4317094684
5911.7945983884	0.4116867483
5913.7234057614	0.3942639530
5915.6522131345	0.4057847857
5917.5810205075	0.3369515836
5919.5098278806	0.3198382854
5921.4386352536	0.3509852588
5923.3674426267	0.3830602467
5925.2962499997	0.2953644991
5927.2250573728	0.3999511302
5929.1538647458	0.4867725074
5931.0826721189	0.3349692523
5933.0114794919	0.3984814882
5934.9402868650	0.3104509413
5936.8690942380	0.2903015614
5938.7979016111	0.4138983488
5940.7267089841	0.3998465240
5942.6555163571	0.3973820210
5944.5843237302	0.3336186409
5946.5131311032	0.3896223307
5948.4419384763	0.3934587538
5950.3707458493	0.3060666621
5952.2995532224	0.3588494062
5954.2283605954	0.3672486544
5956.1571679685	0.3482094109
5958.0859753415	0.3746945858
5960.0147827146	0.3917264640
5961.9435900876	0.3875646293
5963.8723974607	0.3942391574
5965.8012048337	0.3182119429
5967.7300122068	0.2745949328
5969.6588195798	0.3445628583
5971.5876269528	0.3825414479
5973.5164343259	0.4196476340
5975.4452416989	0.3921140730
5977.3740490720	0.2827569246
5979.3028564450	0.3235579133
5981.2316638181	0.4633690119
5983.1604711911	0.3504185975
5985.0892785642	0.2936489582
5987.0180859372	0.3651885688
5988.9468933103	0.3436515927
5990.8757006833	0.3584559560
5992.8045080564	0.3474718332
5994.7333154294	0.3456151485
5996.6621228025	0.3323485851
5998.5909301755	0.3296740651
6000.5197375485	0.3566931784
