399.2631262207	0.0012932948
401.1919335938	0.0015122737
403.1207409668	0.0008386130
405.0495483398	0.0012772416
406.9783557129	0.0013327824
408.9071630859	0.0013359124
410.8359704590	0.0018417555
412.7647778320	0.0010804704
414.6935852051	0.0016111631
416.6223925781	0.0014988219
418.5511999512	0.0010084265
420.4800073242	0.0016562943
422.4088146973	0.0015529856
424.3376220703	0.0014781840
426.2664294434	0.0017069833
428.1952368164	0.0018120392
430.1240441895	0.0017149505
432.0528515625	0.0020252645
433.9816589355	0.0019293318
435.9104663086	0.0019830733
437.8392736816	0.0019020662
439.7680810547	0.0016570236
441.6968884277	0.0021311771
443.6256958008	0.0013602761
445.5545031738	0.0012444037
447.4833105469	0.0012559840
449.4121179199	0.0011613979
451.3409252930	0.0012430239
453.2697326660	0.0006989300
455.1985400391	0.0014966172
457.1273474121	0.0011940242
459.0561547852	0.0009385868
460.9849621582	0.0009690861
462.9137695313	0.0004214626
464.8425769043	0.0010345716
466.7713842773	0.0005046251
468.7001916504	0.0001840062
470.6289990234	0.0007920442
472.5578063965	0.0008286096
474.4866137695	0.0004423606
476.4154211426	0.0002670565
478.3442285156	0.0005230043
480.2730358887	0.0003271683
482.2018432617	0.0001476559
484.1306506348	0.0002385905
486.0594580078	0.0006290976
487.9882653809	0.0003939508
489.9170727539	-0.0003853165
491.8458801270	-0.0001766707
493.7746875000	0.0003401019
495.7034948730	0.0001732796
497.6323022461	0.0003730375
499.5611096191	0.0008271687
501.4899169922	0.0001795739
503.4187243652	0.0001214430
505.3475317383	0.0005152088
507.2763391113	0.0004362758
509.2051464844	0.0004347338
511.1339538574	-0.0000009363
513.0627612305	0.0003175181
514.9915686035	0.0006594433
516.9203759766	0.0003510154
518.8491833496	0.0003564126
520.7779907227	0.0001476352
522.7067980957	0.0000652760
524.6356054688	0.0002374739
526.5644128418	0.0002442368
528.4932202148	0.0001967951
530.4220275879	0.0003527097
532.3508349609	0.0001863178
534.2796423340	-0.0000930543
536.2084497070	0.0002391687
538.1372570801	0.0001864611
540.0660644531	-0.0000656450
541.9948718262	0.0003090958
543.9236791992	0.0005020138
545.8524865723	0.0004477584
547.7812939453	0.0003946739
549.7101013184	0.0001029454
551.6389086914	0.0003206042
553.5677160645	0.0003631728
555.4965234375	0.0000389302
557.4253308105	0.0000826871
559.3541381836	0.0000525943
561.2829455566	0.0005188502
563.2117529297	0.0004937420
565.1405603027	0.0001225734
567.0693676758	0.0003506479
568.9981750488	0.0002400692
570.9269824219	0.0003365998
572.8557897949	0.0003332037
574.7845971680	0.0000639205
576.7134045410	-0.0002543473
578.6422119141	-0.0000019780
580.5710192871	0.0006388369
582.4998266602	0.0001983976
584.4286340332	-0.0001218425
586.3574414063	0.0001809216
588.2862487793	0.0001873787
590.2150561523	-0.0000029758
592.1438635254	0.0003637035
594.0726708984	0.0002690492
596.0014782715	0.0001260347
597.9302856445	0.0005988031
599.8590930176	0.0003296282
601.7879003906	0.0002322930
603.7167077637	0.0003239035
605.6455151367	0.0000915912
607.5743225098	0.0000644253
609.5031298828	0.0001640427
611.4319372559	0.0000884526
613.3607446289	0.0002688374
615.2895520020	-0.0001582350
617.2183593750	-0.0000619160
619.1471667480	0.0000703273
621.0759741211	-0.0002061295
623.0047814941	0.0002828648
624.9335888672	-0.0000632302
626.8623962402	-0.0000420955
628.7912036133	0.0003420435
630.7200109863	0.0005123048
632.6488183594	0.0009260294
634.5776257324	0.0007235300
636.5064331055	0.0007163502
638.4352404785	0.0012392418
640.3640478516	0.0015902419
642.2928552246	0.0014841442
644.2216625977	0.0015112719
646.1504699707	0.0016689869
648.0792773438	0.0019276722
650.0080847168	0.0020872331
651.9368920898	0.0017554872
653.8656994629	0.0017577216
655.7945068359	0.0019033939
657.7233142090	0.0022265906
659.6521215820	0.0026482334
661.5809289551	0.0023868536
663.5097363281	0.0025279280
665.4385437012	0.0028642230
667.3673510742	0.0023533534
669.2961584473	0.0027194924
671.2249658203	0.0035291433
673.1537731934	0.0034754216
675.0825805664	0.0034717617
677.0113879395	0.0034706465
678.9401953125	0.0038121091
680.8690026855	0.0037943115
682.7978100586	0.0034734160
684.7266174316	0.0036461172
686.6554248047	0.0035623619
688.5842321777	0.0036639050
690.5130395508	0.0036251550
692.4418469238	0.0037243608
694.3706542969	0.0041416101
696.2994616699	0.0048183203
698.2282690430	0.0058696368
700.1570764160	0.0058475044
702.0858837891	0.0055222441
704.0146911621	0.0053947503
705.9434985352	0.0045234128
707.8723059082	0.0036355779
709.8011132813	0.0031588026
711.7299206543	0.0021110435
713.6587280273	0.0010783158
715.5875354004	0.0006875000
717.5163427734	0.0004422115
719.4451501465	0.0005153323
721.3739575195	0.0003625852
723.3027648926	0.0002750470
725.2315722656	0.0001300631
727.1603796387	0.0000606600
729.0891870117	0.0002407359
731.0179943848	0.0001975752
732.9468017578	0.0002435303
734.8756091309	0.0000081332
736.8044165039	0.0002078919
738.7332238770	0.0001186809
740.6620312500	-0.0000490022
742.5908386230	0.0002915480
744.5196459961	0.0002393651
746.4484533691	0.0002281550
748.3772607422	0.0000693806
750.3060681152	-0.0001063469
752.2348754883	0.0000655877
754.1636828613	0.0002079940
756.0924902344	0.0002495533
758.0212976074	0.0005755075
759.9501049805	0.0003549921
761.8789123535	-0.0001503389
763.8077197266	0.0003791993
765.7365270996	0.0001049035
767.6653344727	0.0002799199
769.5941418457	0.0008029748
771.5229492188	0.0003195221
773.4517565918	0.0007091954
775.3805639648	0.0003838321
777.3093713379	0.0002255513
779.2381787109	0.0004926488
781.1669860840	0.0003286700
783.0957934570	0.0005763400
785.0246008301	0.0002805153
786.9534082031	0.0003845731
788.8822155762	0.0002988825
790.8110229492	0.0003484725
792.7398303223	0.0005370423
794.6686376953	0.0004033750
796.5974450684	0.0006811906
798.5262524414	0.0008244100
800.4550598145	0.0010414901
802.3838671875	0.0008057600
804.3126745605	0.0003927036
806.2414819336	0.0003134221
808.1702893066	0.0004847215
810.0990966797	0.0002674282
812.0279040527	0.0002340697
813.9567114258	0.0005225019
815.8855187988	0.0001407584
817.8143261719	0.0003513399
819.7431335449	0.0003562907
821.6719409180	0.0001594970
823.6007482910	0.0004510515
825.5295556641	0.0005599252
827.4583630371	0.0006122708
829.3871704102	0.0009897004
831.3159777832	0.0012142994
833.2447851563	0.0009390725
835.1735925293	0.0013095760
837.1023999023	0.0012214918
839.0312072754	0.0013588782
840.9600146484	0.0016303116
842.8888220215	0.0011007488
844.8176293945	0.0014964652
846.7464367676	0.0015208269
848.6752441406	0.0011755601
850.6040515137	0.0010444506
852.5328588867	0.0008345188
854.4616662598	0.0007137562
856.3904736328	0.0008535208
858.3192810059	0.0009623829
860.2480883789	0.0005103037
862.1768957520	0.0005118474
864.1057031250	0.0004301721
866.0345104980	0.0004400952
867.9633178711	0.0005270618
869.8921252441	0.0005132759
871.8209326172	0.0003437423
873.7497399902	0.0000560438
875.6785473633	0.0005607216
877.6073547363	0.0002899754
879.5361621094	0.0003214441
881.4649694824	0.0004887719
883.3937768555	0.0000460774
885.3225842285	0.0002078321
887.2513916016	0.0000535339
889.1801989746	0.0002378538
891.1090063477	0.0002069365
893.0378137207	0.0001929870
894.9666210938	0.0006078567
896.8954284668	0.0005587733
898.8242358398	0.0006836253
900.7530432129	0.0006363670
902.6818505859	0.0004992480
904.6106579590	0.0005299193
906.5394653320	0.0005195932
908.4682727051	0.0004495381
910.3970800781	0.0007629405
912.3258874512	0.0007917329
914.2546948242	0.0007273951
916.1835021973	0.0011378110
918.1123095703	0.0010345532
920.0411169434	0.0011711234
921.9699243164	0.0011164239
923.8987316895	0.0012463636
925.8275390625	0.0017412038
927.7563464355	0.0018094988
929.6851538086	0.0019392525
931.6139611816	0.0016489587
933.5427685547	0.0018829353
935.4715759277	0.0021905238
937.4003833008	0.0020034479
939.3291906738	0.0022961511
941.2579980469	0.0026877332
943.1868054199	0.0027167923
945.1156127930	0.0026572174
947.0444201660	0.0028033960
948.9732275391	0.0026052403
950.9020349121	0.0024486142
952.8308422852	0.0024956828
954.7596496582	0.0025188287
956.6884570313	0.0024012839
958.6172644043	0.0023725382
960.5460717773	0.0025454597
962.4748791504	0.0022838612
964.4036865234	0.0024529458
966.3324938965	0.0027564550
968.2613012695	0.0026856267
970.1901086426	0.0027023954
972.1189160156	0.0029055630
974.0477233887	0.0030399980
975.9765307617	0.0032078847
977.9053381348	0.0038760602
979.8341455078	0.0040820967
981.7629528809	0.0044337986
983.6917602539	0.0047750412
985.6205676270	0.0050116316
987.5493750000	0.0059706066
989.4781823730	0.0064798873
991.4069897461	0.0070767440
993.3357971191	0.0078705428
995.2646044922	0.0087813763
997.1934118652	0.0095832720
999.1222192383	0.0098850150
1001.0510266113	0.0106365308
1002.9798339844	0.0115489224
1004.9086413574	0.0125796590
1006.8374487305	0.0132531524
1008.7662561035	0.0137501583
1010.6950634766	0.0146782827
1012.6238708496	0.0153956674
1014.5526782227	0.0161586758
1016.4814855957	0.0171178393
1018.4102929688	0.0179103538
1020.3391003418	0.0186109319
1022.2679077148	0.0195346624
1024.1967150879	0.0202680249
1026.1255224609	0.0210142843
1028.0543298340	0.0218290277
1029.9831372070	0.0224148761
1031.9119445801	0.0232226923
1033.8407519531	0.0237056892
1035.7695593262	0.0240392722
1037.6983666992	0.0241577625
1039.6271740723	0.0241075885
1041.5559814453	0.0243501291
1043.4847888184	0.0240561683
1045.4135961914	0.0238083974
1047.3424035645	0.0236461405
1049.2712109375	0.0231362358
1051.2000183105	0.0228943713
1053.1288256836	0.0225053318
1055.0576330566	0.0218741186
1056.9864404297	0.0214142986
1058.9152478027	0.0208627544
1060.8440551758	0.0203420706
1062.7728625488	0.0199236106
1064.7016699219	0.0191122424
1066.6304772949	0.0183204114
1068.5592846680	0.0176671576
1070.4880920410	0.0168562047
1072.4168994141	0.0159061924
1074.3457067871	0.0150613999
1076.2745141602	0.0146851446
1078.2033215332	0.0139668649
1080.1321289062	0.0131821446
1082.0609362793	0.0126374532
1083.9897436523	0.0120187793
1085.9185510254	0.0117021706
1087.8473583984	0.0109521914
1089.7761657715	0.0102674160
1091.7049731445	0.0101674981
1093.6337805176	0.0098245181
1095.5625878906	0.0094608217
1097.4913952637	0.0092857117
1099.4202026367	0.0087332819
1101.3490100098	0.0083518177
1103.2778173828	0.0085920971
1105.2066247559	0.0081520379
1107.1354321289	0.0078816991
1109.0642395019	0.0080222487
1110.9930468750	0.0077576065
1112.9218542480	0.0077309734
1114.8506616211	0.0075679086
1116.7794689941	0.0077197175
1118.7082763672	0.0076807598
1120.6370837402	0.0076199705
1122.5658911133	0.0080739725
1124.4946984863	0.0078830328
1126.4235058594	0.0078575509
1128.3523132324	0.0080179572
1130.2811206055	0.0082413033
1132.2099279785	0.0085701849
1134.1387353516	0.0088098105
1136.0675427246	0.0091881715
1137.9963500977	0.0094347131
1139.9251574707	0.0099310540
1141.8539648437	0.0105215842
1143.7827722168	0.0113745537
1145.7115795898	0.0123155545
1147.6403869629	0.0131097585
1149.5691943359	0.0138694085
1151.4980017090	0.0144005623
1153.4268090820	0.0150389709
1155.3556164551	0.0155874277
1157.2844238281	0.0162676424
1159.2132312012	0.0169328768
1161.1420385742	0.0176164340
1163.0708459473	0.0184120107
1164.9996533203	0.0190167762
1166.9284606934	0.0195390955
1168.8572680664	0.0201311707
1170.7860754394	0.0211514086
1172.7148828125	0.0218451712
1174.6436901855	0.0226499457
1176.5724975586	0.0235647857
1178.5013049316	0.0241000280
1180.4301123047	0.0252821557
1182.3589196777	0.0266446099
1184.2877270508	0.0276199598
1186.2165344238	0.0286823474
1188.1453417969	0.0302196201
1190.0741491699	0.0314271078
1192.0029565430	0.0327839367
1193.9317639160	0.0344323628
1195.8605712891	0.0357496738
1197.7893786621	0.0377890058
1199.7181860351	0.0395570286
1201.6469934082	0.0409015641
1203.5758007812	0.0426454768
1205.5046081543	0.0444460995
1207.4334155273	0.0459204540
1209.3622229004	0.0474525318
1211.2910302734	0.0492551327
1213.2198376465	0.0502760373
1215.1486450195	0.0514559597
1217.0774523926	0.0527066886
1219.0062597656	0.0534419939
1220.9350671387	0.0543709174
1222.8638745117	0.0552004874
1224.7926818848	0.0556114838
1226.7214892578	0.0559247248
1228.6502966308	0.0563839860
1230.5791040039	0.0563711040
1232.5079113769	0.0566481128
1234.4367187500	0.0568261817
1236.3655261230	0.0565125570
1238.2943334961	0.0565958992
1240.2231408691	0.0564614162
1242.1519482422	0.0561961830
1244.0807556152	0.0559789464
1246.0095629883	0.0558472276
1247.9383703613	0.0552601665
1249.8671777344	0.0548617616
1251.7959851074	0.0547587238
1253.7247924805	0.0539953336
1255.6535998535	0.0532503575
1257.5824072266	0.0522441082
1259.5112145996	0.0515200906
1261.4400219726	0.0507791415
1263.3688293457	0.0500733405
1265.2976367187	0.0498191901
1267.2264440918	0.0490352102
1269.1552514648	0.0483793914
1271.0840588379	0.0476014093
1273.0128662109	0.0466331989
1274.9416735840	0.0458275676
1276.8704809570	0.0450357720
1278.7992883301	0.0442062579
1280.7280957031	0.0433255434
1282.6569030762	0.0424146764
1284.5857104492	0.0416148044
1286.5145178223	0.0410273112
1288.4433251953	0.0401024409
1290.3721325683	0.0396829471
1292.3009399414	0.0393945947
1294.2297473144	0.0388880000
1296.1585546875	0.0388365425
1298.0873620605	0.0387877077
1300.0161694336	0.0387617834
1301.9449768066	0.0388437696
1303.8737841797	0.0391988084
1305.8025915527	0.0394526199
1307.7313989258	0.0400732607
1309.6602062988	0.0409388244
1311.5890136719	0.0415607616
1313.5178210449	0.0422624871
1315.4466284180	0.0431673639
1317.3754357910	0.0443338715
1319.3042431640	0.0452100039
1321.2330505371	0.0468797982
1323.1618579101	0.0484139025
1325.0906652832	0.0495858714
1327.0194726562	0.0512513742
1328.9482800293	0.0523925871
1330.8770874023	0.0538135171
1332.8058947754	0.0551399663
1334.7347021484	0.0562523864
1336.6635095215	0.0567029566
1338.5923168945	0.0565538183
1340.5211242676	0.0573981106
1342.4499316406	0.0590751246
1344.3787390137	0.0598968938
1346.3075463867	0.0595875308
1348.2363537597	0.0595978461
1350.1651611328	0.0589929596
1352.0939685058	0.0586404838
1354.0227758789	0.0584262833
1355.9515832519	0.0578138717
1357.8803906250	0.0573220253
1359.8091979980	0.0562064350
1361.7380053711	0.0546597131
1363.6668127441	0.0538622811
1365.5956201172	0.0557617024
1367.5244274902	0.0550102331
1369.4532348633	0.0540721342
1371.3820422363	0.0551256575
1373.3108496094	0.0524016060
1375.2396569824	0.0526509546
1377.1684643555	0.0540693179
1379.0972717285	0.0535125583
1381.0260791015	0.0536174327
1382.9548864746	0.0535722375
1384.8836938476	0.0537964180
1386.8125012207	0.0516821519
1388.7413085937	0.0521768853
1390.6701159668	0.0559255257
1392.5989233398	0.0548152328
1394.5277307129	0.0519936308
1396.4565380859	0.0541511178
1398.3853454590	0.0541626923
1400.3141528320	0.0537688434
1402.2429602051	0.0573667139
1404.1717675781	0.0547297746
1406.1005749512	0.0548611358
1408.0293823242	0.0566436425
1409.9581896972	0.0548444577
1411.8869970703	0.0558886938
1413.8158044433	0.0542617217
1415.7446118164	0.0548776388
1417.6734191894	0.0504616722
1419.6022265625	0.0457244478
1421.5310339355	0.0509086885
1423.4598413086	0.0498908460
1425.3886486816	0.0481945574
1427.3174560547	0.0483194478
1429.2462634277	0.0453626402
1431.1750708008	0.0439119712
1433.1038781738	0.0441177040
1435.0326855469	0.0406885073
1436.9614929199	0.0352782235
1438.8903002929	0.0388000011
1440.8191076660	0.0394730419
1442.7479150390	0.0368793532
1444.6767224121	0.0385153778
1446.6055297851	0.0359942019
1448.5343371582	0.0362423658
1450.4631445312	0.0371874124
1452.3919519043	0.0378325731
1454.3207592773	0.0395389870
1456.2495666504	0.0339483172
1458.1783740234	0.0354267918
1460.1071813965	0.0450590327
1462.0359887695	0.0478102788
1463.9647961426	0.0483110920
1465.8936035156	0.0501575358
1467.8224108886	0.0565277785
1469.7512182617	0.0605076104
1471.6800256347	0.0557356477
1473.6088330078	0.0588924289
1475.5376403808	0.0659346133
1477.4664477539	0.0707652420
1479.3952551269	0.0769064575
1481.3240625000	0.0785987377
1483.2528698730	0.0829908997
1485.1816772461	0.0859329551
1487.1104846191	0.0854901075
1489.0392919922	0.0856599659
1490.9680993652	0.0866984129
1492.8969067383	0.0979252160
1494.8257141113	0.0969805494
1496.7545214843	0.0892783403
1498.6833288574	0.0990032405
1500.6121362304	0.1019436270
1502.5409436035	0.1079311818
1504.4697509765	0.1039508879
1506.3985583496	0.0807170421
1508.3273657226	0.0946213380
1510.2561730957	0.1081251949
1512.1849804687	0.1051374152
1514.1137878418	0.1126813740
1516.0425952148	0.1037381142
1517.9714025879	0.1075852215
1519.9002099609	0.1045072377
1521.8290173340	0.0931459889
1523.7578247070	0.1095533520
1525.6866320801	0.1081896722
1527.6154394531	0.1076282561
1529.5442468261	0.1165787727
1531.4730541992	0.1132962704
1533.4018615722	0.1056382954
1535.3306689453	0.1103111058
1537.2594763183	0.1165951341
1539.1882836914	0.0891860425
1541.1170910644	0.0918727145
1543.0458984375	0.1069446728
1544.9747058105	0.1031970084
1546.9035131836	0.1178215817
1548.8323205566	0.1118262410
1550.7611279297	0.1144178957
1552.6899353027	0.1140915900
1554.6187426758	0.1052904874
1556.5475500488	0.1115274131
1558.4763574218	0.0846972540
1560.4051647949	0.0883160383
1562.3339721679	0.1181134731
1564.2627795410	0.1131796837
1566.1915869140	0.1152675599
1568.1203942871	0.1146885678
1570.0492016601	0.1037186906
1571.9780090332	0.1157850623
1573.9068164062	0.1173344254
1575.8356237793	0.0967013240
1577.7644311523	0.1060277373
1579.6932385254	0.1179175675
1581.6220458984	0.1134073734
1583.5508532715	0.1156268194
1585.4796606445	0.1137853414
1587.4084680175	0.1143042967
1589.3372753906	0.1135512069
1591.2660827636	0.1130420342
1593.1948901367	0.1131244600
1595.1236975097	0.1115307510
1597.0525048828	0.1128849685
1598.9813122558	0.1119285375
1600.9101196289	0.1119338572
1602.8389270019	0.1100073606
1604.7677343750	0.1110617816
1606.6965417480	0.1096560359
1608.6253491211	0.1089185551
1610.5541564941	0.1084790528
1612.4829638672	0.1085787192
1614.4117712402	0.1096011475
1616.3405786132	0.0924499333
1618.2693859863	0.0978585780
1620.1981933593	0.1110055745
1622.1270007324	0.1004502475
1624.0558081054	0.1005076170
1625.9846154785	0.1038144082
1627.9134228515	0.1035091579
1629.8422302246	0.1023225710
1631.7710375976	0.1075394303
1633.6998449707	0.1011466384
1635.6286523437	0.0862037167
1637.5574597168	0.0974687487
1639.4862670898	0.1054201573
1641.4150744629	0.1031168848
1643.3438818359	0.1055356860
1645.2726892090	0.0973411724
1647.2014965820	0.0879370794
1649.1303039550	0.1048959419
1651.0591113281	0.1005939692
1652.9879187011	0.0704717636
1654.9167260742	0.0899677724
1656.8455334472	0.1092211381
1658.7743408203	0.1053051278
1660.7031481933	0.1084217131
1662.6319555664	0.1008094996
1664.5607629394	0.1052789763
1666.4895703125	0.1118588671
1668.4183776855	0.1011005640
1670.3471850586	0.0988975093
1672.2759924316	0.1096528992
1674.2047998047	0.1035031974
1676.1336071777	0.0999348164
1678.0624145507	0.1125008911
1679.9912219238	0.1094402224
1681.9200292968	0.1092682183
1683.8488366699	0.0928495601
1685.7776440429	0.0909225941
1687.7064514160	0.1191147640
1689.6352587890	0.1066500470
1691.5640661621	0.1146924645
1693.4928735351	0.1178939566
1695.4216809082	0.0909075066
1697.3504882812	0.1077963263
1699.2792956543	0.0984565169
1701.2081030273	0.0897070393
1703.1369104004	0.1159331724
1705.0657177734	0.1088047177
1706.9945251464	0.1091668904
1708.9233325195	0.1171138734
1710.8521398925	0.1131465808
1712.7809472656	0.1150704026
1714.7097546386	0.1086985916
1716.6385620117	0.0993635952
1718.5673693847	0.0977506936
1720.4961767578	0.1125896722
1722.4249841308	0.1163027585
1724.3537915039	0.1093947068
1726.2825988769	0.1171935499
1728.2114062500	0.1097216308
1730.1402136230	0.1107154191
1732.0690209961	0.1085187346
1733.9978283691	0.0870940536
1735.9266357421	0.1031232476
1737.8554431152	0.1127781868
1739.7842504882	0.1025791243
1741.7130578613	0.1099039018
1743.6418652343	0.1118240803
1745.5706726074	0.1118859649
1747.4994799804	0.1130740643
1749.4282873535	0.1092345268
1751.3570947265	0.1054498702
1753.2859020996	0.1145371497
1755.2147094726	0.1191560179
1757.1435168457	0.1107001901
1759.0723242187	0.1193218529
1761.0011315918	0.1141015664
1762.9299389648	0.1102569252
1764.8587463379	0.1231962591
1766.7875537109	0.1135087311
1768.7163610839	0.1138865724
1770.6451684570	0.1139348820
1772.5739758300	0.1042288393
1774.5027832031	0.1136729270
1776.4315905761	0.1191327274
1778.3603979492	0.1175155044
1780.2892053222	0.1167593151
1782.2180126953	0.1174020618
1784.1468200683	0.1171176136
1786.0756274414	0.1153096110
1788.0044348144	0.1199489236
1789.9332421875	0.1177914515
1791.8620495605	0.1088699698
1793.7908569336	0.1122214347
1795.7196643066	0.1189763993
1797.6484716796	0.1177055389
1799.5772790527	0.1162631512
1801.5060864257	0.1147120297
1803.4348937988	0.1174199358
1805.3637011718	0.1198379993
1807.2925085449	0.1183670536
1809.2213159179	0.1186849326
1811.1501232910	0.1162969172
1813.0789306640	0.1189031973
1815.0077380371	0.1194368303
1816.9365454101	0.1183981970
1818.8653527832	0.1192793399
1820.7941601562	0.1186586916
1822.7229675293	0.1203045994
1824.6517749023	0.1141063198
1826.5805822753	0.1170676947
1828.5093896484	0.1175620407
1830.4381970214	0.1114319414
1832.3670043945	0.1190653145
1834.2958117675	0.1188103557
1836.2246191406	0.1185225248
1838.1534265136	0.1179670542
1840.0822338867	0.1185445637
1842.0110412597	0.1189187840
1843.9398486328	0.1081318706
1845.8686560058	0.1133870631
1847.7974633789	0.1184405833
1849.7262707519	0.1164641976
1851.6550781250	0.1192147285
1853.5838854980	0.1171702966
1855.5126928710	0.1179783046
1857.4415002441	0.1175522283
1859.3703076171	0.1167290285
1861.2991149902	0.1173975468
1863.2279223632	0.1164359003
1865.1567297363	0.1172995865
1867.0855371093	0.1143894345
1869.0143444824	0.1103867739
1870.9431518554	0.1136948615
1872.8719592285	0.1172909886
1874.8007666015	0.1157233715
1876.7295739746	0.1161248833
1878.6583813476	0.1157700941
1880.5871887207	0.1152063310
1882.5159960937	0.1157947332
1884.4448034667	0.1144257039
1886.3736108398	0.1157546490
1888.3024182128	0.1136404872
1890.2312255859	0.1118467078
1892.1600329589	0.1150705218
1894.0888403320	0.1139339581
1896.0176477050	0.1134198904
1897.9464550781	0.1143669784
1899.8752624511	0.1137605757
1901.8040698242	0.1140375882
1903.7328771972	0.1135486811
1905.6616845703	0.1137529910
1907.5904919433	0.1129213721
1909.5192993164	0.1122436076
1911.4481066894	0.1127890423
1913.3769140625	0.1127982736
1915.3057214355	0.1135825664
1917.2345288085	0.1095810086
1919.1633361816	0.1094945297
1921.0921435546	0.1130291894
1923.0209509277	0.1100708991
1924.9497583007	0.1117832139
1926.8785656738	0.1127441004
1928.8073730468	0.1114538386
1930.7361804199	0.1125280261
1932.6649877929	0.1112562865
1934.5937951660	0.1121105477
1936.5226025390	0.1114409417
1938.4514099121	0.1116352230
1940.3802172851	0.1118281037
1942.3090246582	0.1089221984
1944.2378320312	0.1102245152
1946.1666394042	0.1111918762
1948.0954467773	0.1109580249
1950.0242541503	0.1113148630
1951.9530615234	0.1110679507
1953.8818688964	0.1110259891
1955.8106762695	0.1105766594
1957.7394836425	0.1107471138
1959.6682910156	0.1107669324
1961.5970983886	0.1104732454
1963.5259057617	0.1106526703
1965.4547131347	0.1101878956
1967.3835205078	0.1091933772
1969.3123278808	0.1099230051
1971.2411352539	0.1103828251
1973.1699426269	0.1097867340
1975.0987499999	0.1100699008
1977.0275573730	0.1096107364
1978.9563647460	0.1096605435
1980.8851721191	0.1095698625
1982.8139794921	0.1092240661
1984.7427868652	0.1094673723
1986.6715942382	0.1086665243
1988.6004016113	0.1088231504
1990.5292089843	0.1081428230
1992.4580163574	0.1069229990
1994.3868237304	0.1081196442
1996.3156311035	0.1083227023
1998.2444384765	0.1077174768
2000.1732458496	0.1077735722
2002.1020532226	0.1073705778
2004.0308605956	0.1072785631
2005.9596679687	0.1071139425
2007.8884753417	0.1069254130
2009.8172827148	0.1068162248
2011.7460900878	0.1063892543
2013.6748974609	0.1063507050
2015.6037048339	0.1057618409
2017.5325122070	0.1052311063
2019.4613195800	0.1055239141
2021.3901269531	0.1053969860
2023.3189343261	0.1050582528
2025.2477416992	0.1049348563
2027.1765490722	0.1047732085
2029.1053564453	0.1044491157
2031.0341638183	0.1041585207
2032.9629711914	0.1038946807
2034.8917785644	0.1038007438
2036.8205859374	0.1036042571
2038.7493933105	0.1033966616
2040.6782006835	0.1031732410
2042.6070080566	0.1027875990
2044.5358154296	0.1028641909
2046.4646228027	0.1024804115
2048.3934301757	0.1022255123
2050.3222375488	0.1023229286
2052.2510449218	0.1019314677
2054.1798522949	0.1016940475
2056.1086596679	0.1014978215
2058.0374670410	0.1013616771
2059.9662744140	0.1010787115
2061.8950817871	0.1009980664
2063.8238891601	0.1006938964
2065.7526965331	0.1002306193
2067.6815039062	0.1003275514
2069.6103112792	0.1001629159
2071.5391186523	0.1001707762
2073.4679260253	0.0999704450
2075.3967333984	0.0996098369
2077.3255407714	0.0994264260
2079.2543481445	0.0991526991
2081.1831555175	0.0991399139
2083.1119628906	0.0988802314
2085.0407702636	0.0986577421
2086.9695776367	0.0985294580
2088.8983850097	0.0982518271
2090.8271923828	0.0981156677
2092.7559997558	0.0980599076
2094.6848071288	0.0978390276
2096.6136145019	0.0976248235
2098.5424218749	0.0975378752
2100.4712292480	0.0973034352
2102.4000366210	0.0971059725
2104.3288439941	0.0969808549
2106.2576513671	0.0969704986
2108.1864587402	0.0967853814
2110.1152661132	0.0965393931
2112.0440734863	0.0964076146
2113.9728808593	0.0961505100
2115.9016882324	0.0959952921
2117.8304956054	0.0958761796
2119.7593029785	0.0958104208
2121.6881103515	0.0957413912
2123.6169177245	0.0956375301
2125.5457250976	0.0952896103
2127.4745324706	0.0951410830
2129.4033398437	0.0951335058
2131.3321472167	0.0948984101
2133.2609545898	0.0949347690
2135.1897619628	0.0946798474
2137.1185693359	0.0945707858
2139.0473767089	0.0945876613
2140.9761840820	0.0944448933
2142.9049914550	0.0943251103
2144.8337988281	0.0941133052
2146.7626062011	0.0941976458
2148.6914135742	0.0939937234
2150.6202209472	0.0938394368
2152.5490283203	0.0937416777
2154.4778356933	0.0936036035
2156.4066430663	0.0935267359
2158.3354504394	0.0933628827
2160.2642578124	0.0933893323
2162.1930651855	0.0930903703
2164.1218725585	0.0931413844
2166.0506799316	0.0932127684
2167.9794873046	0.0928798467
2169.9082946777	0.0926859230
2171.8371020507	0.0926379338
2173.7659094238	0.0927072614
2175.6947167968	0.0924329162
2177.6235241699	0.0923838317
2179.5523315429	0.0923583210
2181.4811389160	0.0921126083
2183.4099462890	0.0920056254
2185.3387536620	0.0919328034
2187.2675610351	0.0918377042
2189.1963684081	0.0916862041
2191.1251757812	0.0916195065
2193.0539831542	0.0914398879
2194.9827905273	0.0914213806
2196.9115979003	0.0912641138
2198.8404052734	0.0911936536
2200.7692126464	0.0912734345
2202.6980200195	0.0909233466
2204.6268273925	0.0907935798
2206.5556347656	0.0908043459
2208.4844421386	0.0907833874
2210.4132495117	0.0906275362
2212.3420568847	0.0904823989
2214.2708642577	0.0903830528
2216.1996716308	0.0903563052
2218.1284790038	0.0903311074
2220.0572863769	0.0899543092
2221.9860937499	0.0898699239
2223.9149011230	0.0898670033
2225.8437084960	0.0898464024
2227.7725158691	0.0896782801
2229.7013232421	0.0894910470
2231.6301306152	0.0894767046
2233.5589379882	0.0892123953
2235.4877453613	0.0891422033
2237.4165527343	0.0890261978
2239.3453601074	0.0888290480
2241.2741674804	0.0886421204
2243.2029748534	0.0885812640
2245.1317822265	0.0885040462
2247.0605895995	0.0884114653
2248.9893969726	0.0884107947
2250.9182043456	0.0880373716
2252.8470117187	0.0880007595
2254.7758190917	0.0878390670
2256.7046264648	0.0876554325
2258.6334338378	0.0876534060
2260.5622412109	0.0874021426
2262.4910485839	0.0875140280
2264.4198559570	0.0873455703
2266.3486633300	0.0871030688
2268.2774707031	0.0870310813
2270.2062780761	0.0869175121
2272.1350854491	0.0868733674
2274.0638928222	0.0867766887
2275.9927001952	0.0866985619
2277.9215075683	0.0865278393
2279.8503149413	0.0865061283
2281.7791223144	0.0864492282
2283.7079296874	0.0863307267
2285.6367370605	0.0862231404
2287.5655444335	0.0859958678
2289.4943518066	0.0857285485
2291.4231591796	0.0856435001
2293.3519665527	0.0854067206
2295.2807739257	0.0849909857
2297.2095812988	0.0849957615
2299.1383886718	0.0845218152
2301.0671960449	0.0840877816
2302.9960034179	0.0838671476
2304.9248107909	0.0832185149
2306.8536181640	0.0827634633
2308.7824255370	0.0821310729
2310.7112329101	0.0814983472
2312.6400402831	0.0806197748
2314.5688476562	0.0796562880
2316.4976550292	0.0788591057
2318.4264624023	0.0777793825
2320.3552697753	0.0767002106
2322.2840771484	0.0753986239
2324.2128845214	0.0744944662
2326.1416918945	0.0737622082
2328.0704992675	0.0727580786
2329.9993066406	0.0718113631
2331.9281140136	0.0710728168
2333.8569213866	0.0710107982
2335.7857287597	0.0707306266
2337.7145361327	0.0704310536
2339.6433435058	0.0704041570
2341.5721508788	0.0706939995
2343.5009582519	0.0718672127
2345.4297656249	0.0731355846
2347.3585729980	0.0763999969
2349.2873803710	0.0791271403
2351.2161877441	0.0762082040
2353.1449951171	0.0721340626
2355.0738024902	0.0694212019
2357.0026098632	0.0670127198
2358.9314172363	0.0658224076
2360.8602246093	0.0650549382
2362.7890319823	0.0649469495
2364.7178393554	0.0652760565
2366.6466467284	0.0661915764
2368.5754541015	0.0676933378
2370.5042614745	0.0692845508
2372.4330688476	0.0715090632
2374.3618762206	0.0735521466
2376.2906835937	0.0756408721
2378.2194909667	0.0774140507
2380.1482983398	0.0787402391
2382.0771057128	0.0798781067
2384.0059130859	0.0804079026
2385.9347204589	0.0808242708
2387.8635278320	0.0808516741
2389.7923352050	0.0809021741
2391.7211425780	0.0806359574
2393.6499499511	0.0804409534
2395.5787573241	0.0806594640
2397.5075646972	0.0803578049
2399.4363720702	0.0802753493
2401.3651794433	0.0801918805
2403.2939868163	0.0801773071
2405.2227941894	0.0801763386
2407.1516015624	0.0799425244
2409.0804089355	0.0797999427
2411.0092163085	0.0796529651
2412.9380236816	0.0795904994
2414.8668310546	0.0793924332
2416.7956384277	0.0794225782
2418.7244458007	0.0792850852
2420.6532531738	0.0790781230
2422.5820605468	0.0791420788
2424.5108679198	0.0789831579
2426.4396752929	0.0789121091
2428.3684826659	0.0788177252
2430.2972900390	0.0787208080
2432.2260974120	0.0785761848
2434.1549047851	0.0783880204
2436.0837121581	0.0783316717
2438.0125195312	0.0782821253
2439.9413269042	0.0781365037
2441.8701342773	0.0780440941
2443.7989416503	0.0780604929
2445.7277490234	0.0778459683
2447.6565563964	0.0777325407
2449.5853637695	0.0776200518
2451.5141711425	0.0775643140
2453.4429785155	0.0775423348
2455.3717858886	0.0772913322
2457.3005932616	0.0772042125
2459.2294006347	0.0771181136
2461.1582080077	0.0771320015
2463.0870153808	0.0770112574
2465.0158227538	0.0767449439
2466.9446301269	0.0767505392
2468.8734374999	0.0767085850
2470.8022448730	0.0765713900
2472.7310522460	0.0764697045
2474.6598596191	0.0764039010
2476.5886669921	0.0763280541
2478.5174743652	0.0761957094
2480.4462817382	0.0761100352
2482.3750891112	0.0761554390
2484.3038964843	0.0759656280
2486.2327038573	0.0757962316
2488.1615112304	0.0758346170
2490.0903186034	0.0757681504
2492.0191259765	0.0756482556
2493.9479333495	0.0754315555
2495.8767407226	0.0754154027
2497.8055480956	0.0753208995
2499.7343554687	0.0751587749
2501.6631628417	0.0749857202
2503.5919702148	0.0748217851
2505.5207775878	0.0749271065
2507.4495849609	0.0747861415
2509.3783923339	0.0747336000
2511.3071997069	0.0746373311
2513.2360070800	0.0744745135
2515.1648144530	0.0743223429
2517.0936218261	0.0741847306
2519.0224291991	0.0743061304
2520.9512365722	0.0741275549
2522.8800439452	0.0740742087
2524.8088513183	0.0739859790
2526.7376586913	0.0738800764
2528.6664660644	0.0738353208
2530.5952734374	0.0736413822
2532.5240808105	0.0736937895
2534.4528881835	0.0735972375
2536.3816955566	0.0734788552
2538.3105029296	0.0732533336
2540.2393103027	0.0731215402
2542.1681176757	0.0730896890
2544.0969250487	0.0729923770
2546.0257324218	0.0729903132
2547.9545397948	0.0728010237
2549.8833471679	0.0727783740
2551.8121545409	0.0726776049
2553.7409619140	0.0726135597
2555.6697692870	0.0725793391
2557.5985766601	0.0724432468
2559.5273840331	0.0723017901
2561.4561914062	0.0721234530
2563.3849987792	0.0721378922
2565.3138061523	0.0718791038
2567.2426135253	0.0718506649
2569.1714208984	0.0718420446
2571.1002282714	0.0717178360
2573.0290356444	0.0717353076
2574.9578430175	0.0714793950
2576.8866503905	0.0714733079
2578.8154577636	0.0713476241
2580.7442651366	0.0712374300
2582.6730725097	0.0712172240
2584.6018798827	0.0710344762
2586.5306872558	0.0709976405
2588.4594946288	0.0709287152
2590.3883020019	0.0708869472
2592.3171093749	0.0706967711
2594.2459167480	0.0705515295
2596.1747241210	0.0704580992
2598.1035314941	0.0704166144
2600.0323388671	0.0704053268
2601.9611462401	0.0701090246
2603.8899536132	0.0699943155
2605.8187609862	0.0700311214
2607.7475683593	0.0698745251
2609.6763757323	0.0696976706
2611.6051831054	0.0697129220
2613.5339904784	0.0696483031
2615.4627978515	0.0694954991
2617.3916052245	0.0694253892
2619.3204125976	0.0693617314
2621.2492199706	0.0692750886
2623.1780273437	0.0691849589
2625.1068347167	0.0691548884
2627.0356420898	0.0689622834
2628.9644494628	0.0689222887
2630.8932568358	0.0688452721
2632.8220642089	0.0686224326
2634.7508715819	0.0686210096
2636.6796789550	0.0684331954
2638.6084863280	0.0683326721
2640.5372937011	0.0683387592
2642.4661010741	0.0682021379
2644.3949084472	0.0681084245
2646.3237158202	0.0680476874
2648.2525231933	0.0678774118
2650.1813305663	0.0677070022
2652.1101379394	0.0676993281
2654.0389453124	0.0675768554
2655.9677526855	0.0674589798
2657.8965600585	0.0674045011
2659.8253674315	0.0673497766
2661.7541748046	0.0671663284
2663.6829821776	0.0670563430
2665.6117895507	0.0671763569
2667.5405969237	0.0669846833
2669.4694042968	0.0667966828
2671.3982116698	0.0667419583
2673.3270190429	0.0666327327
2675.2558264159	0.0665895939
2677.1846337890	0.0665264800
2679.1134411620	0.0664006323
2681.0422485351	0.0663521886
2682.9710559081	0.0663486421
2684.8998632812	0.0661365092
2686.8286706542	0.0659991130
2688.7574780273	0.0658859015
2690.6862854003	0.0657852292
2692.6150927733	0.0658165663
2694.5439001464	0.0657089651
2696.4727075194	0.0655250251
2698.4015148925	0.0654107556
2700.3303222655	0.0653694347
2702.2591296386	0.0652446002
2704.1879370116	0.0651895553
2706.1167443847	0.0650794506
2708.0455517577	0.0649380907
2709.9743591308	0.0648585856
2711.9031665038	0.0646703392
2713.8319738769	0.0646850169
2715.7607812499	0.0646156073
2717.6895886230	0.0645472854
2719.6183959960	0.0645313710
2721.5472033690	0.0642861053
2723.4760107421	0.0641652197
2725.4048181151	0.0640849844
2727.3336254882	0.0639906824
2729.2624328612	0.0638643950
2731.1912402343	0.0637411475
2733.1200476073	0.0637925267
2735.0488549804	0.0637092143
2736.9776623534	0.0634704232
2738.9064697265	0.0633971840
2740.8352770995	0.0633367300
2742.7640844726	0.0632784218
2744.6928918456	0.0632464439
2746.6216992187	0.0630143508
2748.5505065917	0.0627934337
2750.4793139647	0.0627636388
2752.4081213378	0.0627334118
2754.3369287108	0.0625390932
2756.2657360839	0.0624656342
2758.1945434569	0.0623114482
2760.1233508300	0.0621702299
2762.0521582030	0.0622796118
2763.9809655761	0.0621088147
2765.9097729491	0.0619643629
2767.8385803222	0.0617915466
2769.7673876952	0.0617237017
2771.6961950683	0.0616901070
2773.6250024413	0.0615079924
2775.5538098144	0.0614457391
2777.4826171874	0.0611612946
2779.4114245604	0.0612692609
2781.3402319335	0.0611361489
2783.2690393065	0.0608554706
2785.1978466796	0.0609489605
2787.1266540526	0.0606726408
2789.0554614257	0.0606844984
2790.9842687987	0.0604734011
2792.9130761718	0.0602736697
2794.8418835448	0.0603914782
2796.7706909179	0.0601648092
2798.6994982909	0.0600981116
2800.6283056640	0.0599508435
2802.5571130370	0.0597477816
2804.4859204101	0.0596951023
2806.4147277831	0.0595827885
2808.3435351562	0.0594306290
2810.2723425292	0.0593011454
2812.2011499022	0.0591695681
2814.1299572753	0.0591710471
2816.0587646483	0.0590803698
2817.9875720214	0.0588843822
2819.9163793944	0.0589234717
2821.8451867675	0.0586914793
2823.7739941405	0.0585428774
2825.7028015136	0.0584456772
2827.6316088866	0.0582510009
2829.5604162597	0.0582450256
2831.4892236327	0.0581088737
2833.4180310058	0.0579791851
2835.3468383788	0.0577619597
2837.2756457519	0.0576054379
2839.2044531249	0.0573706031
2841.1332604979	0.0572277084
2843.0620678710	0.0571034029
2844.9908752440	0.0567819998
2846.9196826171	0.0565504245
2848.8484899901	0.0559419617
2850.7772973632	0.0558065400
2852.7061047362	0.0559254326
2854.6349121093	0.0557070896
2856.5637194823	0.0556030795
2858.4925268554	0.0555590391
2860.4213342284	0.0556284077
2862.3501416015	0.0554298684
2864.2789489745	0.0554704219
2866.2077563476	0.0553886481
2868.1365637206	0.0550961867
2870.0653710936	0.0552122779
2871.9941784667	0.0550344214
2873.9229858397	0.0548943356
2875.8517932128	0.0549022518
2877.7806005858	0.0548386201
2879.7094079589	0.0547456369
2881.6382153319	0.0545374453
2883.5670227050	0.0544415340
2885.4958300780	0.0544389524
2887.4246374511	0.0543268174
2889.3534448241	0.0541925840
2891.2822521972	0.0540665239
2893.2110595702	0.0538138747
2895.1398669433	0.0536980256
2897.0686743163	0.0535685048
2898.9974816893	0.0534195863
2900.9262890624	0.0532747805
2902.8550964354	0.0531790331
2904.7839038085	0.0530672036
2906.7127111815	0.0527037829
2908.6415185546	0.0526150055
2910.5703259276	0.0523910820
2912.4991333007	0.0521012358
2914.4279406737	0.0518415570
2916.3567480468	0.0513906553
2918.2855554198	0.0512743592
2920.2143627929	0.0512109324
2922.1431701659	0.0512214750
2924.0719775390	0.0510877855
2926.0007849120	0.0509224832
2927.9295922851	0.0509663597
2929.8583996581	0.0508484319
2931.7872070311	0.0508395135
2933.7160144042	0.0509135947
2935.6448217772	0.0508735627
2937.5736291503	0.0507253036
2939.5024365233	0.0507131368
2941.4312438964	0.0506897308
2943.3600512694	0.0505992360
2945.2888586425	0.0506381541
2947.2176660155	0.0505767688
2949.1464733886	0.0504084192
2951.0752807616	0.0502683297
2953.0040881347	0.0501599088
2954.9328955077	0.0499156862
2956.8617028808	0.0497869030
2958.7905102538	0.0496099740
2960.7193176268	0.0494453795
2962.6481249999	0.0493732840
2964.5769323729	0.0490948036
2966.5057397460	0.0490982234
2968.4345471190	0.0490895808
2970.3633544921	0.0490973443
2972.2921618651	0.0491391793
2974.2209692382	0.0491208583
2976.1497766112	0.0491598248
2978.0785839843	0.0489936620
2980.0073913573	0.0490469187
2981.9361987304	0.0489514694
2983.8650061034	0.0488995984
2985.7938134765	0.0489144921
2987.7226208495	0.0486862883
2989.6514282225	0.0487485044
2991.5802355956	0.0485801324
2993.5090429686	0.0484383181
2995.4378503417	0.0484862067
2997.3666577147	0.0482713766
2999.2954650878	0.0481026992
3001.2242724608	0.0480456874
3003.1530798339	0.0479335189
3005.0818872069	0.0477487743
3007.0106945800	0.0476415306
3008.9395019530	0.0475512408
3010.8683093261	0.0473922566
3012.7971166991	0.0471536666
3014.7259240722	0.0470154546
3016.6547314452	0.0469680168
3018.5835388182	0.0468503013
3020.5123461913	0.0467043072
3022.4411535643	0.0465469509
3024.3699609374	0.0464365259
3026.2987683104	0.0462991074
3028.2275756835	0.0462359414
3030.1563830565	0.0460366681
3032.0851904296	0.0457620732
3034.0139978026	0.0456470847
3035.9428051757	0.0455593206
3037.8716125487	0.0455431193
3039.8004199218	0.0453656390
3041.7292272948	0.0452557467
3043.6580346679	0.0450798944
3045.5868420409	0.0448317192
3047.5156494139	0.0448197238
3049.4444567870	0.0445974059
3051.3732641600	0.0445049815
3053.3020715331	0.0444259010
3055.2308789061	0.0441454351
3057.1596862792	0.0440085456
3059.0884936522	0.0438333303
3061.0173010253	0.0437924303
3062.9461083983	0.0436980389
3064.8749157714	0.0433898717
3066.8037231444	0.0432110466
3068.7325305175	0.0431443676
3070.6613378905	0.0430470593
3072.5901452636	0.0428863801
3074.5189526366	0.0428629965
3076.4477600097	0.0427101217
3078.3765673827	0.0424485616
3080.3053747557	0.0423821509
3082.2341821288	0.0422151312
3084.1629895018	0.0421495996
3086.0917968749	0.0419610888
3088.0206042479	0.0417704657
3089.9494116210	0.0417897552
3091.8782189940	0.0414869972
3093.8070263671	0.0413688943
3095.7358337401	0.0411527976
3097.6646411132	0.0408697501
3099.5934484862	0.0407830253
3101.5222558593	0.0404915139
3103.4510632323	0.0405434445
3105.3798706054	0.0404007323
3107.3086779784	0.0400617272
3109.2374853514	0.0399254411
3111.1662927245	0.0397552028
3113.0951000975	0.0397900864
3115.0239074706	0.0395585522
3116.9527148436	0.0392515212
3118.8815222167	0.0391522422
3120.8103295897	0.0388931856
3122.7391369628	0.0387021638
3124.6679443358	0.0386584997
3126.5967517089	0.0384637788
3128.5255590819	0.0382570624
3130.4543664550	0.0381355882
3132.3831738280	0.0379426330
3134.3119812011	0.0377628244
3136.2407885741	0.0374391377
3138.1695959471	0.0372590944
3140.0984033202	0.0372212604
3142.0272106932	0.0369339660
3143.9560180663	0.0367253572
3145.8848254393	0.0366554931
3147.8136328124	0.0364710391
3149.7424401854	0.0362112336
3151.6712475585	0.0360769816
3153.6000549315	0.0358767435
3155.5288623046	0.0357319489
3157.4576696776	0.0355412737
3159.3864770507	0.0352659300
3161.3152844237	0.0352034718
3163.2440917968	0.0349402875
3165.1728991698	0.0347891599
3167.1017065428	0.0346571803
3169.0305139159	0.0344226658
3170.9593212889	0.0343153402
3172.8881286620	0.0341530815
3174.8169360350	0.0340209715
3176.7457434081	0.0336204246
3178.6745507811	0.0334514678
3180.6033581542	0.0334617533
3182.5321655272	0.0331825688
3184.4609729003	0.0329430848
3186.3897802733	0.0327541903
3188.3185876464	0.0327127278
3190.2473950194	0.0325231776
3192.1762023925	0.0322803073
3194.1050097655	0.0322275199
3196.0338171386	0.0321245417
3197.9626245116	0.0319003873
3199.8914318846	0.0317755416
3201.8202392577	0.0317394733
3203.7490466307	0.0314706638
3205.6778540038	0.0312936679
3207.6066613768	0.0311900359
3209.5354687499	0.0310290642
3211.4642761229	0.0308825895
3213.3930834960	0.0307583697
3215.3218908690	0.0307053905
3217.2506982421	0.0305621810
3219.1795056151	0.0304884054
3221.1083129882	0.0304401293
3223.0371203612	0.0303435568
3224.9659277343	0.0301581882
3226.8947351073	0.0299233124
3228.8235424803	0.0298687480
3230.7523498534	0.0298478492
3232.6811572264	0.0297365990
3234.6099645995	0.0296216868
3236.5387719725	0.0295232814
3238.4675793456	0.0293693766
3240.3963867186	0.0293333866
3242.3251940917	0.0293003246
3244.2540014647	0.0291844346
3246.1828088378	0.0290832464
3248.1116162108	0.0289984681
3250.0404235839	0.0290033966
3251.9692309569	0.0288608149
3253.8980383300	0.0287642963
3255.8268457030	0.0288378894
3257.7556530760	0.0287942737
3259.6844604491	0.0285679325
3261.6132678221	0.0284390002
3263.5420751952	0.0284681283
3265.4708825682	0.0284400601
3267.3996899413	0.0284307431
3269.3284973143	0.0282816514
3271.2573046874	0.0282385871
3273.1861120604	0.0281910077
3275.1149194335	0.0280951019
3277.0437268065	0.0282151401
3278.9725341796	0.0280992724
3280.9013415526	0.0280222464
3282.8301489257	0.0279848315
3284.7589562987	0.0279045366
3286.6877636717	0.0279115252
3288.6165710448	0.0277955271
3290.5453784178	0.0276539233
3292.4741857909	0.0275694970
3294.4029931639	0.0276397169
3296.3318005370	0.0276213363
3298.2606079100	0.0275163427
3300.1894152831	0.0274293907
3302.1182226561	0.0273816027
3304.0470300292	0.0273431018
3305.9758374022	0.0271890126
3307.9046447753	0.0271708835
3309.8334521483	0.0271097664
3311.7622595214	0.0270555951
3313.6910668944	0.0271130409
3315.6198742675	0.0270754099
3317.5486816405	0.0270185769
3319.4774890135	0.0269521065
3321.4062963866	0.0268894266
3323.3351037596	0.0268561728
3325.2639111327	0.0267761648
3327.1927185057	0.0266726315
3329.1215258788	0.0266584028
3331.0503332518	0.0265417695
3332.9791406249	0.0264839027
3334.9079479979	0.0264377706
3336.8367553710	0.0262710471
3338.7655627440	0.0263816174
3340.6943701171	0.0264155101
3342.6231774901	0.0262811091
3344.5519848632	0.0262186192
3346.4807922362	0.0261263587
3348.4095996092	0.0260289796
3350.3384069823	0.0260457769
3352.2672143553	0.0260418672
3354.1960217284	0.0258970037
3356.1248291014	0.0258953627
3358.0536364745	0.0258223303
3359.9824438475	0.0257435311
3361.9112512206	0.0257784314
3363.8400585936	0.0257219598
3365.7688659667	0.0256745890
3367.6976733397	0.0255857129
3369.6264807128	0.0256302860
3371.5552880858	0.0256509036
3373.4840954589	0.0255218558
3375.4129028319	0.0254861824
3377.3417102049	0.0254308693
3379.2705175780	0.0253723487
3381.1993249510	0.0253773592
3383.1281323241	0.0253791418
3385.0569396971	0.0253099166
3386.9857470702	0.0252557322
3388.9145544432	0.0253702383
3390.8433618163	0.0253133588
3392.7721691893	0.0250866152
3394.7009765624	0.0251323022
3396.6297839354	0.0251008347
3398.5585913085	0.0250557214
3400.4873986815	0.0251334384
3402.4162060546	0.0250931308
3404.3450134276	0.0251737237
3406.2738208006	0.0252153650
3408.2026281737	0.0251198299
3410.1314355467	0.0250239670
3412.0602429198	0.0251288097
3413.9890502928	0.0251351409
3415.9178576659	0.0251029264
3417.8466650389	0.0252530426
3419.7754724120	0.0250155106
3421.7042797850	0.0250089914
3423.6330871581	0.0251582004
3425.5618945311	0.0250899903
3427.4907019042	0.0251437277
3429.4195092772	0.0251607746
3431.3483166503	0.0250828378
3433.2771240233	0.0250367261
3435.2059313963	0.0252049286
3437.1347387694	0.0250874013
3439.0635461424	0.0251039416
3440.9923535155	0.0251278058
3442.9211608885	0.0249828547
3444.8499682616	0.0251323916
3446.7787756346	0.0248594508
3448.7075830077	0.0250362530
3450.6363903807	0.0253125653
3452.5651977538	0.0251241457
3454.4940051268	0.0252539292
3456.4228124999	0.0252118744
3458.3516198729	0.0252554640
3460.2804272460	0.0253307000
3462.2092346190	0.0252193976
3464.1380419921	0.0253087133
3466.0668493651	0.0253788792
3467.9956567381	0.0252907164
3469.9244641112	0.0253929105
3471.8532714842	0.0254398920
3473.7820788573	0.0254491996
3475.7108862303	0.0255553275
3477.6396936034	0.0254818369
3479.5685009764	0.0255380347
3481.4973083495	0.0253631435
3483.4261157225	0.0254928395
3485.3549230956	0.0256592482
3487.2837304686	0.0254335180
3489.2125378417	0.0257043820
3491.1413452147	0.0257128477
3493.0701525878	0.0257240795
3494.9989599608	0.0258098580
3496.9277673338	0.0257540829
3498.8565747069	0.0258575268
3500.7853820799	0.0258551873
3502.7141894530	0.0256967414
3504.6429968260	0.0256912094
3506.5718041991	0.0261060204
3508.5006115721	0.0259163193
3510.4294189452	0.0258941352
3512.3582263182	0.0261840578
3514.2870336913	0.0261212401
3516.2158410643	0.0262439214
3518.1446484374	0.0261876248
3520.0734558104	0.0263761245
3522.0022631835	0.0262926407
3523.9310705565	0.0260874890
3525.8598779295	0.0261189491
3527.7886853026	0.0260647461
3529.7174926756	0.0263225771
3531.6463000487	0.0264962818
3533.5751074217	0.0266922042
3535.5039147948	0.0265271869
3537.4327221678	0.0264239535
3539.3615295409	0.0267428588
3541.2903369139	0.0267493762
3543.2191442870	0.0266558249
3545.1479516600	0.0262872204
3547.0767590331	0.0260660909
3549.0055664061	0.0267202184
3550.9343737792	0.0269691199
3552.8631811522	0.0264809877
3554.7919885252	0.0268826298
3556.7207958983	0.0271801911
3558.6496032713	0.0269520245
3560.5784106444	0.0268636625
3562.5072180174	0.0268879943
3564.4360253905	0.0270563792
3566.3648327635	0.0257002469
3568.2936401366	0.0251241550
3570.2224475096	0.0267963167
3572.1512548827	0.0274553411
3574.0800622557	0.0272987373
3576.0088696288	0.0273772292
3577.9376770018	0.0272856355
3579.8664843749	0.0273789950
3581.7952917479	0.0274092145
3583.7240991210	0.0274384208
3585.6529064940	0.0269959588
3587.5817138670	0.0253678598
3589.5105212401	0.0259703156
3591.4393286131	0.0277296379
3593.3681359862	0.0271987244
3595.2969433592	0.0269152075
3597.2257507323	0.0273123384
3599.1545581053	0.0274928473
3601.0833654784	0.0273225661
3603.0121728514	0.0274902843
3604.9409802245	0.0279748887
3606.8697875975	0.0272768512
3608.7985949706	0.0260263681
3610.7274023436	0.0264746081
3612.6562097167	0.0270230677
3614.5850170897	0.0264645182
3616.5138244627	0.0279116072
3618.4426318358	0.0263802726
3620.3714392088	0.0255856439
3622.3002465819	0.0281624999
3624.2290539549	0.0277113132
3626.1578613280	0.0286968760
3628.0866687010	0.0252541285
3630.0154760741	0.0234016627
3631.9442834471	0.0280637592
3633.8730908202	0.0275863446
3635.8018981932	0.0279606320
3637.7307055663	0.0285085291
3639.6595129393	0.0282196626
3641.5883203124	0.0284540020
3643.5171276854	0.0280658528
3645.4459350584	0.0284590721
3647.3747424315	0.0261812229
3649.3035498045	0.0244477130
3651.2323571776	0.0248529334
3653.1611645506	0.0283396654
3655.0899719237	0.0281013623
3657.0187792967	0.0259285737
3658.9475866698	0.0289077964
3660.8763940428	0.0285127200
3662.8052014159	0.0288822446
3664.7340087889	0.0286959223
3666.6628161620	0.0286964327
3668.5916235350	0.0280389227
3670.5204309081	0.0237229392
3672.4492382811	0.0276632290
3674.3780456541	0.0267354511
3676.3068530272	0.0231839158
3678.2356604002	0.0276641808
3680.1644677733	0.0282377489
3682.0932751463	0.0282065738
3684.0220825194	0.0288629197
3685.9508898924	0.0287028924
3687.8796972655	0.0262227394
3689.8085046385	0.0244872607
3691.7373120116	0.0273886137
3693.6661193846	0.0280222129
3695.5949267577	0.0285117384
3697.5237341307	0.0284608267
3699.4525415038	0.0282718241
3701.3813488768	0.0277341213
3703.3101562499	0.0268668849
3705.2389636229	0.0289493017
3707.1677709959	0.0277852286
3709.0965783690	0.0272714756
3711.0253857420	0.0260788798
3712.9541931151	0.0248288028
3714.8830004881	0.0280720647
3716.8118078612	0.0277329423
3718.7406152342	0.0279296078
3720.6694226073	0.0274404753
3722.5982299803	0.0267269947
3724.5270373534	0.0275193788
3726.4558447264	0.0259180330
3728.3846520995	0.0275996346
3730.3134594725	0.0272145905
3732.2422668456	0.0255087689
3734.1710742186	0.0250976384
3736.0998815916	0.0241076387
3738.0286889647	0.0252320953
3739.9574963377	0.0267912932
3741.8863037108	0.0278188325
3743.8151110838	0.0226591080
3745.7439184569	0.0215815641
3747.6727258299	0.0266012177
3749.6015332030	0.0236081667
3751.5303405760	0.0221967958
3753.4591479491	0.0246550590
3755.3879553221	0.0261832848
3757.3167626952	0.0270412974
3759.2455700682	0.0253858846
3761.1743774413	0.0261503104
3763.1031848143	0.0273286738
3765.0319921873	0.0259719901
3766.9607995604	0.0263937749
3768.8896069334	0.0260507334
3770.8184143065	0.0251533892
3772.7472216795	0.0266671106
3774.6760290526	0.0266972743
3776.6048364256	0.0266503915
3778.5336437987	0.0261523202
3780.4624511717	0.0254700501
3782.3912585448	0.0266239662
3784.3200659178	0.0261384603
3786.2488732909	0.0260615237
3788.1776806639	0.0264319256
3790.1064880370	0.0262800641
3792.0352954100	0.0261791721
3793.9641027830	0.0265205689
3795.8929101561	0.0252324939
3797.8217175291	0.0250468366
3799.7505249022	0.0259640217
3801.6793322752	0.0216831714
3803.6081396483	0.0245598853
3805.5369470213	0.0260279588
3807.4657543944	0.0222873092
3809.3945617674	0.0258748047
3811.3233691405	0.0254250579
3813.2521765135	0.0261457451
3815.1809838866	0.0239935201
3817.1097912596	0.0217095409
3819.0385986327	0.0261014402
3820.9674060057	0.0221850816
3822.8962133787	0.0230148807
3824.8250207518	0.0259092823
3826.7538281248	0.0238481611
3828.6826354979	0.0252770744
3830.6114428709	0.0245985296
3832.5402502440	0.0238573626
3834.4690576170	0.0243217535
3836.3978649901	0.0232572407
3838.3266723631	0.0214559883
3840.2554797362	0.0229966119
3842.1842871092	0.0243174955
3844.1130944823	0.0234393626
3846.0419018553	0.0249157753
3847.9707092284	0.0245857388
3849.8995166014	0.0246513598
3851.8283239745	0.0226663575
3853.7571313475	0.0179441012
3855.6859387205	0.0204369780
3857.6147460936	0.0246536881
3859.5435534666	0.0239011385
3861.4723608397	0.0237753429
3863.4011682127	0.0234766379
3865.3299755858	0.0222070664
3867.2587829588	0.0241419822
3869.1875903319	0.0224258099
3871.1163977049	0.0212199241
3873.0452050780	0.0241574831
3874.9740124510	0.0227142423
3876.9028198241	0.0238973424
3878.8316271971	0.0242546834
3880.7604345702	0.0216393024
3882.6892419432	0.0239879657
3884.6180493162	0.0228270069
3886.5468566893	0.0212436598
3888.4756640623	0.0239936709
3890.4044714354	0.0229806006
3892.3332788084	0.0218640361
3894.2620861815	0.0234591514
3896.1908935545	0.0237186607
3898.1197009276	0.0228598379
3900.0485083006	0.0219021216
3901.9773156737	0.0217918307
3903.9061230467	0.0215165429
3905.8349304198	0.0217655934
3907.7637377928	0.0232907124
3909.6925451659	0.0232736655
3911.6213525389	0.0231853202
3913.5501599119	0.0234146640
3915.4789672850	0.0228288248
3917.4077746580	0.0222782902
3919.3365820311	0.0221164525
3921.2653894041	0.0227669254
3923.1941967772	0.0227099061
3925.1230041502	0.0223107152
3927.0518115233	0.0225687288
3928.9806188963	0.0226926953
3930.9094262694	0.0223134123
3932.8382336424	0.0219248924
3934.7670410155	0.0225297622
3936.6958483885	0.0227001831
3938.6246557616	0.0225309785
3940.5534631346	0.0226425678
3942.4822705076	0.0219495036
3944.4110778807	0.0219910685
3946.3398852537	0.0224228315
3948.2686926268	0.0219463445
3950.1974999998	0.0219274145
3952.1263073729	0.0221204013
3954.0551147459	0.0221850723
3955.9839221190	0.0221667401
3957.9127294920	0.0220055692
3959.8415368651	0.0220825039
3961.7703442381	0.0218175277
3963.6991516112	0.0218871459
3965.6279589842	0.0220266655
3967.5567663573	0.0218146313
3969.4855737303	0.0218624771
3971.4143811034	0.0216850583
3973.3431884764	0.0218007304
3975.2719958494	0.0217413045
3977.2008032225	0.0215575993
3979.1296105955	0.0216661170
3981.0584179686	0.0215076897
3982.9872253416	0.0215260498
3984.9160327147	0.0214383509
3986.8448400877	0.0214729980
3988.7736474608	0.0214872211
3990.7024548338	0.0212692171
3992.6312622069	0.0213086661
3994.5600695799	0.0212426987
3996.4888769530	0.0212108493
3998.4176843260	0.0212319344
4000.3464916991	0.0211123936
4002.2752990721	0.0211347379
4004.2041064451	0.0212316476
4006.1329138182	0.0210290253
4008.0617211912	0.0209672879
4009.9905285643	0.0209817402
4011.9193359373	0.0208222196
4013.8481433104	0.0208345689
4015.7769506834	0.0207608677
4017.7057580565	0.0207925290
4019.6345654295	0.0206843726
4021.5633728026	0.0205553994
4023.4921801756	0.0206518024
4025.4209875487	0.0205697417
4027.3497949217	0.0205582790
4029.2786022948	0.0204351023
4031.2074096678	0.0204886571
4033.1362170408	0.0205140561
4035.0650244139	0.0202855617
4036.9938317869	0.0204020776
4038.9226391600	0.0203354359
4040.8514465330	0.0202129874
4042.7802539061	0.0202047918
4044.7090612791	0.0200361721
4046.6378686522	0.0201580562
4048.5666760252	0.0201900937
4050.4954833983	0.0199851971
4052.4242907713	0.0199845955
4054.3530981444	0.0199534483
4056.2819055174	0.0198719390
4058.2107128905	0.0198076330
4060.1395202635	0.0198468938
4062.0683276365	0.0198362544
4063.9971350096	0.0197331961
4065.9259423826	0.0197353587
4067.8547497557	0.0196765102
4069.7835571287	0.0197352692
4071.7123645018	0.0196257327
4073.6411718748	0.0195146129
4075.5699792479	0.0195580758
4077.4987866209	0.0194421001
4079.4275939940	0.0194502920
4081.3564013670	0.0193931460
4083.2852087401	0.0193637144
4085.2140161131	0.0192411207
4087.1428234862	0.0191497877
4089.0716308592	0.0192094166
4091.0004382323	0.0191725548
4092.9292456053	0.0192000233
4094.8580529783	0.0190842450
4096.7868603514	0.0190499183
4098.7156677244	0.0189908706
4100.6444750975	0.0190212429
4102.5732824705	0.0190239083
4104.5020898436	0.0188019164
4106.4308972166	0.0188097619
4108.3597045897	0.0188480876
4110.2885119627	0.0188921541
4112.2173193358	0.0187544860
4114.1461267088	0.0187102817
4116.0749340819	0.0186673403
4118.0037414549	0.0186052360
4119.9325488280	0.0186445266
4121.8613562010	0.0185277537
4123.7901635740	0.0186426267
4125.7189709471	0.0184961893
4127.6477783201	0.0184082501
4129.5765856932	0.0183793306
4131.5053930662	0.0182680115
4133.4342004393	0.0183005333
4135.3630078123	0.0182126388
4137.2918151854	0.0183221828
4139.2206225584	0.0181697421
4141.1494299315	0.0181588922
4143.0782373045	0.0180880427
4145.0070446776	0.0179373920
4146.9358520506	0.0181136914
4148.8646594237	0.0179946590
4150.7934667967	0.0179675277
4152.7222741697	0.0178471878
4154.6510815428	0.0178512670
4156.5798889158	0.0178135950
4158.5086962889	0.0177502483
4160.4375036619	0.0178742707
4162.3663110350	0.0176929832
4164.2951184080	0.0176961794
4166.2239257811	0.0176259279
4168.1527331541	0.0176128186
4170.0815405272	0.0176211353
4172.0103479002	0.0175245665
4173.9391552733	0.0174962096
4175.8679626463	0.0174315702
4177.7967700194	0.0174559634
4179.7255773924	0.0173106287
4181.6543847654	0.0173472799
4183.5831921385	0.0173195414
4185.5119995115	0.0171965174
4187.4408068846	0.0172337890
4189.3696142576	0.0172296502
4191.2984216307	0.0171779394
4193.2272290037	0.0171184130
4195.1560363768	0.0171542577
4197.0848437498	0.0169839375
4199.0136511229	0.0170225780
4200.9424584959	0.0169768967
4202.8712658690	0.0168573111
4204.8000732420	0.0169713795
4206.7288806151	0.0168613233
4208.6576879881	0.0168441497
4210.5864953611	0.0167505909
4212.5153027342	0.0167725049
4214.4441101072	0.0167378336
4216.3729174803	0.0166028626
4218.3017248533	0.0167029202
4220.2305322264	0.0166575983
4222.1593395994	0.0165481940
4224.0881469725	0.0164939910
4226.0169543455	0.0165298954
4227.9457617186	0.0163833462
4229.8745690916	0.0163801666
4231.8033764647	0.0164043754
4233.7321838377	0.0162856020
4235.6609912108	0.0163297430
4237.5897985838	0.0162489749
4239.5186059569	0.0162569918
4241.4474133299	0.0161999874
4243.3762207029	0.0161972903
4245.3050280760	0.0162059590
4247.2338354490	0.0161602013
4249.1626428221	0.0160962194
4251.0914501951	0.0159330927
4253.0202575682	0.0160550158
4254.9490649412	0.0159775559
4256.8778723143	0.0158632323
4258.8066796873	0.0158413108
4260.7354870604	0.0158402193
4262.6642944334	0.0158739518
4264.5931018065	0.0157895796
4266.5219091795	0.0158190392
4268.4507165526	0.0157323368
4270.3795239256	0.0157119371
4272.3083312986	0.0156647041
4274.2371386717	0.0156274326
4276.1659460447	0.0155829899
4278.0947534178	0.0155496858
4280.0235607908	0.0156149548
4281.9523681639	0.0154875070
4283.8811755369	0.0155325849
4285.8099829100	0.0153570808
4287.7387902830	0.0153490761
4289.6675976561	0.0154878013
4291.5964050291	0.0152429556
4293.5252124022	0.0152689787
4295.4540197752	0.0152923074
4297.3828271483	0.0152528873
4299.3116345213	0.0151726268
4301.2404418943	0.0151704997
4303.1692492674	0.0152246896
4305.0980566404	0.0150562841
4307.0268640135	0.0149807408
4308.9556713865	0.0150103159
4310.8844787596	0.0149501096
4312.8132861326	0.0148797566
4314.7420935057	0.0150044439
4316.6709008787	0.0149043314
4318.5997082518	0.0148388408
4320.5285156248	0.0148632117
4322.4573229979	0.0147715081
4324.3861303709	0.0148650948
4326.3149377440	0.0147076175
4328.2437451170	0.0146744577
4330.1725524900	0.0147006623
4332.1013598631	0.0145830344
4334.0301672361	0.0146176750
4335.9589746092	0.0145385852
4337.8877819822	0.0145232417
4339.8165893553	0.0145154167
4341.7453967283	0.0144653907
4343.6742041014	0.0144034885
4345.6030114744	0.0144089041
4347.5318188475	0.0144560114
4349.4606262205	0.0143028647
4351.3894335936	0.0141799022
4353.3182409666	0.0142249018
4355.2470483397	0.0142465625
4357.1758557127	0.0141858347
4359.1046630858	0.0141865350
4361.0334704588	0.0140943248
4362.9622778318	0.0141052529
4364.8910852049	0.0141762383
4366.8198925779	0.0140084065
4368.7486999510	0.0139888637
4370.6775073240	0.0140207168
4372.6063146971	0.0139329033
4374.5351220701	0.0138869369
4376.4639294432	0.0138565823
4378.3927368162	0.0137662608
4380.3215441893	0.0138313193
4382.2503515623	0.0138965268
4384.1791589354	0.0137584079
4386.1079663084	0.0137403943
4388.0367736815	0.0136580076
4389.9655810545	0.0136446021
4391.8943884275	0.0136674196
4393.8231958006	0.0135055836
4395.7520031736	0.0135461688
4397.6808105467	0.0135851093
4399.6096179197	0.0134898163
4401.5384252928	0.0135016758
4403.4672326658	0.0134918690
4405.3960400389	0.0133453365
4407.3248474119	0.0132964365
4409.2536547850	0.0132989334
4411.1824621580	0.0132701471
4413.1112695311	0.0133525711
4415.0400769041	0.0133151952
4416.9688842772	0.0131503660
4418.8976916502	0.0131014688
4420.8264990232	0.0131485946
4422.7553063963	0.0131535884
4424.6841137693	0.0131079499
4426.6129211424	0.0130608939
4428.5417285154	0.0130726444
4430.4705358885	0.0130818868
4432.3993432615	0.0129860733
4434.3281506346	0.0129651660
4436.2569580076	0.0129622575
4438.1857653807	0.0128601389
4440.1145727537	0.0128641948
4442.0433801268	0.0129665658
4443.9721874998	0.0128490636
4445.9009948729	0.0127603300
4447.8298022459	0.0128307631
4449.7586096189	0.0127196759
4451.6874169920	0.0126849748
4453.6162243650	0.0126284864
4455.5450317381	0.0125693437
4457.4738391111	0.0126736090
4459.4026464842	0.0126529522
4461.3314538572	0.0125589464
4463.2602612303	0.0124417171
4465.1890686033	0.0124952011
4467.1178759764	0.0124975136
4469.0466833494	0.0123553080
4470.9754907225	0.0123529853
4472.9042980955	0.0123714693
4474.8331054686	0.0124536492
4476.7619128416	0.0123506431
4478.6907202147	0.0122431088
4480.6195275877	0.0123278629
4482.5483349607	0.0122648515
4484.4771423338	0.0122706480
4486.4059497068	0.0122280680
4488.3347570799	0.0121117961
4490.2635644529	0.0121930391
4492.1923718260	0.0122116301
4494.1211791990	0.0121644363
4496.0499865721	0.0120926704
4497.9787939451	0.0120264627
4499.9076013182	0.0120558189
4501.8364086912	0.0119451098
4503.7652160643	0.0119295046
4505.6940234373	0.0119898831
4507.6228308104	0.0118362643
4509.5516381834	0.0118161896
4511.4804455564	0.0118827913
4513.4092529295	0.0118512083
4515.3380603025	0.0117536373
4517.2668676756	0.0117249731
4519.1956750486	0.0117301214
4521.1244824217	0.0115917027
4523.0532897947	0.0116824545
4524.9820971678	0.0117327757
4526.9109045408	0.0115735177
4528.8397119139	0.0116106225
4530.7685192869	0.0115077207
4532.6973266600	0.0114298305
4534.6261340330	0.0115262680
4536.5549414061	0.0114611667
4538.4837487791	0.0114482231
4540.4125561521	0.0114419777
4542.3413635252	0.0114111789
4544.2701708982	0.0114060491
4546.1989782713	0.0112951919
4548.1277856443	0.0112901796
4550.0565930174	0.0113167930
4551.9854003904	0.0112198684
4553.9142077635	0.0112018920
4555.8430151365	0.0112732835
4557.7718225096	0.0112552624
4559.7006298826	0.0111470949
4561.6294372557	0.0110625168
4563.5582446287	0.0110222027
4565.4870520018	0.0110132331
4567.4158593748	0.0110457651
4569.3446667478	0.0110863447
4571.2734741209	0.0110143013
4573.2022814939	0.0109553924
4575.1310888670	0.0109589286
4577.0598962400	0.0109015312
4578.9887036131	0.0108488258
4580.9175109861	0.0108162574
4582.8463183592	0.0108223902
4584.7751257322	0.0107963253
4586.7039331053	0.0107823284
4588.6327404783	0.0107287820
4590.5615478514	0.0106785446
4592.4903552244	0.0107206199
4594.4191625975	0.0106356936
4596.3479699705	0.0106122587
4598.2767773435	0.0105550773
4600.2055847166	0.0105417036
4602.1343920896	0.0105957501
4604.0631994627	0.0104905404
4605.9920068357	0.0105278399
4607.9208142088	0.0105144139
4609.8496215818	0.0105043696
4611.7784289549	0.0104992623
4613.7072363279	0.0104343155
4615.6360437010	0.0104262969
4617.5648510740	0.0103142336
4619.4936584471	0.0103388280
4621.4224658201	0.0103434548
4623.3512731932	0.0103392843
4625.2800805662	0.0103565566
4627.2088879393	0.0102018751
4629.1376953123	0.0101816896
4631.0665026853	0.0101855779
4632.9953100584	0.0101324376
4634.9241174314	0.0102171917
4636.8529248045	0.0101899337
4638.7817321775	0.0100250505
4640.7105395506	0.0100618023
4642.6393469236	0.0100514097
4644.5681542967	0.0100187510
4646.4969616697	0.0100788083
4648.4257690428	0.0100074504
4650.3545764158	0.0099547934
4652.2833837889	0.0098914877
4654.2121911619	0.0098743159
4656.1409985350	0.0098622590
4658.0698059080	0.0098760491
4659.9986132810	0.0098924944
4661.9274206541	0.0098005850
4663.8562280271	0.0097704595
4665.7850354002	0.0097186211
4667.7138427732	0.0097568836
4669.6426501463	0.0097827436
4671.5714575193	0.0097269630
4673.5002648924	0.0096154055
4675.4290722654	0.0096105002
4677.3578796385	0.0096887387
4679.2866870115	0.0095349215
4681.2154943846	0.0095683951
4683.1443017576	0.0095488848
4685.0731091307	0.0095111504
4687.0019165037	0.0095919864
4688.9307238767	0.0094597619
4690.8595312498	0.0094687501
4692.7883386228	0.0094891246
4694.7171459959	0.0093957521
4696.6459533689	0.0093756625
4698.5747607420	0.0094438847
4700.5035681150	0.0093560694
4702.4323754881	0.0092878351
4704.3611828611	0.0093054362
4706.2899902342	0.0092335902
4708.2187976072	0.0093205199
4710.1476049803	0.0091985855
4712.0764123533	0.0091305841
4714.0052197264	0.0091733094
4715.9340270994	0.0090618776
4717.8628344724	0.0091497041
4719.7916418455	0.0091880169
4721.7204492185	0.0091225598
4723.6492565916	0.0090882424
4725.5780639646	0.0091676079
4727.5068713377	0.0091554578
4729.4356787107	0.0090020159
4731.3644860838	0.0089474004
4733.2932934568	0.0089330068
4735.2221008299	0.0089611132
4737.1509082029	0.0089377742
4739.0797155760	0.0089248363
4741.0085229490	0.0089642201
4742.9373303221	0.0089781201
4744.8661376951	0.0088754054
4746.7949450682	0.0088382363
4748.7237524412	0.0088734990
4750.6525598142	0.0088542216
4752.5813671873	0.0088326931
4754.5101745603	0.0086957701
4756.4389819334	0.0087369950
4758.3677893064	0.0087484643
4760.2965966795	0.0086805010
4762.2254040525	0.0086414590
4764.1542114256	0.0085917423
4766.0830187986	0.0086678322
4768.0118261717	0.0085886568
4769.9406335447	0.0086310776
4771.8694409178	0.0085379668
4773.7982482908	0.0084703136
4775.7270556639	0.0086423494
4777.6558630369	0.0084888190
4779.5846704099	0.0084740333
4781.5134777830	0.0084876046
4783.4422851560	0.0084393099
4785.3710925291	0.0084806047
4787.2998999021	0.0084121395
4789.2287072752	0.0083690323
4791.1575146482	0.0083773863
4793.0863220213	0.0083585121
4795.0151293943	0.0082911542
4796.9439367674	0.0083057201
4798.8727441404	0.0082912790
4800.8015515135	0.0082613975
4802.7303588865	0.0082456730
4804.6591662596	0.0082345065
4806.5879736326	0.0082114376
4808.5167810056	0.0081162117
4810.4455883787	0.0081137680
4812.3743957517	0.0081451749
4814.3032031248	0.0081177149
4816.2320104978	0.0080163749
4818.1608178709	0.0080341753
4820.0896252439	0.0080026053
4822.0184326170	0.0080134254
4823.9472399900	0.0081038559
4825.8760473631	0.0079641640
4827.8048547361	0.0080159176
4829.7336621092	0.0080147376
4831.6624694822	0.0079927463
4833.5912768553	0.0079892976
4835.5200842283	0.0078985356
4837.4488916013	0.0079632970
4839.3776989744	0.0078857569
4841.3065063474	0.0079249013
4843.2353137205	0.0078637432
4845.1641210935	0.0077693919
4847.0929284666	0.0078799427
4849.0217358396	0.0077715032
4850.9505432127	0.0077469433
4852.8793505857	0.0077653001
4854.8081579588	0.0076730722
4856.7369653318	0.0076983152
4858.6657727049	0.0077113751
4860.5945800779	0.0075651524
4862.5233874510	0.0075673335
4864.4521948240	0.0076065063
4866.3810021971	0.0075952332
4868.3098095701	0.0076646488
4870.2386169431	0.0076331836
4872.1674243162	0.0076421029
4874.0962316892	0.0075151739
4876.0250390623	0.0074980035
4877.9538464353	0.0075518638
4879.8826538084	0.0074050897
4881.8114611814	0.0074535967
4883.7402685545	0.0074601877
4885.6690759275	0.0074381940
4887.5978833006	0.0073455991
4889.5266906736	0.0072992910
4891.4554980467	0.0074158926
4893.3843054197	0.0073654503
4895.3131127928	0.0073669474
4897.2419201658	0.0073408941
4899.1707275388	0.0073001268
4901.0995349119	0.0073499717
4903.0283422849	0.0072818324
4904.9571496580	0.0072301510
4906.8859570310	0.0073010046
4908.8147644041	0.0072411336
4910.7435717771	0.0071509536
4912.6723791502	0.0071784202
4914.6011865232	0.0070969909
4916.5299938963	0.0070355618
4918.4588012693	0.0070740022
4920.3876086424	0.0071178339
4922.3164160154	0.0071086902
4924.2452233885	0.0070837028
4926.1740307615	0.0070202579
4928.1028381345	0.0069954721
4930.0316455076	0.0070254779
4931.9604528806	0.0069562318
4933.8892602537	0.0070122164
4935.8180676267	0.0069167307
4937.7468749998	0.0068681356
4939.6756823728	0.0070073279
4941.6044897459	0.0069073322
4943.5332971189	0.0068860035
4945.4621044920	0.0068742419
4947.3909118650	0.0068765734
4949.3197192381	0.0068900879
4951.2485266111	0.0068316404
4953.1773339842	0.0067787669
4955.1061413572	0.0067393146
4957.0349487302	0.0067997426
4958.9637561033	0.0067041451
4960.8925634763	0.0066634738
4962.8213708494	0.0066962279
4964.7501782224	0.0066397819
4966.6789855955	0.0066326763
4968.6077929685	0.0066795899
4970.5366003416	0.0067159967
4972.4654077146	0.0065987073
4974.3942150877	0.0065685483
4976.3230224607	0.0065727853
4978.2518298338	0.0065826662
4980.1806372068	0.0066206469
4982.1094445799	0.0065491530
4984.0382519529	0.0065752864
4985.9670593259	0.0065414463
4987.8958666990	0.0064705368
4989.8246740720	0.0065399241
4991.7534814451	0.0065594083
4993.6822888181	0.0064770598
4995.6110961912	0.0064078933
4997.5399035642	0.0064337230
4999.4687109373	0.0064186389
5001.3975183103	0.0063340571
5003.3263256834	0.0064110938
5005.2551330564	0.0063864714
5007.1839404295	0.0062689423
5009.1127478025	0.0063426434
5011.0415551756	0.0062343604
5012.9703625486	0.0062237801
5014.8991699217	0.0062834932
5016.8279772947	0.0061920807
5018.7567846677	0.0062382203
5020.6855920408	0.0061803488
5022.6143994138	0.0061963643
5024.5432067869	0.0061987890
5026.4720141599	0.0061944798
5028.4008215330	0.0062317569
5030.3296289060	0.0061094468
5032.2584362791	0.0060887630
5034.1872436521	0.0059988489
5036.1160510252	0.0060656900
5038.0448583982	0.0061633484
5039.9736657713	0.0060558813
5041.9024731443	0.0060436334
5043.8312805174	0.0060586119
5045.7600878904	0.0060821222
5047.6888952634	0.0059789554
5049.6177026365	0.0059896936
5051.5465100095	0.0059991847
5053.4753173826	0.0059246845
5055.4041247556	0.0060003968
5057.3329321287	0.0059162742
5059.2617395017	0.0059068152
5061.1905468748	0.0059618447
5063.1193542478	0.0059047579
5065.0481616209	0.0058456324
5066.9769689939	0.0058209216
5068.9057763670	0.0058778208
5070.8345837400	0.0058388971
5072.7633911131	0.0058508324
5074.6921984861	0.0058603007
5076.6210058591	0.0058010132
5078.5498132322	0.0058102291
5080.4786206052	0.0057411864
5082.4074279783	0.0057245847
5084.3362353513	0.0057145259
5086.2650427244	0.0057008560
5088.1938500974	0.0057654735
5090.1226574705	0.0056649772
5092.0514648435	0.0055807317
5093.9802722166	0.0056271306
5095.9090795896	0.0056348196
5097.8378869627	0.0056875171
5099.7666943357	0.0056923707
5101.6955017088	0.0055536153
5103.6243090818	0.0056020804
5105.5531164548	0.0057002278
5107.4819238279	0.0055598575
5109.4107312009	0.0055384142
5111.3395385740	0.0055232383
5113.2683459470	0.0054723974
5115.1971533201	0.0054959250
5117.1259606931	0.0054181544
5119.0547680662	0.0054099425
5120.9835754392	0.0053707748
5122.9123828123	0.0054130768
5124.8411901853	0.0054592034
5126.7699975584	0.0053839441
5128.6988049314	0.0054494971
5130.6276123045	0.0054166652
5132.5564196775	0.0053965598
5134.4852270506	0.0053916653
5136.4140344236	0.0053475387
5138.3428417966	0.0053771231
5140.2716491697	0.0053059431
5142.2004565427	0.0052450919
5144.1292639158	0.0053128139
5146.0580712888	0.0053404579
5147.9868786619	0.0052215788
5149.9156860349	0.0052300394
5151.8444934080	0.0052440278
5153.7733007810	0.0052133002
5155.7021081541	0.0052059623
5157.6309155271	0.0051794117
5159.5597229002	0.0052550416
5161.4885302732	0.0051728338
5163.4173376463	0.0051776003
5165.3461450193	0.0051624645
5167.2749523923	0.0050861854
5169.2037597654	0.0051296530
5171.1325671384	0.0050378926
5173.0613745115	0.0051077106
5174.9901818845	0.0050722198
5176.9189892576	0.0050033079
5178.8477966306	0.0050853393
5180.7766040037	0.0050773993
5182.7054113767	0.0050367462
5184.6342187498	0.0049431608
5186.5630261228	0.0050127329
5188.4918334959	0.0049918368
5190.4206408689	0.0048884917
5192.3494482420	0.0049727354
5194.2782556150	0.0050377678
5196.2070629880	0.0049341870
5198.1358703611	0.0049032811
5200.0646777341	0.0049599893
5201.9934851072	0.0048520593
5203.9222924802	0.0049220249
5205.8510998533	0.0048767766
5207.7799072263	0.0047669834
5209.7087145994	0.0048591928
5211.6375219724	0.0048661530
5213.5663293455	0.0048930375
5215.4951367185	0.0048043877
5217.4239440916	0.0048246132
5219.3527514646	0.0048035309
5221.2815588377	0.0047488757
5223.2103662107	0.0048474134
5225.1391735837	0.0046866997
5227.0679809568	0.0046534454
5228.9967883298	0.0047196439
5230.9255957029	0.0047144191
5232.8544030759	0.0047754524
5234.7832104490	0.0047266190
5236.7120178220	0.0046793087
5238.6408251951	0.0046631293
5240.5696325681	0.0046607414
5242.4984399412	0.0046753762
5244.4272473142	0.0046132170
5246.3560546873	0.0046004662
5248.2848620603	0.0045634485
5250.2136694334	0.0044522835
5252.1424768064	0.0045429128
5254.0712841795	0.0045621600
5256.0000915525	0.0045153019
5257.9288989255	0.0045464402
5259.8577062986	0.0045107389
5261.7865136716	0.0045289719
5263.7153210447	0.0044296496
5265.6441284177	0.0044785403
5267.5729357908	0.0045775468
5269.5017431638	0.0044572130
5271.4305505369	0.0044777812
5273.3593579099	0.0044553792
5275.2881652830	0.0044193277
5277.2169726560	0.0044639148
5279.1457800291	0.0044421814
5281.0745874021	0.0044491314
5283.0033947752	0.0044911848
5284.9322021482	0.0044232910
5286.8610095212	0.0043725176
5288.7898168943	0.0043702074
5290.7186242673	0.0043065222
5292.6474316404	0.0043607908
5294.5762390134	0.0043549528
5296.5050463865	0.0043262960
5298.4338537595	0.0043375716
5300.3626611326	0.0042826030
5302.2914685056	0.0042693117
5304.2202758787	0.0042846799
5306.1490832517	0.0043106452
5308.0778906248	0.0042444025
5310.0066979978	0.0042582587
5311.9355053709	0.0042356644
5313.8643127439	0.0042159595
5315.7931201169	0.0042778137
5317.7219274900	0.0041998299
5319.6507348630	0.0042997170
5321.5795422361	0.0042988509
5323.5083496091	0.0041722511
5325.4371569822	0.0041831294
5327.3659643552	0.0041375495
5329.2947717283	0.0041224947
5331.2235791013	0.0040727528
5333.1523864744	0.0040200939
5335.0811938474	0.0041046781
5337.0100012205	0.0041256612
5338.9388085935	0.0039819647
5340.8676159666	0.0040287441
5342.7964233396	0.0040843794
5344.7252307126	0.0039143749
5346.6540380857	0.0038737804
5348.5828454587	0.0039396137
5350.5116528318	0.0040221005
5352.4404602048	0.0040090699
5354.3692675779	0.0039416184
5356.2980749509	0.0039565237
5358.2268823240	0.0040042391
5360.1556896970	0.0040276423
5362.0844970701	0.0039956099
5364.0133044431	0.0039842692
5365.9421118162	0.0039663692
5367.8709191892	0.0039811656
5369.7997265623	0.0039872751
5371.7285339353	0.0039521889
5373.6573413083	0.0038677934
5375.5861486814	0.0038189124
5377.5149560544	0.0038697582
5379.4437634275	0.0038752169
5381.3725708005	0.0038844431
5383.3013781736	0.0038492451
5385.2301855466	0.0038199564
5387.1589929197	0.0038070455
5389.0878002927	0.0038643715
5391.0166076658	0.0038634795
5392.9454150388	0.0037138546
5394.8742224119	0.0037530884
5396.8030297849	0.0037338007
5398.7318371580	0.0037558572
5400.6606445310	0.0038157869
5402.5894519041	0.0037188460
5404.5182592771	0.0037732525
5406.4470666501	0.0037913914
5408.3758740232	0.0037170469
5410.3046813962	0.0037446078
5412.2334887693	0.0037805489
5414.1622961423	0.0036068936
5416.0911035154	0.0036012628
5418.0199108884	0.0037795482
5419.9487182615	0.0036857892
5421.8775256345	0.0036640102
5423.8063330076	0.0036773533
5425.7351403806	0.0036783111
5427.6639477537	0.0036660726
5429.5927551267	0.0035273167
5431.5215624998	0.0036008880
5433.4503698728	0.0035984805
5435.3791772458	0.0034538805
5437.3079846189	0.0035469620
5439.2367919919	0.0035360898
5441.1655993650	0.0034049496
5443.0944067380	0.0034840144
5445.0232141111	0.0035233675
5446.9520214841	0.0034882925
5448.8808288572	0.0034768959
5450.8096362302	0.0034789955
5452.7384436033	0.0035396437
5454.6672509763	0.0034983829
5456.5960583494	0.0034579854
5458.5248657224	0.0034980285
5460.4536730955	0.0034290496
5462.3824804685	0.0033632361
5464.3112878415	0.0034211706
5466.2400952146	0.0034019826
5468.1689025876	0.0034253590
5470.0977099607	0.0034301956
5472.0265173337	0.0033254749
5473.9553247068	0.0034386443
5475.8841320798	0.0033950943
5477.8129394529	0.0033320361
5479.7417468259	0.0034472067
5481.6705541990	0.0033493815
5483.5993615720	0.0033353083
5485.5281689451	0.0033903781
5487.4569763181	0.0033556302
5489.3857836912	0.0033030945
5491.3145910642	0.0032952477
5493.2433984372	0.0032985003
5495.1722058103	0.0032947112
5497.1010131833	0.0033351560
5499.0298205564	0.0032725744
5500.9586279294	0.0032831100
5502.8874353025	0.0033644796
5504.8162426755	0.0033080440
5506.7450500486	0.0032067769
5508.6738574216	0.0032742308
5510.6026647947	0.0032812324
5512.5314721677	0.0031672888
5514.4602795408	0.0032259282
5516.3890869138	0.0031706651
5518.3178942869	0.0031821923
5520.2467016599	0.0032107972
5522.1755090330	0.0030845697
5524.1043164060	0.0031246021
5526.0331237790	0.0031483974
5527.9619311521	0.0031855300
5529.8907385251	0.0031925747
5531.8195458982	0.0031100628
5533.7483532712	0.0030964017
5535.6771606443	0.0031434190
5537.6059680173	0.0030980799
5539.5347753904	0.0030627530
5541.4635827634	0.0031743627
5543.3923901365	0.0031299314
5545.3211975095	0.0031066793
5547.2500048826	0.0030498113
5549.1788122556	0.0030245194
5551.1076196287	0.0031535090
5553.0364270017	0.0030631036
5554.9652343747	0.0031093056
5556.8940417478	0.0031392151
5558.8228491208	0.0030187871
5560.7516564939	0.0030398788
5562.6804638669	0.0030065018
5564.6092712400	0.0030005032
5566.5380786130	0.0029780357
5568.4668859861	0.0029900928
5570.3956933591	0.0030961705
5572.3245007322	0.0030674012
5574.2533081052	0.0029926570
5576.1821154783	0.0029782080
5578.1109228513	0.0029975621
5580.0397302244	0.0029442217
5581.9685375974	0.0029368242
5583.8973449704	0.0030078469
5585.8261523435	0.0029186294
5587.7549597165	0.0029105558
5589.6837670896	0.0029187582
5591.6125744626	0.0028509074
5593.5413818357	0.0029418655
5595.4701892087	0.0029119495
5597.3989965818	0.0029005059
5599.3278039548	0.0029345173
5601.2566113279	0.0028666505
5603.1854187009	0.0029054773
5605.1142260740	0.0028702761
5607.0430334470	0.0028786014
5608.9718408201	0.0028817095
5610.9006481931	0.0027907961
5612.8294555661	0.0028160941
5614.7582629392	0.0028263996
5616.6870703122	0.0028733290
5618.6158776853	0.0028576371
5620.5446850583	0.0028025075
5622.4734924314	0.0028534196
5624.4022998044	0.0028060030
5626.3311071775	0.0027574203
5628.2599145505	0.0027418914
5630.1887219236	0.0026985356
5632.1175292966	0.0027562676
5634.0463366697	0.0028117611
5635.9751440427	0.0027862140
5637.9039514158	0.0027356020
5639.8327587888	0.0027105738
5641.7615661619	0.0027085142
5643.6903735349	0.0026308277
5645.6191809079	0.0026471154
5647.5479882810	0.0027053137
5649.4767956540	0.0027024182
5651.4056030271	0.0027573104
5653.3344104001	0.0026671686
5655.2632177732	0.0026382613
5657.1920251462	0.0026873196
5659.1208325193	0.0026213764
5661.0496398923	0.0026907611
5662.9784472654	0.0026684538
5664.9072546384	0.0025744429
5666.8360620115	0.0026132213
5668.7648693845	0.0025850586
5670.6936767576	0.0025691949
5672.6224841306	0.0026606773
5674.5512915036	0.0026890547
5676.4800988767	0.0025606777
5678.4089062497	0.0025638561
5680.3377136228	0.0026750225
5682.2665209958	0.0025641350
5684.1953283689	0.0025207340
5686.1241357419	0.0025632128
5688.0529431150	0.0025130981
5689.9817504880	0.0025880511
5691.9105578611	0.0025742357
5693.8393652341	0.0024742833
5695.7681726072	0.0025105644
5697.6969799802	0.0025190900
5699.6257873533	0.0025002928
5701.5545947263	0.0024679801
5703.4834020993	0.0024285833
5705.4122094724	0.0024435881
5707.3410168454	0.0024877125
5709.2698242185	0.0024914269
5711.1986315915	0.0024910567
5713.1274389646	0.0024994859
5715.0562463376	0.0024592888
5716.9850537107	0.0024592993
5718.9138610837	0.0024186166
5720.8426684568	0.0024213574
5722.7714758298	0.0024908187
5724.7002832029	0.0024132428
5726.6290905759	0.0023706737
5728.5578979490	0.0023918727
5730.4867053220	0.0023673887
5732.4155126950	0.0024412037
5734.3443200681	0.0024801809
5736.2731274411	0.0023114993
5738.2019348142	0.0022597974
5740.1307421872	0.0022945921
5742.0595495603	0.0022738264
5743.9883569333	0.0023259153
5745.9171643064	0.0023045153
5747.8459716794	0.0022973698
5749.7747790525	0.0023028832
5751.7035864255	0.0023540994
5753.6323937986	0.0023920247
5755.5612011716	0.0022768145
5757.4900085447	0.0023364935
5759.4188159177	0.0023301132
5761.3476232907	0.0022296554
5763.2764306638	0.0022787144
5765.2052380368	0.0022581052
5767.1340454099	0.0022509599
5769.0628527829	0.0022620654
5770.9916601560	0.0022455654
5772.9204675290	0.0022731144
5774.8492749021	0.0022122490
5776.7780822751	0.0021782108
5778.7068896482	0.0022705747
5780.6356970212	0.0022467172
5782.5645043943	0.0022162709
5784.4933117673	0.0022308785
5786.4221191404	0.0021835074
5788.3509265134	0.0021625399
5790.2797338865	0.0021457169
5792.2085412595	0.0021492231
5794.1373486325	0.0021398407
5796.0661560056	0.0021846467
5797.9949633786	0.0021974589
5799.9237707517	0.0021394857
5801.8525781247	0.0021423884
5803.7813854978	0.0021261806
5805.7101928708	0.0021331408
5807.6390002439	0.0021023247
5809.5678076169	0.0021229540
5811.4966149900	0.0021377443
5813.4254223630	0.0021289028
5815.3542297361	0.0021548923
5817.2830371091	0.0020764396
5819.2118444822	0.0020968646
5821.1406518552	0.0020682965
5823.0694592282	0.0020682607
5824.9982666013	0.0020719850
5826.9270739743	0.0019783620
5828.8558813474	0.0020839341
5830.7846887204	0.0020777639
5832.7134960935	0.0020190105
5834.6423034665	0.0020158433
5836.5711108396	0.0019853322
5838.4999182126	0.0020199285
5840.4287255857	0.0020113178
5842.3575329587	0.0019953945
5844.2863403318	0.0019668199
5846.2151477048	0.0019686366
5848.1439550779	0.0020002157
5850.0727624509	0.0020120062
5852.0015698239	0.0020036411
5853.9303771970	0.0019492558
5855.8591845700	0.0019146036
5857.7879919431	0.0019173987
5859.7167993161	0.0019290370
5861.6456066892	0.0019565173
5863.5744140622	0.0019518234
5865.5032214353	0.0019257705
5867.4320288083	0.0019895220
5869.3608361814	0.0019804304
5871.2896435544	0.0019409313
5873.2184509275	0.0019425015
5875.1472583005	0.0018916710
5877.0760656736	0.0018878154
5879.0048730466	0.0019074262
5880.9336804196	0.0019669961
5882.8624877927	0.0019384017
5884.7912951657	0.0018751111
5886.7201025388	0.0018618010
5888.6489099118	0.0018224467
5890.5777172849	0.0018626327
5892.5065246579	0.0019059433
5894.4353320310	0.0018683929
5896.3641394040	0.0017519755
5898.2929467771	0.0018098415
5900.2217541501	0.0019037077
5902.1505615232	0.0018608922
5904.0793688962	0.0018698355
5906.0081762693	0.0018428682
5907.9369836423	0.0018562549
5909.8657910154	0.0018392158
5911.7945983884	0.0018581450
5913.7234057614	0.0018656830
5915.6522131345	0.0017857964
5917.5810205075	0.0018127664
5919.5098278806	0.0018145328
5921.4386352536	0.0018561853
5923.3674426267	0.0018498318
5925.2962499997	0.0017920054
5927.2250573728	0.0017856945
5929.1538647458	0.0017963673
5931.0826721189	0.0018061626
5933.0114794919	0.0017557039
5934.9402868650	0.0017904709
5936.8690942380	0.0017590250
5938.7979016111	0.0017181485
5940.7267089841	0.0017534781
5942.6555163571	0.0016881751
5944.5843237302	0.0016368314
5946.5131311032	0.0016700532
5948.4419384763	0.0017036323
5950.3707458493	0.0016720392
5952.2995532224	0.0016688879
5954.2283605954	0.0016224401
5956.1571679685	0.0016398814
5958.0859753415	0.0017507741
5960.0147827146	0.0016679347
5961.9435900876	0.0016091876
5963.8723974607	0.0016712120
5965.8012048337	0.0016577432
5967.7300122068	0.0016365035
5969.6588195798	0.0016924868
5971.5876269528	0.0017086910
5973.5164343259	0.0016623855
5975.4452416989	0.0016496008
5977.3740490720	0.0016584441
5979.3028564450	0.0016345957
5981.2316638181	0.0016263317
5983.1604711911	0.0016227597
5985.0892785642	0.0015722921
5987.0180859372	0.0016008390
5988.9468933103	0.0016240436
5990.8757006833	0.0016551940
5992.8045080564	0.0016753888
5994.7333154294	0.0016288504
5996.6621228025	0.0016304749
5998.5909301755	0.0015584002
6000.5197375485	0.0015742031
