399.2631262207	0.0001645689
401.1919335938	0.0004666881
403.1207409668	0.0005163046
405.0495483398	0.0001103266
406.9783557129	0.0006222012
408.9071630859	0.0004838908
410.8359704590	-0.0000347809
412.7647778320	0.0003309129
414.6935852051	0.0003365987
416.6223925781	0.0004898574
418.5511999512	0.0003205824
420.4800073242	0.0004468181
422.4088146973	0.0004760717
424.3376220703	-0.0000704951
426.2664294434	0.0004749692
428.1952368164	0.0005575794
430.1240441895	0.0002056796
432.0528515625	0.0003083704
433.9816589355	0.0005723346
435.9104663086	0.0004741572
437.8392736816	0.0002021448
439.7680810547	0.0005484993
441.6968884277	0.0002664264
443.6256958008	0.0003165720
445.5545031738	0.0005080824
447.4833105469	0.0003028634
449.4121179199	0.0006113321
451.3409252930	0.0002335389
453.2697326660	-0.0001640850
455.1985400391	0.0001305465
457.1273474121	0.0005428494
459.0561547852	0.0004225278
460.9849621582	0.0002834651
462.9137695313	0.0003436135
464.8425769043	0.0002361398
466.7713842773	0.0004245955
468.7001916504	0.0002064440
470.6289990234	0.0001436932
472.5578063965	-0.0000611947
474.4866137695	0.0002484072
476.4154211426	0.0008412832
478.3442285156	0.0000779266
480.2730358887	0.0001335154
482.2018432617	0.0000948417
484.1306506348	-0.0001827282
486.0594580078	0.0006258049
487.9882653809	0.0003192357
489.9170727539	0.0001422107
491.8458801270	0.0003975260
493.7746875000	0.0001141029
495.7034948730	-0.0000082288
497.6323022461	0.0002785270
499.5611096191	0.0001852644
501.4899169922	-0.0000336938
503.4187243652	0.0001968719
505.3475317383	0.0000908819
507.2763391113	0.0001779139
509.2051464844	0.0003735131
511.1339538574	-0.0000484098
513.0627612305	0.0003301948
514.9915686035	0.0005262545
516.9203759766	0.0000355023
518.8491833496	0.0004753608
520.7779907227	0.0006522787
522.7067980957	0.0001796815
524.6356054688	0.0000064095
526.5644128418	0.0000317471
528.4932202148	0.0001923656
530.4220275879	0.0003399210
532.3508349609	0.0001764221
534.2796423340	0.0000001370
536.2084497070	0.0001260894
538.1372570801	0.0002912499
540.0660644531	0.0003047229
541.9948718262	0.0002507597
543.9236791992	0.0004149522
545.8524865723	0.0005530263
547.7812939453	0.0000364022
549.7101013184	-0.0000007972
551.6389086914	0.0004105053
553.5677160645	-0.0000766448
555.4965234375	-0.0000971426
557.4253308105	0.0003107326
559.3541381836	0.0002240271
561.2829455566	-0.0000735362
563.2117529297	0.0000315503
565.1405603027	0.0003440351
567.0693676758	-0.0000558102
568.9981750488	0.0003553587
570.9269824219	0.0004255935
572.8557897949	-0.0000973628
574.7845971680	-0.0000289333
576.7134045410	-0.0003585427
578.6422119141	-0.0001102247
580.5710192871	0.0002539598
582.4998266602	0.0002606960
584.4286340332	0.0001155988
586.3574414063	0.0000963762
588.2862487793	0.0002794293
590.2150561523	0.0000489782
592.1438635254	0.0002093409
594.0726708984	0.0003115566
596.0014782715	0.0001438361
597.9302856445	0.0000352369
599.8590930176	-0.0000949894
601.7879003906	0.0003933670
603.7167077637	0.0003758192
605.6455151367	-0.0002078549
607.5743225098	-0.0000118205
609.5031298828	0.0002858975
611.4319372559	0.0002012662
613.3607446289	-0.0001692208
615.2895520020	-0.0003796436
617.2183593750	-0.0001282518
619.1471667480	-0.0000527429
621.0759741211	0.0003716051
623.0047814941	0.0000662150
624.9335888672	-0.0001160933
626.8623962402	0.0001203639
628.7912036133	-0.0002482274
630.7200109863	0.0003023315
632.6488183594	0.0005999714
634.5776257324	0.0004815030
636.5064331055	0.0005326521
638.4352404785	-0.0000180924
640.3640478516	0.0003186775
642.2928552246	0.0008302235
644.2216625977	0.0009236799
646.1504699707	0.0009891692
648.0792773438	0.0007189797
650.0080847168	0.0009788285
651.9368920898	0.0009865051
653.8656994629	0.0009053288
655.7945068359	0.0013224344
657.7233142090	0.0012040695
659.6521215820	0.0009907209
661.5809289551	0.0010981439
663.5097363281	0.0012598933
665.4385437012	0.0013491726
667.3673510742	0.0011448123
669.2961584473	0.0011941638
671.2249658203	0.0013525441
673.1537731934	0.0013220026
675.0825805664	0.0014559398
677.0113879395	0.0013098938
678.9401953125	0.0015077867
680.8690026855	0.0018841967
682.7978100586	0.0016538703
684.7266174316	0.0015759296
686.6554248047	0.0014091695
688.5842321777	0.0013556455
690.5130395508	0.0016893945
692.4418469238	0.0020252718
694.3706542969	0.0021411530
696.2994616699	0.0020371184
698.2282690430	0.0023169897
700.1570764160	0.0026425142
702.0858837891	0.0026076729
704.0146911621	0.0023397265
705.9434985352	0.0021463083
707.8723059082	0.0018170407
709.8011132813	0.0013349701
711.7299206543	0.0011984186
713.6587280273	0.0007757498
715.5875354004	0.0001499871
717.5163427734	-0.0000577734
719.4451501465	0.0001052576
721.3739575195	0.0002676843
723.3027648926	0.0002087861
725.2315722656	-0.0000562835
727.1603796387	-0.0001344529
729.0891870117	0.0003276232
731.0179943848	0.0003902962
732.9468017578	0.0002345147
734.8756091309	0.0002601998
736.8044165039	0.0002214589
738.7332238770	0.0003343410
740.6620312500	0.0000168113
742.5908386230	0.0001602600
744.5196459961	0.0005609539
746.4484533691	0.0000896306
748.3772607422	0.0001879993
750.3060681152	0.0003926860
752.2348754883	0.0001869318
754.1636828613	0.0003315865
756.0924902344	0.0002983062
758.0212976074	0.0001876187
759.9501049805	0.0001788074
761.8789123535	0.0003968229
763.8077197266	0.0005227052
765.7365270996	0.0003584621
767.6653344727	0.0002266784
769.5941418457	0.0000485937
771.5229492188	0.0003821039
773.4517565918	0.0004551263
775.3805639648	0.0003227055
777.3093713379	0.0005124421
779.2381787109	0.0001766537
781.1669860840	0.0002900016
783.0957934570	0.0002332695
785.0246008301	0.0002913562
786.9534082031	0.0007829403
788.8822155762	0.0003076579
790.8110229492	0.0002298201
792.7398303223	0.0002236339
794.6686376953	0.0002962014
796.5974450684	0.0005813716
798.5262524414	0.0003822824
800.4550598145	0.0004694204
802.3838671875	0.0004104397
804.3126745605	0.0003960069
806.2414819336	0.0003887299
808.1702893066	0.0004024140
810.0990966797	0.0002882776
812.0279040527	0.0003308543
813.9567114258	0.0007714855
815.8855187988	0.0002280333
817.8143261719	0.0000479247
819.7431335449	0.0000636055
821.6719409180	0.0000460521
823.6007482910	0.0005580158
825.5295556641	0.0001872676
827.4583630371	0.0002949660
829.3871704102	0.0007021530
831.3159777832	0.0006249347
833.2447851563	0.0008503675
835.1735925293	0.0008688836
837.1023999023	0.0007237269
839.0312072754	0.0009433683
840.9600146484	0.0011808241
842.8888220215	0.0008311991
844.8176293945	0.0007761462
846.7464367676	0.0007637704
848.6752441406	0.0006862278
850.6040515137	0.0008833826
852.5328588867	0.0004219253
854.4616662598	0.0002673824
856.3904736328	0.0004379046
858.3192810059	0.0004864969
860.2480883789	0.0005592812
862.1768957520	0.0004069762
864.1057031250	0.0004239915
866.0345104980	0.0002625026
867.9633178711	0.0000883412
869.8921252441	0.0003392496
871.8209326172	0.0005161939
873.7497399902	0.0004149819
875.6785473633	0.0002390333
877.6073547363	0.0003714385
879.5361621094	0.0006348319
881.4649694824	0.0003791971
883.3937768555	0.0002694250
885.3225842285	0.0005049743
887.2513916016	0.0006364631
889.1801989746	0.0006410914
891.1090063477	0.0003745586
893.0378137207	0.0003185748
894.9666210938	0.0002176631
896.8954284668	0.0005474059
898.8242358398	0.0008311740
900.7530432129	0.0003759945
902.6818505859	0.0006669712
904.6106579590	0.0004171265
906.5394653320	0.0001738547
908.4682727051	0.0006319055
910.3970800781	0.0003002733
912.3258874512	0.0004010072
914.2546948242	0.0005558591
916.1835021973	0.0005131479
918.1123095703	0.0007300423
920.0411169434	0.0006513754
921.9699243164	0.0008662238
923.8987316895	0.0008935294
925.8275390625	0.0007890565
927.7563464355	0.0012022456
929.6851538086	0.0010630523
931.6139611816	0.0007434325
933.5427685547	0.0008872265
935.4715759277	0.0010104966
937.4003833008	0.0012681016
939.3291906738	0.0012441340
941.2579980469	0.0013159312
943.1868054199	0.0013739713
945.1156127930	0.0011216830
947.0444201660	0.0015369882
948.9732275391	0.0014907328
950.9020349121	0.0011145159
952.8308422852	0.0012693431
954.7596496582	0.0011702005
956.6884570313	0.0010180954
958.6172644043	0.0010670740
960.5460717773	0.0012022606
962.4748791504	0.0011566116
964.4036865234	0.0011695523
966.3324938965	0.0012911747
968.2613012695	0.0014477229
970.1901086426	0.0015643425
972.1189160156	0.0014587190
974.0477233887	0.0015354268
975.9765307617	0.0013934509
977.9053381348	0.0016501260
979.8341455078	0.0020626001
981.7629528809	0.0018173328
983.6917602539	0.0019411333
985.6205676270	0.0022796073
987.5493750000	0.0026244076
989.4781823730	0.0027526889
991.4069897461	0.0030257925
993.3357971191	0.0034735508
995.2646044922	0.0036498946
997.1934118652	0.0041365935
999.1222192383	0.0041197697
1001.0510266113	0.0042007240
1002.9798339844	0.0047772485
1004.9086413574	0.0050905058
1006.8374487305	0.0054906253
1008.7662561035	0.0057008290
1010.6950634766	0.0060040383
1012.6238708496	0.0063497145
1014.5526782227	0.0065499693
1016.4814855957	0.0067603108
1018.4102929688	0.0071050590
1020.3391003418	0.0075759739
1022.2679077148	0.0077349162
1024.1967150879	0.0079386486
1026.1255224609	0.0083185676
1028.0543298340	0.0087596644
1029.9831372070	0.0087859351
1031.9119445801	0.0088159209
1033.8407519531	0.0092269704
1035.7695593262	0.0093441047
1037.6983666992	0.0096046068
1039.6271740723	0.0094065312
1041.5559814453	0.0091806753
1043.4847888184	0.0093457606
1045.4135961914	0.0089095328
1047.3424035645	0.0088917520
1049.2712109375	0.0088871121
1051.2000183105	0.0086529301
1053.1288256836	0.0087964172
1055.0576330566	0.0083438233
1056.9864404297	0.0079332907
1058.9152478027	0.0078869145
1060.8440551758	0.0076526096
1062.7728625488	0.0073826266
1064.7016699219	0.0069684349
1066.6304772949	0.0069922274
1068.5592846680	0.0067627905
1070.4880920410	0.0061857244
1072.4168994141	0.0063030696
1074.3457067871	0.0058516520
1076.2745141602	0.0054472545
1078.2033215332	0.0053862864
1080.1321289062	0.0047169058
1082.0609362793	0.0045952583
1083.9897436523	0.0045554219
1085.9185510254	0.0042038402
1087.8473583984	0.0041014478
1089.7761657715	0.0041285651
1091.7049731445	0.0039124480
1093.6337805176	0.0036108810
1095.5625878906	0.0037862600
1097.4913952637	0.0034872091
1099.4202026367	0.0030866954
1101.3490100098	0.0032746224
1103.2778173828	0.0032251342
1105.2066247559	0.0031514908
1107.1354321289	0.0031553586
1109.0642395019	0.0030254941
1110.9930468750	0.0029951618
1112.9218542480	0.0030126357
1114.8506616211	0.0030469694
1116.7794689941	0.0030403584
1118.7082763672	0.0028469816
1120.6370837402	0.0029556695
1122.5658911133	0.0030337649
1124.4946984863	0.0029257829
1126.4235058594	0.0030770176
1128.3523132324	0.0029647490
1130.2811206055	0.0031896941
1132.2099279785	0.0033344510
1134.1387353516	0.0032619308
1136.0675427246	0.0036628542
1137.9963500977	0.0035829330
1139.9251574707	0.0037979139
1141.8539648437	0.0040902104
1143.7827722168	0.0041811578
1145.7115795898	0.0047514904
1147.6403869629	0.0049079414
1149.5691943359	0.0050281817
1151.4980017090	0.0053232596
1153.4268090820	0.0054749874
1155.3556164551	0.0055596000
1157.2844238281	0.0059832875
1159.2132312012	0.0063110227
1161.1420385742	0.0061352681
1163.0708459473	0.0065238867
1164.9996533203	0.0066536651
1166.9284606934	0.0065713599
1168.8572680664	0.0070156595
1170.7860754394	0.0073390771
1172.7148828125	0.0077335970
1174.6436901855	0.0078616347
1176.5724975586	0.0079681631
1178.5013049316	0.0084996037
1180.4301123047	0.0087680016
1182.3589196777	0.0089819711
1184.2877270508	0.0094717797
1186.2165344238	0.0098869037
1188.1453417969	0.0102365110
1190.0741491699	0.0106930537
1192.0029565430	0.0112573560
1193.9317639160	0.0116658416
1195.8605712891	0.0120404400
1197.7893786621	0.0126538342
1199.7181860351	0.0130592007
1201.6469934082	0.0135287363
1203.5758007812	0.0141776055
1205.5046081543	0.0148170814
1207.4334155273	0.0153873283
1209.3622229004	0.0156351440
1211.2910302734	0.0160847679
1213.2198376465	0.0165613219
1215.1486450195	0.0169941615
1217.0774523926	0.0173080191
1219.0062597656	0.0174920857
1220.9350671387	0.0179293156
1222.8638745117	0.0179744121
1224.7926818848	0.0180414058
1226.7214892578	0.0181797780
1228.6502966308	0.0181856006
1230.5791040039	0.0183421820
1232.5079113769	0.0183744803
1234.4367187500	0.0185607262
1236.3655261230	0.0185133293
1238.2943334961	0.0183589458
1240.2231408691	0.0184161738
1242.1519482422	0.0183318388
1244.0807556152	0.0182676241
1246.0095629883	0.0181688014
1247.9383703613	0.0179838762
1249.8671777344	0.0178093351
1251.7959851074	0.0177825876
1253.7247924805	0.0174825862
1255.6535998535	0.0171488784
1257.5824072266	0.0171242170
1259.5112145996	0.0167226940
1261.4400219726	0.0165408440
1263.3688293457	0.0164914951
1265.2976367187	0.0160181299
1267.2264440918	0.0158383325
1269.1552514648	0.0157114789
1271.0840588379	0.0154361976
1273.0128662109	0.0153510943
1274.9416735840	0.0149477720
1276.8704809570	0.0144529734
1278.7992883301	0.0144831408
1280.7280957031	0.0141336257
1282.6569030762	0.0136295371
1284.5857104492	0.0137388203
1286.5145178223	0.0135371024
1288.4433251953	0.0131313726
1290.3721325683	0.0129415095
1292.3009399414	0.0128504932
1294.2297473144	0.0128332581
1296.1585546875	0.0125974361
1298.0873620605	0.0125578754
1300.0161694336	0.0126676979
1301.9449768066	0.0126941325
1303.8737841797	0.0128951464
1305.8025915527	0.0130207408
1307.7313989258	0.0131295100
1309.6602062988	0.0133937560
1311.5890136719	0.0136828013
1313.5178210449	0.0138496831
1315.4466284180	0.0138969440
1317.3754357910	0.0141234910
1319.3042431640	0.0145449881
1321.2330505371	0.0149574690
1323.1618579101	0.0155202653
1325.0906652832	0.0160677731
1327.0194726562	0.0163641497
1328.9482800293	0.0168225504
1330.8770874023	0.0171896778
1332.8058947754	0.0174175203
1334.7347021484	0.0178813562
1336.6635095215	0.0180597156
1338.5923168945	0.0179841239
1340.5211242676	0.0182904974
1342.4499316406	0.0187994838
1344.3787390137	0.0189511999
1346.3075463867	0.0190041363
1348.2363537597	0.0188454241
1350.1651611328	0.0186002925
1352.0939685058	0.0187583417
1354.0227758789	0.0185545422
1355.9515832519	0.0183467641
1357.8803906250	0.0182823390
1359.8091979980	0.0178380553
1361.7380053711	0.0172619224
1363.6668127441	0.0171809904
1365.5956201172	0.0176641308
1367.5244274902	0.0173824318
1369.4532348633	0.0172117893
1371.3820422363	0.0171605274
1373.3108496094	0.0165844914
1375.2396569824	0.0167587809
1377.1684643555	0.0170269720
1379.0972717285	0.0171313304
1381.0260791015	0.0169528238
1382.9548864746	0.0168033578
1384.8836938476	0.0168763213
1386.8125012207	0.0164004825
1388.7413085937	0.0165929757
1390.6701159668	0.0175924394
1392.5989233398	0.0173708871
1394.5277307129	0.0163803846
1396.4565380859	0.0170164723
1398.3853454590	0.0170664098
1400.3141528320	0.0169310924
1402.2429602051	0.0179576613
1404.1717675781	0.0172686875
1406.1005749512	0.0173592493
1408.0293823242	0.0176169798
1409.9581896972	0.0172627568
1411.8869970703	0.0175274108
1413.8158044433	0.0170117822
1415.7446118164	0.0171907432
1417.6734191894	0.0156274661
1419.6022265625	0.0146859689
1421.5310339355	0.0161430873
1423.4598413086	0.0154744033
1425.3886486816	0.0151556907
1427.3174560547	0.0152058331
1429.2462634277	0.0142826140
1431.1750708008	0.0138718504
1433.1038781738	0.0141091850
1435.0326855469	0.0129661895
1436.9614929199	0.0112730851
1438.8903002929	0.0125019345
1440.8191076660	0.0126064513
1442.7479150390	0.0117138280
1444.6767224121	0.0120911272
1446.6055297851	0.0113636404
1448.5343371582	0.0114342440
1450.4631445312	0.0117341094
1452.3919519043	0.0119549241
1454.3207592773	0.0123762358
1456.2495666504	0.0108380653
1458.1783740234	0.0113860657
1460.1071813965	0.0143192327
1462.0359887695	0.0148821669
1463.9647961426	0.0149102919
1465.8936035156	0.0156346969
1467.8224108886	0.0173808895
1469.7512182617	0.0186844207
1471.6800256347	0.0172540992
1473.6088330078	0.0180777963
1475.5376403808	0.0201976858
1477.4664477539	0.0214333683
1479.3952551269	0.0232148543
1481.3240625000	0.0236219149
1483.2528698730	0.0249174871
1485.1816772461	0.0257295892
1487.1104846191	0.0255119316
1489.0392919922	0.0258067548
1490.9680993652	0.0259992070
1492.8969067383	0.0290582851
1494.8257141113	0.0286461785
1496.7545214843	0.0263657123
1498.6833288574	0.0292687938
1500.6121362304	0.0298861600
1502.5409436035	0.0315135047
1504.4697509765	0.0302065108
1506.3985583496	0.0236511528
1508.3273657226	0.0280431658
1510.2561730957	0.0314993337
1512.1849804687	0.0306230448
1514.1137878418	0.0327334404
1516.0425952148	0.0299401022
1517.9714025879	0.0313779488
1519.9002099609	0.0302170552
1521.8290173340	0.0272341371
1523.7578247070	0.0318758450
1525.6866320801	0.0308484100
1527.6154394531	0.0311009102
1529.5442468261	0.0335844569
1531.4730541992	0.0324384794
1533.4018615722	0.0302829407
1535.3306689453	0.0316197947
1537.2594763183	0.0332647935
1539.1882836914	0.0254838001
1541.1170910644	0.0266887546
1543.0458984375	0.0305398144
1544.9747058105	0.0294985659
1546.9035131836	0.0337583870
1548.8323205566	0.0318719670
1550.7611279297	0.0326589905
1552.6899353027	0.0322423726
1554.6187426758	0.0300461724
1556.5475500488	0.0316202417
1558.4763574218	0.0241536088
1560.4051647949	0.0256352052
1562.3339721679	0.0334615968
1564.2627795410	0.0320742652
1566.1915869140	0.0325839296
1568.1203942871	0.0323834158
1570.0492016601	0.0295785330
1571.9780090332	0.0326901935
1573.9068164062	0.0329034179
1575.8356237793	0.0272899196
1577.7644311523	0.0301105455
1579.6932385254	0.0331520736
1581.6220458984	0.0316629335
1583.5508532715	0.0323854312
1585.4796606445	0.0320047513
1587.4084680175	0.0321398750
1589.3372753906	0.0319780223
1591.2660827636	0.0319276005
1593.1948901367	0.0318375863
1595.1236975097	0.0314844623
1597.0525048828	0.0319549292
1598.9813122558	0.0317749903
1600.9101196289	0.0317016989
1602.8389270019	0.0312375538
1604.7677343750	0.0316824391
1606.6965417480	0.0312442053
1608.6253491211	0.0313403346
1610.5541564941	0.0312925279
1612.4829638672	0.0314738154
1614.4117712402	0.0316958353
1616.3405786132	0.0270936713
1618.2693859863	0.0291977972
1620.1981933593	0.0326257125
1622.1270007324	0.0298716985
1624.0558081054	0.0302270502
1625.9846154785	0.0315096453
1627.9134228515	0.0317112580
1629.8422302246	0.0315553620
1631.7710375976	0.0338165164
1633.6998449707	0.0317337364
1635.6286523437	0.0274597183
1637.5574597168	0.0315309465
1639.4862670898	0.0341231748
1641.4150744629	0.0337216407
1643.3438818359	0.0347703323
1645.2726892090	0.0323273577
1647.2014965820	0.0295537189
1649.1303039550	0.0354704559
1651.0591113281	0.0339606702
1652.9879187011	0.0245403461
1654.9167260742	0.0315873325
1656.8455334472	0.0379317254
1658.7743408203	0.0369668752
1660.7031481933	0.0380257070
1662.6319555664	0.0354047455
1664.5607629394	0.0372328274
1666.4895703125	0.0396341458
1668.4183776855	0.0358828530
1670.3471850586	0.0355835706
1672.2759924316	0.0394568257
1674.2047998047	0.0369313024
1676.1336071777	0.0362177491
1678.0624145507	0.0405949466
1679.9912219238	0.0395447612
1681.9200292968	0.0394978747
1683.8488366699	0.0334035605
1685.7776440429	0.0335785709
1687.7064514160	0.0431882292
1689.6352587890	0.0384816378
1691.5640661621	0.0416369736
1693.4928735351	0.0421301350
1695.4216809082	0.0331070647
1697.3504882812	0.0389308892
1699.2792956543	0.0351219103
1701.2081030273	0.0328461453
1703.1369104004	0.0417167656
1705.0657177734	0.0387715474
1706.9945251464	0.0391285047
1708.9233325195	0.0416803062
1710.8521398925	0.0401321761
1712.7809472656	0.0407204218
1714.7097546386	0.0384403467
1716.6385620117	0.0349600166
1718.5673693847	0.0345644504
1720.4961767578	0.0398352146
1722.4249841308	0.0405122899
1724.3537915039	0.0382053480
1726.2825988769	0.0408005863
1728.2114062500	0.0380644128
1730.1402136230	0.0384813696
1732.0690209961	0.0369599350
1733.9978283691	0.0298954714
1735.9266357421	0.0355932713
1737.8554431152	0.0383675098
1739.7842504882	0.0350527652
1741.7130578613	0.0372272581
1743.6418652343	0.0377112217
1745.5706726074	0.0376354009
1747.4994799804	0.0378154144
1749.4282873535	0.0365579873
1751.3570947265	0.0352476761
1753.2859020996	0.0382480323
1755.2147094726	0.0393319763
1757.1435168457	0.0365981683
1759.0723242187	0.0392960422
1761.0011315918	0.0372378789
1762.9299389648	0.0363618881
1764.8587463379	0.0402063988
1766.7875537109	0.0368868113
1768.7163610839	0.0370881595
1770.6451684570	0.0368205458
1772.5739758300	0.0338869691
1774.5027832031	0.0368723646
1776.4315905761	0.0382919759
1778.3603979492	0.0377525091
1780.2892053222	0.0375028588
1782.2180126953	0.0375810973
1784.1468200683	0.0374639556
1786.0756274414	0.0367944203
1788.0044348144	0.0382106155
1789.9332421875	0.0373372287
1791.8620495605	0.0343440995
1793.7908569336	0.0354464166
1795.7196643066	0.0373683460
1797.6484716796	0.0369613469
1799.5772790527	0.0365036801
1801.5060864257	0.0360461324
1803.4348937988	0.0367598161
1805.3637011718	0.0371692926
1807.2925085449	0.0368368216
1809.2213159179	0.0370285101
1811.1501232910	0.0362379327
1813.0789306640	0.0367918350
1815.0077380371	0.0369482376
1816.9365454101	0.0364694782
1818.8653527832	0.0365692452
1820.7941601562	0.0365836322
1822.7229675293	0.0367240384
1824.6517749023	0.0350416675
1826.5805822753	0.0359163955
1828.5093896484	0.0357746184
1830.4381970214	0.0342183709
1832.3670043945	0.0360921845
1834.2958117675	0.0359082595
1836.2246191406	0.0360016599
1838.1534265136	0.0356973782
1840.0822338867	0.0358341262
1842.0110412597	0.0357550308
1843.9398486328	0.0325351357
1845.8686560058	0.0343272090
1847.7974633789	0.0356778875
1849.7262707519	0.0347583145
1851.6550781250	0.0357009768
1853.5838854980	0.0349953584
1855.5126928710	0.0350655019
1857.4415002441	0.0351169668
1859.3703076171	0.0348113030
1861.2991149902	0.0349583030
1863.2279223632	0.0346551761
1865.1567297363	0.0347893089
1867.0855371093	0.0338329077
1869.0143444824	0.0327083170
1870.9431518554	0.0336855650
1872.8719592285	0.0345251933
1874.8007666015	0.0340395644
1876.7295739746	0.0342102945
1878.6583813476	0.0339975953
1880.5871887207	0.0338439792
1882.5159960937	0.0340097770
1884.4448034667	0.0334834009
1886.3736108398	0.0338911414
1888.3024182128	0.0331904367
1890.2312255859	0.0327177942
1892.1600329589	0.0335921720
1894.0888403320	0.0330708101
1896.0176477050	0.0330744609
1897.9464550781	0.0331941172
1899.8752624511	0.0329583511
1901.8040698242	0.0330525301
1903.7328771972	0.0329285637
1905.6616845703	0.0330280662
1907.5904919433	0.0326340087
1909.5192993164	0.0324899033
1911.4481066894	0.0323546082
1913.3769140625	0.0324184187
1915.3057214355	0.0327983536
1917.2345288085	0.0315040946
1919.1633361816	0.0315563157
1921.0921435546	0.0323604345
1923.0209509277	0.0316575319
1924.9497583007	0.0320385695
1926.8785656738	0.0320791230
1928.8073730468	0.0319181234
1930.7361804199	0.0321403779
1932.6649877929	0.0316933692
1934.5937951660	0.0318367481
1936.5226025390	0.0317724422
1938.4514099121	0.0317613818
1940.3802172851	0.0316478051
1942.3090246582	0.0310595408
1944.2378320312	0.0314225703
1946.1666394042	0.0315871611
1948.0954467773	0.0313253924
1950.0242541503	0.0314102471
1951.9530615234	0.0314471461
1953.8818688964	0.0313088819
1955.8106762695	0.0312072728
1957.7394836425	0.0311764646
1959.6682910156	0.0310717411
1961.5970983886	0.0311829746
1963.5259057617	0.0312686227
1965.4547131347	0.0309625790
1967.3835205078	0.0306811668
1969.3123278808	0.0309083275
1971.2411352539	0.0309794098
1973.1699426269	0.0307086445
1975.0987499999	0.0307945646
1977.0275573730	0.0307436846
1978.9563647460	0.0306473766
1980.8851721191	0.0306288172
1982.8139794921	0.0304609742
1984.7427868652	0.0304589272
1986.6715942382	0.0304671042
1988.6004016113	0.0304431394
1990.5292089843	0.0301234536
1992.4580163574	0.0298604183
1994.3868237304	0.0301186386
1996.3156311035	0.0300607514
1998.2444384765	0.0297790281
2000.1732458496	0.0298369788
2002.1020532226	0.0299022384
2004.0308605956	0.0297760628
2005.9596679687	0.0296285860
2007.8884753417	0.0296712369
2009.8172827148	0.0295985192
2011.7460900878	0.0293728001
2013.6748974609	0.0294541493
2015.6037048339	0.0292855091
2017.5325122070	0.0289540403
2019.4613195800	0.0290711503
2021.3901269531	0.0290651359
2023.3189343261	0.0289574675
2025.2477416992	0.0289091580
2027.1765490722	0.0288318768
2029.1053564453	0.0288082510
2031.0341638183	0.0287064239
2032.9629711914	0.0287090577
2034.8917785644	0.0286187083
2036.8205859374	0.0285000429
2038.7493933105	0.0284701809
2040.6782006835	0.0282392018
2042.6070080566	0.0281514823
2044.5358154296	0.0281007066
2046.4646228027	0.0280759949
2048.3934301757	0.0281316340
2050.3222375488	0.0280409940
2052.2510449218	0.0280482769
2054.1798522949	0.0279919319
2056.1086596679	0.0279224962
2058.0374670410	0.0278163627
2059.9662744140	0.0276663899
2061.8950817871	0.0276982225
2063.8238891601	0.0275860969
2065.7526965331	0.0274730325
2067.6815039062	0.0274871569
2069.6103112792	0.0274623446
2071.5391186523	0.0272506904
2073.4679260253	0.0271551330
2075.3967333984	0.0272260457
2077.3255407714	0.0269860774
2079.2543481445	0.0269842371
2081.1831555175	0.0270279050
2083.1119628906	0.0268942825
2085.0407702636	0.0269454196
2086.9695776367	0.0267937072
2088.8983850097	0.0266626664
2090.8271923828	0.0266337506
2092.7559997558	0.0266075283
2094.6848071288	0.0266668610
2096.6136145019	0.0265927184
2098.5424218749	0.0265364554
2100.4712292480	0.0265568122
2102.4000366210	0.0264609065
2104.3288439941	0.0263698809
2106.2576513671	0.0262259990
2108.1864587402	0.0261221547
2110.1152661132	0.0263190269
2112.0440734863	0.0262452848
2113.9728808593	0.0260786992
2115.9016882324	0.0261266511
2117.8304956054	0.0260090940
2119.7593029785	0.0259415396
2121.6881103515	0.0259066951
2123.6169177245	0.0259096045
2125.5457250976	0.0258158185
2127.4745324706	0.0257116649
2129.4033398437	0.0257797129
2131.3321472167	0.0257269014
2133.2609545898	0.0256667882
2135.1897619628	0.0255461242
2137.1185693359	0.0255800486
2139.0473767089	0.0256136507
2140.9761840820	0.0254216157
2142.9049914550	0.0254726652
2144.8337988281	0.0254998468
2146.7626062011	0.0253984220
2148.6914135742	0.0254410207
2150.6202209472	0.0254202746
2152.5490283203	0.0252799410
2154.4778356933	0.0252769887
2156.4066430663	0.0252250172
2158.3354504394	0.0251058079
2160.2642578124	0.0251235999
2162.1930651855	0.0250966065
2164.1218725585	0.0250219647
2166.0506799316	0.0249436609
2167.9794873046	0.0249049906
2169.9082946777	0.0248580761
2171.8371020507	0.0249026902
2173.7659094238	0.0249470677
2175.6947167968	0.0248402562
2177.6235241699	0.0247553736
2179.5523315429	0.0246984847
2181.4811389160	0.0248316787
2183.4099462890	0.0248094760
2185.3387536620	0.0246548429
2187.2675610351	0.0247052386
2189.1963684081	0.0246974900
2191.1251757812	0.0246366784
2193.0539831542	0.0245816000
2194.9827905273	0.0245398022
2196.9115979003	0.0244745389
2198.8404052734	0.0245077945
2200.7692126464	0.0244150497
2202.6980200195	0.0243409164
2204.6268273925	0.0244552307
2206.5556347656	0.0242931023
2208.4844421386	0.0242549330
2210.4132495117	0.0243721660
2212.3420568847	0.0243399553
2214.2708642577	0.0241301060
2216.1996716308	0.0241157413
2218.1284790038	0.0242167097
2220.0572863769	0.0239731558
2221.9860937499	0.0239502005
2223.9149011230	0.0239101388
2225.8437084960	0.0238796230
2227.7725158691	0.0240000859
2229.7013232421	0.0238821115
2231.6301306152	0.0237461962
2233.5589379882	0.0237090401
2235.4877453613	0.0238136463
2237.4165527343	0.0236890204
2239.3453601074	0.0235357899
2241.2741674804	0.0235006884
2243.2029748534	0.0234731995
2245.1317822265	0.0234846808
2247.0605895995	0.0233219117
2248.9893969726	0.0234199241
2250.9182043456	0.0234745741
2252.8470117187	0.0233408343
2254.7758190917	0.0232944638
2256.7046264648	0.0231798515
2258.6334338378	0.0230994448
2260.5622412109	0.0230234973
2262.4910485839	0.0230626315
2264.4198559570	0.0230703559
2266.3486633300	0.0229457803
2268.2774707031	0.0228933133
2270.2062780761	0.0229437277
2272.1350854491	0.0228941701
2274.0638928222	0.0227961913
2275.9927001952	0.0228133537
2277.9215075683	0.0227576271
2279.8503149413	0.0227615479
2281.7791223144	0.0226928908
2283.7079296874	0.0226338133
2285.6367370605	0.0226830542
2287.5655444335	0.0226186272
2289.4943518066	0.0224999152
2291.4231591796	0.0222767554
2293.3519665527	0.0222997852
2295.2807739257	0.0223387815
2297.2095812988	0.0222026184
2299.1383886718	0.0221800096
2301.0671960449	0.0220377501
2302.9960034179	0.0220048688
2304.9248107909	0.0219639167
2306.8536181640	0.0215982683
2308.7824255370	0.0213344134
2310.7112329101	0.0213039238
2312.6400402831	0.0211362820
2314.5688476562	0.0208119154
2316.4976550292	0.0206380859
2318.4264624023	0.0204068050
2320.3552697753	0.0200258009
2322.2840771484	0.0198355615
2324.2128845214	0.0195928831
2326.1416918945	0.0192403328
2328.0704992675	0.0190390423
2329.9993066406	0.0188087039
2331.9281140136	0.0186890326
2333.8569213866	0.0185640901
2335.7857287597	0.0184398275
2337.7145361327	0.0185330547
2339.6433435058	0.0184043068
2341.5721508788	0.0184233412
2343.5009582519	0.0187563375
2345.4297656249	0.0191287659
2347.3585729980	0.0199405551
2349.2873803710	0.0204877108
2351.2161877441	0.0198486764
2353.1449951171	0.0188867785
2355.0738024902	0.0181709882
2357.0026098632	0.0174473748
2358.9314172363	0.0171843749
2360.8602246093	0.0171342567
2362.7890319823	0.0169807728
2364.7178393554	0.0170699134
2366.6466467284	0.0172514357
2368.5754541015	0.0175574645
2370.5042614745	0.0180009436
2372.4330688476	0.0185486749
2374.3618762206	0.0189821795
2376.2906835937	0.0193810426
2378.2194909667	0.0199758708
2380.1482983398	0.0202506706
2382.0771057128	0.0203765389
2384.0059130859	0.0205609314
2385.9347204589	0.0206472091
2387.8635278320	0.0207156427
2389.7923352050	0.0206598528
2391.7211425780	0.0206163581
2393.6499499511	0.0205741264
2395.5787573241	0.0204457399
2397.5075646972	0.0204146635
2399.4363720702	0.0204008427
2401.3651794433	0.0203687586
2403.2939868163	0.0202944633
2405.2227941894	0.0201293863
2407.1516015624	0.0201486796
2409.0804089355	0.0202725045
2411.0092163085	0.0202596821
2412.9380236816	0.0200979840
2414.8668310546	0.0199889131
2416.7956384277	0.0200539343
2418.7244458007	0.0200418830
2420.6532531738	0.0199932195
2422.5820605468	0.0198980980
2424.5108679198	0.0199915580
2426.4396752929	0.0200660378
2428.3684826659	0.0198116172
2430.2972900390	0.0198284462
2432.2260974120	0.0198293310
2434.1549047851	0.0197960399
2436.0837121581	0.0197441932
2438.0125195312	0.0195884705
2439.9413269042	0.0196805708
2441.8701342773	0.0195828788
2443.7989416503	0.0195483565
2445.7277490234	0.0195343830
2447.6565563964	0.0193790253
2449.5853637695	0.0194441266
2451.5141711425	0.0194469914
2453.4429785155	0.0193506405
2455.3717858886	0.0192290060
2457.3005932616	0.0192382336
2459.2294006347	0.0192833617
2461.1582080077	0.0192284491
2463.0870153808	0.0191557743
2465.0158227538	0.0191685688
2466.9446301269	0.0191893186
2468.8734374999	0.0189662538
2470.8022448730	0.0190487169
2472.7310522460	0.0192144308
2474.6598596191	0.0190356653
2476.5886669921	0.0189145394
2478.5174743652	0.0189087018
2480.4462817382	0.0189683847
2482.3750891112	0.0188857540
2484.3038964843	0.0188895725
2486.2327038573	0.0188788027
2488.1615112304	0.0187180676
2490.0903186034	0.0188821983
2492.0191259765	0.0188522134
2493.9479333495	0.0186434686
2495.8767407226	0.0187026486
2497.8055480956	0.0186460353
2499.7343554687	0.0185940266
2501.6631628417	0.0185651183
2503.5919702148	0.0184897333
2505.5207775878	0.0186165534
2507.4495849609	0.0185487755
2509.3783923339	0.0183746796
2511.3071997069	0.0184385963
2513.2360070800	0.0183801576
2515.1648144530	0.0183543712
2517.0936218261	0.0183451325
2519.0224291991	0.0182110909
2520.9512365722	0.0182926543
2522.8800439452	0.0182805266
2524.8088513183	0.0181375034
2526.7376586913	0.0181545541
2528.6664660644	0.0180746149
2530.5952734374	0.0179950036
2532.5240808105	0.0181032773
2534.4528881835	0.0181562863
2536.3816955566	0.0180193558
2538.3105029296	0.0179118626
2540.2393103027	0.0179025792
2542.1681176757	0.0179024935
2544.0969250487	0.0179477967
2546.0257324218	0.0178661346
2547.9545397948	0.0177232958
2549.8833471679	0.0176627282
2551.8121545409	0.0177438222
2553.7409619140	0.0178034250
2555.6697692870	0.0175843947
2557.5985766601	0.0176688395
2559.5273840331	0.0177314244
2561.4561914062	0.0174592137
2563.3849987792	0.0175408293
2565.3138061523	0.0175548289
2567.2426135253	0.0174492747
2569.1714208984	0.0174647756
2571.1002282714	0.0173558909
2573.0290356444	0.0172718316
2574.9578430175	0.0173369423
2576.8866503905	0.0174763221
2578.8154577636	0.0174035039
2580.7442651366	0.0172875803
2582.6730725097	0.0172417164
2584.6018798827	0.0170949511
2586.5306872558	0.0170725249
2588.4594946288	0.0170742646
2590.3883020019	0.0170476884
2592.3171093749	0.0170595478
2594.2459167480	0.0169595405
2596.1747241210	0.0168991350
2598.1035314941	0.0168541558
2600.0323388671	0.0167684071
2601.9611462401	0.0168100335
2603.8899536132	0.0168586299
2605.8187609862	0.0168465264
2607.7475683593	0.0167490169
2609.6763757323	0.0167336948
2611.6051831054	0.0167549886
2613.5339904784	0.0166111030
2615.4627978515	0.0166045986
2617.3916052245	0.0165341813
2619.3204125976	0.0164633058
2621.2492199706	0.0164833684
2623.1780273437	0.0164172500
2625.1068347167	0.0164346583
2627.0356420898	0.0163620412
2628.9644494628	0.0164760239
2630.8932568358	0.0164959114
2632.8220642089	0.0162172932
2634.7508715819	0.0162470601
2636.6796789550	0.0162929576
2638.6084863280	0.0161500536
2640.5372937011	0.0161589067
2642.4661010741	0.0162774511
2644.3949084472	0.0160936713
2646.3237158202	0.0160224624
2648.2525231933	0.0160846189
2650.1813305663	0.0160172954
2652.1101379394	0.0160900317
2654.0389453124	0.0159637295
2655.9677526855	0.0159440059
2657.8965600585	0.0159631316
2659.8253674315	0.0159508176
2661.7541748046	0.0159566626
2663.6829821776	0.0157154426
2665.6117895507	0.0157579072
2667.5405969237	0.0157460384
2669.4694042968	0.0156614855
2671.3982116698	0.0156343468
2673.3270190429	0.0156449955
2675.2558264159	0.0157246646
2677.1846337890	0.0155192912
2679.1134411620	0.0154860560
2681.0422485351	0.0155104771
2682.9710559081	0.0155160688
2684.8998632812	0.0154831698
2686.8286706542	0.0153986150
2688.7574780273	0.0154070109
2690.6862854003	0.0153595507
2692.6150927733	0.0154308574
2694.5439001464	0.0152711887
2696.4727075194	0.0152552146
2698.4015148925	0.0152668981
2700.3303222655	0.0151441647
2702.2591296386	0.0152677260
2704.1879370116	0.0150593612
2706.1167443847	0.0150890984
2708.0455517577	0.0151974820
2709.9743591308	0.0150052933
2711.9031665038	0.0149866957
2713.8319738769	0.0149926869
2715.7607812499	0.0149896890
2717.6895886230	0.0148596773
2719.6183959960	0.0149563756
2721.5472033690	0.0150138531
2723.4760107421	0.0147786187
2725.4048181151	0.0147315264
2727.3336254882	0.0147501817
2729.2624328612	0.0147802830
2731.1912402343	0.0146620553
2733.1200476073	0.0145850144
2735.0488549804	0.0146596469
2736.9776623534	0.0145916417
2738.9064697265	0.0145495562
2740.8352770995	0.0145400111
2742.7640844726	0.0144542195
2744.6928918456	0.0144850686
2746.6216992187	0.0146124046
2748.5505065917	0.0145098269
2750.4793139647	0.0143774301
2752.4081213378	0.0144122271
2754.3369287108	0.0144389253
2756.2657360839	0.0143730221
2758.1945434569	0.0143068675
2760.1233508300	0.0142986923
2762.0521582030	0.0141851464
2763.9809655761	0.0141479736
2765.9097729491	0.0140803112
2767.8385803222	0.0140825417
2769.7673876952	0.0142295798
2771.6961950683	0.0140548060
2773.6250024413	0.0140152499
2775.5538098144	0.0139786620
2777.4826171874	0.0138112381
2779.4114245604	0.0138853379
2781.3402319335	0.0138049051
2783.2690393065	0.0137629006
2785.1978466796	0.0137276705
2787.1266540526	0.0136593934
2789.0554614257	0.0137632322
2790.9842687987	0.0136488732
2792.9130761718	0.0136020109
2794.8418835448	0.0137139764
2796.7706909179	0.0136352461
2798.6994982909	0.0135658784
2800.6283056640	0.0135487849
2802.5571130370	0.0134468228
2804.4859204101	0.0133963674
2806.4147277831	0.0133943204
2808.3435351562	0.0132715357
2810.2723425292	0.0132925687
2812.2011499022	0.0133796297
2814.1299572753	0.0132478354
2816.0587646483	0.0132096317
2817.9875720214	0.0131656155
2819.9163793944	0.0130428039
2821.8451867675	0.0130199045
2823.7739941405	0.0129624223
2825.7028015136	0.0129891969
2827.6316088866	0.0129748452
2829.5604162597	0.0129414061
2831.4892236327	0.0130203944
2833.4180310058	0.0128668165
2835.3468383788	0.0127477115
2837.2756457519	0.0127509814
2839.2044531249	0.0127061326
2841.1332604979	0.0127027314
2843.0620678710	0.0126409940
2844.9908752440	0.0126394806
2846.9196826171	0.0125150047
2848.8484899901	0.0123101734
2850.7772973632	0.0123000834
2852.7061047362	0.0123109184
2854.6349121093	0.0123041961
2856.5637194823	0.0122764818
2858.4925268554	0.0123002371
2860.4213342284	0.0122564128
2862.3501416015	0.0121838618
2864.2789489745	0.0122446055
2866.2077563476	0.0122429468
2868.1365637206	0.0121954922
2870.0653710936	0.0121560143
2871.9941784667	0.0120923528
2873.9229858397	0.0120354267
2875.8517932128	0.0120759308
2877.7806005858	0.0120037906
2879.7094079589	0.0118943555
2881.6382153319	0.0118905436
2883.5670227050	0.0118229305
2885.4958300780	0.0118620563
2887.4246374511	0.0117858667
2889.3534448241	0.0117745902
2891.2822521972	0.0117635485
2893.2110595702	0.0116451699
2895.1398669433	0.0117615163
2897.0686743163	0.0115874559
2898.9974816893	0.0115267355
2900.9262890624	0.0115454514
2902.8550964354	0.0114264963
2904.7839038085	0.0115321251
2906.7127111815	0.0114049166
2908.6415185546	0.0113253202
2910.5703259276	0.0112127559
2912.4991333007	0.0111184269
2914.4279406737	0.0111500341
2916.3567480468	0.0109905638
2918.2855554198	0.0109788794
2920.2143627929	0.0109075336
2922.1431701659	0.0109507265
2924.0719775390	0.0110110212
2926.0007849120	0.0109642968
2927.9295922851	0.0111145806
2929.8583996581	0.0109113753
2931.7872070311	0.0107720848
2933.7160144042	0.0109470207
2935.6448217772	0.0108522829
2937.5736291503	0.0108198468
2939.5024365233	0.0109148808
2941.4312438964	0.0108403033
2943.3600512694	0.0108326413
2945.2888586425	0.0108740153
2947.2176660155	0.0107639385
2949.1464733886	0.0106651001
2951.0752807616	0.0106789051
2953.0040881347	0.0106804986
2954.9328955077	0.0105690006
2956.8617028808	0.0105234701
2958.7905102538	0.0105459979
2960.7193176268	0.0104767494
2962.6481249999	0.0104372464
2964.5769323729	0.0104802251
2966.5057397460	0.0104899798
2968.4345471190	0.0104334094
2970.3633544921	0.0104542878
2972.2921618651	0.0104226368
2974.2209692382	0.0103026964
2976.1497766112	0.0103515554
2978.0785839843	0.0104081193
2980.0073913573	0.0103351111
2981.9361987304	0.0103053469
2983.8650061034	0.0103570288
2985.7938134765	0.0103817200
2987.7226208495	0.0103052864
2989.6514282225	0.0101813879
2991.5802355956	0.0102347024
2993.5090429686	0.0102809593
2995.4378503417	0.0101371203
2997.3666577147	0.0100740734
2999.2954650878	0.0100770779
3001.2242724608	0.0101197530
3003.1530798339	0.0100224735
3005.0818872069	0.0099111162
3007.0106945800	0.0100265183
3008.9395019530	0.0099568274
3010.8683093261	0.0098950453
3012.7971166991	0.0098986365
3014.7259240722	0.0097463354
3016.6547314452	0.0097590601
3018.5835388182	0.0097824009
3020.5123461913	0.0096999966
3022.4411535643	0.0097239260
3024.3699609374	0.0097333407
3026.2987683104	0.0097343121
3028.2275756835	0.0096858442
3030.1563830565	0.0095806904
3032.0851904296	0.0096002342
3034.0139978026	0.0095189856
3035.9428051757	0.0094995312
3037.8716125487	0.0095134014
3039.8004199218	0.0093351025
3041.7292272948	0.0094471890
3043.6580346679	0.0095003853
3045.5868420409	0.0093389414
3047.5156494139	0.0093404725
3049.4444567870	0.0092597166
3051.3732641600	0.0092053078
3053.3020715331	0.0091812825
3055.2308789061	0.0091812238
3057.1596862792	0.0092554893
3059.0884936522	0.0090920646
3061.0173010253	0.0090463981
3062.9461083983	0.0091496706
3064.8749157714	0.0090131946
3066.8037231444	0.0089636762
3068.7325305175	0.0089878328
3070.6613378905	0.0090319011
3072.5901452636	0.0090174954
3074.5189526366	0.0089105871
3076.4477600097	0.0089535844
3078.3765673827	0.0088285720
3080.3053747557	0.0088624507
3082.2341821288	0.0089389896
3084.1629895018	0.0087612439
3086.0917968749	0.0088143200
3088.0206042479	0.0087539684
3089.9494116210	0.0087552443
3091.8782189940	0.0087756515
3093.8070263671	0.0085826637
3095.7358337401	0.0086421128
3097.6646411132	0.0087109804
3099.5934484862	0.0085628405
3101.5222558593	0.0084063197
3103.4510632323	0.0085130539
3105.3798706054	0.0085512679
3107.3086779784	0.0084326882
3109.2374853514	0.0084224846
3111.1662927245	0.0083570294
3113.0951000975	0.0084028561
3115.0239074706	0.0084403846
3116.9527148436	0.0083711585
3118.8815222167	0.0082973707
3120.8103295897	0.0082432963
3122.7391369628	0.0082600517
3124.6679443358	0.0082398821
3126.5967517089	0.0081937332
3128.5255590819	0.0081407726
3130.4543664550	0.0081506148
3132.3831738280	0.0081558432
3134.3119812011	0.0081363916
3136.2407885741	0.0080876034
3138.1695959471	0.0080250632
3140.0984033202	0.0079577863
3142.0272106932	0.0078739803
3143.9560180663	0.0079371557
3145.8848254393	0.0078971405
3147.8136328124	0.0078979321
3149.7424401854	0.0079400968
3151.6712475585	0.0078147110
3153.6000549315	0.0078409882
3155.5288623046	0.0078058634
3157.4576696776	0.0078040296
3159.3864770507	0.0079347789
3161.3152844237	0.0078441361
3163.2440917968	0.0077576162
3165.1728991698	0.0078201089
3167.1017065428	0.0077547096
3169.0305139159	0.0076994430
3170.9593212889	0.0077520758
3172.8881286620	0.0076504219
3174.8169360350	0.0076072989
3176.7457434081	0.0076049110
3178.6745507811	0.0075812791
3180.6033581542	0.0076312134
3182.5321655272	0.0076503912
3184.4609729003	0.0076560406
3186.3897802733	0.0075094728
3188.3185876464	0.0075213881
3190.2473950194	0.0075953673
3192.1762023925	0.0074778274
3194.1050097655	0.0074956277
3196.0338171386	0.0074712336
3197.9626245116	0.0074993214
3199.8914318846	0.0075242864
3201.8202392577	0.0074852295
3203.7490466307	0.0076048197
3205.6778540038	0.0075296671
3207.6066613768	0.0074176267
3209.5354687499	0.0074828328
3211.4642761229	0.0075027128
3213.3930834960	0.0074720364
3215.3218908690	0.0074741235
3217.2506982421	0.0075435368
3219.1795056151	0.0075308038
3221.1083129882	0.0074553378
3223.0371203612	0.0074352752
3224.9659277343	0.0075051337
3226.8947351073	0.0076029259
3228.8235424803	0.0075339926
3230.7523498534	0.0074437568
3232.6811572264	0.0074878521
3234.6099645995	0.0074783647
3236.5387719725	0.0074308971
3238.4675793456	0.0074693761
3240.3963867186	0.0075056902
3242.3251940917	0.0075816987
3244.2540014647	0.0075729932
3246.1828088378	0.0074999635
3248.1116162108	0.0075881677
3250.0404235839	0.0075620706
3251.9692309569	0.0075895879
3253.8980383300	0.0076803551
3255.8268457030	0.0076464862
3257.7556530760	0.0076594437
3259.6844604491	0.0075979773
3261.6132678221	0.0076289689
3263.5420751952	0.0075776200
3265.4708825682	0.0075733308
3267.3996899413	0.0076852371
3269.3284973143	0.0076059340
3271.2573046874	0.0076869121
3273.1861120604	0.0076080188
3275.1149194335	0.0076561025
3277.0437268065	0.0078263497
3278.9725341796	0.0076427041
3280.9013415526	0.0077401707
3282.8301489257	0.0078617111
3284.7589562987	0.0077756345
3286.6877636717	0.0077509927
3288.6165710448	0.0078060972
3290.5453784178	0.0077702161
3292.4741857909	0.0077481316
3294.4029931639	0.0078658080
3296.3318005370	0.0077743139
3298.2606079100	0.0077876430
3300.1894152831	0.0078504980
3302.1182226561	0.0078073400
3304.0470300292	0.0078121861
3305.9758374022	0.0078291707
3307.9046447753	0.0078888433
3309.8334521483	0.0078746378
3311.7622595214	0.0079091107
3313.6910668944	0.0078764427
3315.6198742675	0.0078802351
3317.5486816405	0.0078987982
3319.4774890135	0.0078814458
3321.4062963866	0.0080044884
3323.3351037596	0.0079829823
3325.2639111327	0.0080188736
3327.1927185057	0.0080126766
3329.1215258788	0.0079280194
3331.0503332518	0.0079186819
3332.9791406249	0.0078810602
3334.9079479979	0.0079921745
3336.8367553710	0.0080730496
3338.7655627440	0.0081078857
3340.6943701171	0.0081043495
3342.6231774901	0.0080561526
3344.5519848632	0.0080955159
3346.4807922362	0.0081594577
3348.4095996092	0.0081518935
3350.3384069823	0.0081242146
3352.2672143553	0.0082054595
3354.1960217284	0.0081765689
3356.1248291014	0.0081319120
3358.0536364745	0.0081984513
3359.9824438475	0.0082031395
3361.9112512206	0.0081886798
3363.8400585936	0.0082049770
3365.7688659667	0.0082288496
3367.6976733397	0.0083100973
3369.6264807128	0.0084194103
3371.5552880858	0.0083562229
3373.4840954589	0.0082855616
3375.4129028319	0.0083752312
3377.3417102049	0.0084953159
3379.2705175780	0.0084117651
3381.1993249510	0.0083821686
3383.1281323241	0.0085757338
3385.0569396971	0.0084768534
3386.9857470702	0.0084588099
3388.9145544432	0.0086001009
3390.8433618163	0.0086048311
3392.7721691893	0.0086431708
3394.7009765624	0.0086519653
3396.6297839354	0.0087278485
3398.5585913085	0.0086737955
3400.4873986815	0.0087443534
3402.4162060546	0.0089286603
3404.3450134276	0.0088480432
3406.2738208006	0.0089363717
3408.2026281737	0.0089150080
3410.1314355467	0.0088833999
3412.0602429198	0.0091143334
3413.9890502928	0.0090864832
3415.9178576659	0.0090881921
3417.8466650389	0.0091000292
3419.7754724120	0.0090252552
3421.7042797850	0.0091411173
3423.6330871581	0.0090806689
3425.5618945311	0.0090970937
3427.4907019042	0.0092118755
3429.4195092772	0.0092049707
3431.3483166503	0.0093069226
3433.2771240233	0.0092630042
3435.2059313963	0.0093037933
3437.1347387694	0.0093706641
3439.0635461424	0.0093717780
3440.9923535155	0.0094494903
3442.9211608885	0.0094353221
3444.8499682616	0.0095784701
3446.7787756346	0.0094923954
3448.7075830077	0.0094552962
3450.6363903807	0.0097244903
3452.5651977538	0.0096884277
3454.4940051268	0.0096633555
3456.4228124999	0.0096767480
3458.3516198729	0.0097587444
3460.2804272460	0.0098525602
3462.2092346190	0.0098061655
3464.1380419921	0.0099117737
3466.0668493651	0.0098938635
3467.9956567381	0.0098718219
3469.9244641112	0.0099556949
3471.8532714842	0.0099454718
3473.7820788573	0.0100175049
3475.7108862303	0.0100854421
3477.6396936034	0.0101558547
3479.5685009764	0.0101333335
3481.4973083495	0.0100551434
3483.4261157225	0.0101323519
3485.3549230956	0.0101192985
3487.2837304686	0.0102144033
3489.2125378417	0.0103297289
3491.1413452147	0.0102959685
3493.0701525878	0.0103949886
3494.9989599608	0.0104018040
3496.9277673338	0.0103878761
3498.8565747069	0.0104558393
3500.7853820799	0.0104944315
3502.7141894530	0.0104297474
3504.6429968260	0.0104359090
3506.5718041991	0.0106388237
3508.5006115721	0.0105497940
3510.4294189452	0.0104683135
3512.3582263182	0.0106642526
3514.2870336913	0.0107337320
3516.2158410643	0.0107006188
3518.1446484374	0.0107561173
3520.0734558104	0.0108091850
3522.0022631835	0.0107481340
3523.9310705565	0.0107024387
3525.8598779295	0.0107254442
3527.7886853026	0.0108077312
3529.7174926756	0.0108417189
3531.6463000487	0.0110155689
3533.5751074217	0.0110912099
3535.5039147948	0.0109498575
3537.4327221678	0.0110930745
3539.3615295409	0.0111413570
3541.2903369139	0.0110777803
3543.2191442870	0.0111197354
3545.1479516600	0.0110798171
3547.0767590331	0.0109749958
3549.0055664061	0.0111808144
3550.9343737792	0.0112912077
3552.8631811522	0.0110595934
3554.7919885252	0.0113476934
3556.7207958983	0.0113935154
3558.6496032713	0.0112900790
3560.5784106444	0.0113544147
3562.5072180174	0.0113030123
3564.4360253905	0.0114231370
3566.3648327635	0.0108264573
3568.2936401366	0.0106701674
3570.2224475096	0.0113667408
3572.1512548827	0.0115612671
3574.0800622557	0.0115527986
3576.0088696288	0.0115124797
3577.9376770018	0.0115660448
3579.8664843749	0.0116280271
3581.7952917479	0.0115513699
3583.7240991210	0.0116219837
3585.6529064940	0.0114693791
3587.5817138670	0.0107909497
3589.5105212401	0.0110661183
3591.4393286131	0.0118075358
3593.3681359862	0.0114736892
3595.2969433592	0.0114479540
3597.2257507323	0.0117045157
3599.1545581053	0.0116693061
3601.0833654784	0.0116789639
3603.0121728514	0.0117337108
3604.9409802245	0.0118841967
3606.8697875975	0.0115828719
3608.7985949706	0.0109758936
3610.7274023436	0.0112372646
3612.6562097167	0.0114839710
3614.5850170897	0.0112530310
3616.5138244627	0.0119291637
3618.4426318358	0.0112660900
3620.3714392088	0.0109811472
3622.3002465819	0.0120545719
3624.2290539549	0.0117671750
3626.1578613280	0.0122203315
3628.0866687010	0.0108599421
3630.0154760741	0.0101507232
3631.9442834471	0.0120988097
3633.8730908202	0.0117996018
3635.8018981932	0.0119828787
3637.7307055663	0.0122179296
3639.6595129393	0.0120150037
3641.5883203124	0.0122556388
3643.5171276854	0.0122206518
3645.4459350584	0.0122953132
3647.3747424315	0.0113855805
3649.3035498045	0.0106941983
3651.2323571776	0.0108075012
3653.1611645506	0.0123076513
3655.0899719237	0.0121638495
3657.0187792967	0.0113419015
3658.9475866698	0.0125972293
3660.8763940428	0.0122553101
3662.8052014159	0.0125773912
3664.7340087889	0.0125920000
3666.6628161620	0.0125521570
3668.5916235350	0.0122809773
3670.5204309081	0.0104802512
3672.4492382811	0.0122026447
3674.3780456541	0.0116870720
3676.3068530272	0.0102529917
3678.2356604002	0.0121978167
3680.1644677733	0.0122792814
3682.0932751463	0.0123654995
3684.0220825194	0.0126464497
3685.9508898924	0.0124121374
3687.8796972655	0.0114389583
3689.8085046385	0.0107890368
3691.7373120116	0.0118771959
3693.6661193846	0.0121032577
3695.5949267577	0.0123217311
3697.5237341307	0.0122057255
3699.4525415038	0.0120302960
3701.3813488768	0.0118156094
3703.3101562499	0.0115701854
3705.2389636229	0.0123016899
3707.1677709959	0.0117186327
3709.0965783690	0.0115473382
3711.0253857420	0.0109229814
3712.9541931151	0.0104209203
3714.8830004881	0.0117758512
3716.8118078612	0.0115196519
3718.7406152342	0.0115114646
3720.6694226073	0.0112981293
3722.5982299803	0.0110827936
3724.5270373534	0.0113511747
3726.4558447264	0.0104791075
3728.3846520995	0.0111896750
3730.3134594725	0.0111478744
3732.2422668456	0.0102314278
3734.1710742186	0.0100932624
3736.0998815916	0.0097521357
3738.0286889647	0.0100170495
3739.9574963377	0.0106806196
3741.8863037108	0.0109729245
3743.8151110838	0.0088860597
3745.7439184569	0.0086226724
3747.6727258299	0.0105162431
3749.6015332030	0.0092066061
3751.5303405760	0.0086530410
3753.4591479491	0.0095732491
3755.3879553221	0.0100879529
3757.3167626952	0.0104592498
3759.2455700682	0.0098081753
3761.1743774413	0.0100593772
3763.1031848143	0.0104054455
3765.0319921873	0.0097748823
3766.9607995604	0.0099474229
3768.8896069334	0.0098542431
3770.8184143065	0.0096095260
3772.7472216795	0.0100544523
3774.6760290526	0.0100184269
3776.6048364256	0.0101082008
3778.5336437987	0.0097878873
3780.4624511717	0.0094752852
3782.3912585448	0.0098940413
3784.3200659178	0.0096991137
3786.2488732909	0.0096152946
3788.1776806639	0.0096636899
3790.1064880370	0.0096710101
3792.0352954100	0.0096108466
3793.9641027830	0.0096583143
3795.8929101561	0.0092205312
3797.8217175291	0.0091867168
3799.7505249022	0.0094120130
3801.6793322752	0.0078444928
3803.6081396483	0.0089374194
3805.5369470213	0.0093623856
3807.4657543944	0.0081370892
3809.3945617674	0.0093783867
3811.3233691405	0.0089501236
3813.2521765135	0.0092828628
3815.1809838866	0.0085624848
3817.1097912596	0.0077941944
3819.0385986327	0.0092904791
3820.9674060057	0.0078111151
3822.8962133787	0.0081671039
3824.8250207518	0.0090349494
3826.7538281248	0.0084035704
3828.6826354979	0.0089636799
3830.6114428709	0.0085872523
3832.5402502440	0.0083858538
3834.4690576170	0.0084122932
3836.3978649901	0.0080136079
3838.3266723631	0.0074827317
3840.2554797362	0.0080029070
3842.1842871092	0.0084168836
3844.1130944823	0.0080252029
3846.0419018553	0.0085241329
3847.9707092284	0.0084252562
3849.8995166014	0.0084728478
3851.8283239745	0.0077038221
3853.7571313475	0.0060870657
3855.6859387205	0.0070326002
3857.6147460936	0.0084261429
3859.5435534666	0.0081636580
3861.4723608397	0.0080754329
3863.4011682127	0.0078881914
3865.3299755858	0.0074456073
3867.2587829588	0.0081586652
3869.1875903319	0.0075521655
3871.1163977049	0.0071266387
3873.0452050780	0.0080488008
3874.9740124510	0.0075047808
3876.9028198241	0.0080522196
3878.8316271971	0.0080363881
3880.7604345702	0.0071659721
3882.6892419432	0.0080340160
3884.6180493162	0.0075028399
3886.5468566893	0.0071396092
3888.4756640623	0.0080085313
3890.4044714354	0.0075136367
3892.3332788084	0.0071962322
3894.2620861815	0.0076979524
3896.1908935545	0.0077450564
3898.1197009276	0.0075294669
3900.0485083006	0.0072606266
3901.9773156737	0.0071325125
3903.9061230467	0.0070781047
3905.8349304198	0.0071247499
3907.7637377928	0.0075455429
3909.6925451659	0.0075483080
3911.6213525389	0.0074819690
3913.5501599119	0.0075988490
3915.4789672850	0.0073516318
3917.4077746580	0.0072000427
3919.3365820311	0.0072846040
3921.2653894041	0.0074170684
3923.1941967772	0.0072429590
3925.1230041502	0.0070897005
3927.0518115233	0.0072123511
3928.9806188963	0.0072984523
3930.9094262694	0.0071970159
3932.8382336424	0.0069250129
3934.7670410155	0.0070840707
3936.6958483885	0.0072000101
3938.6246557616	0.0071222400
3940.5534631346	0.0071300794
3942.4822705076	0.0069327494
3944.4110778807	0.0070142606
3946.3398852537	0.0070443237
3948.2686926268	0.0068846224
3950.1974999998	0.0069124755
3952.1263073729	0.0068842596
3954.0551147459	0.0069486005
3955.9839221190	0.0069650179
3957.9127294920	0.0068992963
3959.8415368651	0.0068697152
3961.7703442381	0.0067282580
3963.6991516112	0.0068155965
3965.6279589842	0.0069354968
3967.5567663573	0.0067927027
3969.4855737303	0.0067576142
3971.4143811034	0.0067603476
3973.3431884764	0.0066895830
3975.2719958494	0.0066506010
3977.2008032225	0.0067368844
3979.1296105955	0.0067572440
3981.0584179686	0.0065588364
3982.9872253416	0.0065686647
3984.9160327147	0.0066242469
3986.8448400877	0.0065947971
3988.7736474608	0.0066352589
3990.7024548338	0.0065416158
3992.6312622069	0.0064573954
3994.5600695799	0.0064140749
3996.4888769530	0.0064251153
3998.4176843260	0.0064674430
4000.3464916991	0.0064221285
4002.2752990721	0.0064173434
4004.2041064451	0.0064225793
4006.1329138182	0.0064301016
4008.0617211912	0.0063693449
4009.9905285643	0.0063112145
4011.9193359373	0.0063364226
4013.8481433104	0.0063377852
4015.7769506834	0.0063188877
4017.7057580565	0.0062462138
4019.6345654295	0.0062621138
4021.5633728026	0.0062574213
4023.4921801756	0.0061906609
4025.4209875487	0.0061829155
4027.3497949217	0.0061154724
4029.2786022948	0.0061443658
4031.2074096678	0.0061297882
4033.1362170408	0.0060267546
4035.0650244139	0.0060852040
4036.9938317869	0.0061043063
4038.9226391600	0.0060215667
4040.8514465330	0.0060631670
4042.7802539061	0.0060717436
4044.7090612791	0.0059303544
4046.6378686522	0.0059943972
4048.5666760252	0.0060386029
4050.4954833983	0.0059446469
4052.4242907713	0.0059539294
4054.3530981444	0.0059086327
4056.2819055174	0.0058737956
4058.2107128905	0.0058389371
4060.1395202635	0.0058739712
4062.0683276365	0.0059228567
4063.9971350096	0.0058401348
4065.9259423826	0.0058016432
4067.8547497557	0.0057745329
4069.7835571287	0.0057523400
4071.7123645018	0.0057424949
4073.6411718748	0.0057244897
4075.5699792479	0.0057160887
4077.4987866209	0.0057596155
4079.4275939940	0.0055889660
4081.3564013670	0.0054828776
4083.2852087401	0.0057275011
4085.2140161131	0.0056768865
4087.1428234862	0.0055726273
4089.0716308592	0.0054945797
4091.0004382323	0.0055164839
4092.9292456053	0.0056809867
4094.8580529783	0.0055391383
4096.7868603514	0.0055633327
4098.7156677244	0.0055484325
4100.6444750975	0.0054756543
4102.5732824705	0.0055338093
4104.5020898436	0.0054556676
4106.4308972166	0.0054110643
4108.3597045897	0.0053357035
4110.2885119627	0.0053660758
4112.2173193358	0.0053905472
4114.1461267088	0.0053252783
4116.0749340819	0.0053286320
4118.0037414549	0.0053632054
4119.9325488280	0.0053057889
4121.8613562010	0.0052434364
4123.7901635740	0.0053695128
4125.7189709471	0.0053041670
4127.6477783201	0.0051823189
4129.5765856932	0.0052112835
4131.5053930662	0.0052991291
4133.4342004393	0.0052263020
4135.3630078123	0.0051199244
4137.2918151854	0.0052798302
4139.2206225584	0.0052010771
4141.1494299315	0.0051908698
4143.0782373045	0.0051603424
4145.0070446776	0.0050148373
4146.9358520506	0.0051095719
4148.8646594237	0.0050143246
4150.7934667967	0.0050844755
4152.7222741697	0.0051719761
4154.6510815428	0.0050541610
4156.5798889158	0.0049899044
4158.5086962889	0.0049083177
4160.4375036619	0.0049723480
4162.3663110350	0.0049597304
4164.2951184080	0.0049200766
4166.2239257811	0.0049776188
4168.1527331541	0.0049703373
4170.0815405272	0.0048926943
4172.0103479002	0.0048288009
4173.9391552733	0.0048932983
4175.8679626463	0.0048712892
4177.7967700194	0.0047780685
4179.7255773924	0.0048201894
4181.6543847654	0.0048904810
4183.5831921385	0.0048598177
4185.5119995115	0.0047591953
4187.4408068846	0.0047390005
4189.3696142576	0.0047449712
4191.2984216307	0.0047115255
4193.2272290037	0.0047567389
4195.1560363768	0.0046845712
4197.0848437498	0.0046102563
4199.0136511229	0.0046938951
4200.9424584959	0.0046475427
4202.8712658690	0.0046389746
4204.8000732420	0.0046782289
4206.7288806151	0.0046534920
4208.6576879881	0.0045874892
4210.5864953611	0.0045640990
4212.5153027342	0.0046135886
4214.4441101072	0.0045774858
4216.3729174803	0.0045980085
4218.3017248533	0.0045149755
4220.2305322264	0.0045080422
4222.1593395994	0.0045912070
4224.0881469725	0.0045615314
4226.0169543455	0.0045575686
4227.9457617186	0.0044005881
4229.8745690916	0.0044936892
4231.8033764647	0.0045433259
4233.7321838377	0.0043980088
4235.6609912108	0.0044523310
4237.5897985838	0.0043864902
4239.5186059569	0.0043574432
4241.4474133299	0.0043544732
4243.3762207029	0.0043887924
4245.3050280760	0.0043535875
4247.2338354490	0.0042803832
4249.1626428221	0.0043319957
4251.0914501951	0.0042649684
4253.0202575682	0.0043072030
4254.9490649412	0.0043442408
4256.8778723143	0.0043424992
4258.8066796873	0.0042798277
4260.7354870604	0.0042241965
4262.6642944334	0.0042821444
4264.5931018065	0.0041646827
4266.5219091795	0.0042042816
4268.4507165526	0.0042932727
4270.3795239256	0.0042274632
4272.3083312986	0.0041206889
4274.2371386717	0.0040351464
4276.1659460447	0.0041338457
4278.0947534178	0.0042063138
4280.0235607908	0.0041759270
4281.9523681639	0.0041008885
4283.8811755369	0.0040626070
4285.8099829100	0.0040847296
4287.7387902830	0.0041110888
4289.6675976561	0.0040794564
4291.5964050291	0.0040372135
4293.5252124022	0.0040511908
4295.4540197752	0.0040170671
4297.3828271483	0.0040655532
4299.3116345213	0.0041113086
4301.2404418943	0.0040110606
4303.1692492674	0.0038966755
4305.0980566404	0.0039754687
4307.0268640135	0.0040504700
4308.9556713865	0.0039616702
4310.8844787596	0.0040389057
4312.8132861326	0.0039882525
4314.7420935057	0.0038714088
4316.6709008787	0.0039246492
4318.5997082518	0.0039179055
4320.5285156248	0.0039140158
4322.4573229979	0.0038720616
4324.3861303709	0.0038563088
4326.3149377440	0.0038252398
4328.2437451170	0.0038476659
4330.1725524900	0.0038700742
4332.1013598631	0.0037562861
4334.0301672361	0.0037810262
4335.9589746092	0.0037737149
4337.8877819822	0.0038148263
4339.8165893553	0.0038543604
4341.7453967283	0.0037086380
4343.6742041014	0.0037372727
4345.6030114744	0.0037829150
4347.5318188475	0.0037609332
4349.4606262205	0.0037454483
4351.3894335936	0.0037051640
4353.3182409666	0.0037238272
4355.2470483397	0.0036919054
4357.1758557127	0.0036746995
4359.1046630858	0.0036563133
4361.0334704588	0.0036524967
4362.9622778318	0.0037151484
4364.8910852049	0.0036228858
4366.8198925779	0.0035717308
4368.7486999510	0.0036459519
4370.6775073240	0.0036232457
4372.6063146971	0.0035796072
4374.5351220701	0.0035673191
4376.4639294432	0.0035528792
4378.3927368162	0.0035365706
4380.3215441893	0.0035651952
4382.2503515623	0.0035835840
4384.1791589354	0.0035517591
4386.1079663084	0.0035338663
4388.0367736815	0.0034713985
4389.9655810545	0.0034132064
4391.8943884275	0.0034741112
4393.8231958006	0.0035061128
4395.7520031736	0.0034513189
4397.6808105467	0.0034963968
4399.6096179197	0.0034495492
4401.5384252928	0.0033779722
4403.4672326658	0.0034597162
4405.3960400389	0.0034439093
4407.3248474119	0.0034748088
4409.2536547850	0.0034094693
4411.1824621580	0.0033290028
4413.1112695311	0.0034125955
4415.0400769041	0.0033369551
4416.9688842772	0.0032957550
4418.8976916502	0.0033064438
4420.8264990232	0.0033947029
4422.7553063963	0.0033992501
4424.6841137693	0.0032649506
4426.6129211424	0.0032987380
4428.5417285154	0.0032985788
4430.4705358885	0.0033466881
4432.3993432615	0.0033068080
4434.3281506346	0.0032378314
4436.2569580076	0.0032534953
4438.1857653807	0.0032108156
4440.1145727537	0.0032356940
4442.0433801268	0.0031390393
4443.9721874998	0.0032141979
4445.9009948729	0.0032518092
4447.8298022459	0.0031512859
4449.7586096189	0.0033123461
4451.6874169920	0.0032934125
4453.6162243650	0.0032039457
4455.5450317381	0.0031673287
4457.4738391111	0.0031536371
4459.4026464842	0.0031704642
4461.3314538572	0.0030840018
4463.2602612303	0.0030940911
4465.1890686033	0.0031243402
4467.1178759764	0.0030916054
4469.0466833494	0.0031161138
4470.9754907225	0.0032166750
4472.9042980955	0.0031533511
4474.8331054686	0.0031116605
4476.7619128416	0.0031847500
4478.6907202147	0.0030907821
4480.6195275877	0.0030976296
4482.5483349607	0.0030732467
4484.4771423338	0.0030246016
4486.4059497068	0.0031066751
4488.3347570799	0.0030526465
4490.2635644529	0.0030001290
4492.1923718260	0.0029935804
4494.1211791990	0.0029412084
4496.0499865721	0.0029221270
4497.9787939451	0.0029164543
4499.9076013182	0.0029418673
4501.8364086912	0.0030256936
4503.7652160643	0.0029330449
4505.6940234373	0.0028943811
4507.6228308104	0.0030175692
4509.5516381834	0.0029176883
4511.4804455564	0.0028794277
4513.4092529295	0.0029565240
4515.3380603025	0.0029500700
4517.2668676756	0.0029018135
4519.1956750486	0.0028851586
4521.1244824217	0.0028941326
4523.0532897947	0.0028388347
4524.9820971678	0.0028256858
4526.9109045408	0.0028083762
4528.8397119139	0.0028192960
4530.7685192869	0.0028088416
4532.6973266600	0.0028169365
4534.6261340330	0.0027980856
4536.5549414061	0.0027754493
4538.4837487791	0.0028908467
4540.4125561521	0.0027932592
4542.3413635252	0.0027665172
4544.2701708982	0.0027642176
4546.1989782713	0.0027389405
4548.1277856443	0.0028457278
4550.0565930174	0.0027583479
4551.9854003904	0.0027454509
4553.9142077635	0.0027294022
4555.8430151365	0.0027270271
4557.7718225096	0.0027486980
4559.7006298826	0.0027175050
4561.6294372557	0.0027027396
4563.5582446287	0.0026665796
4565.4870520018	0.0027142698
4567.4158593748	0.0026313351
4569.3446667478	0.0027135883
4571.2734741209	0.0027161934
4573.2022814939	0.0026409379
4575.1310888670	0.0027339594
4577.0598962400	0.0025901312
4578.9887036131	0.0026179990
4580.9175109861	0.0026021679
4582.8463183592	0.0025707642
4584.7751257322	0.0025665588
4586.7039331053	0.0024778536
4588.6327404783	0.0025986196
4590.5615478514	0.0025506075
4592.4903552244	0.0025641581
4594.4191625975	0.0025916398
4596.3479699705	0.0025684447
4598.2767773435	0.0025825016
4600.2055847166	0.0025327057
4602.1343920896	0.0025829221
4604.0631994627	0.0025351276
4605.9920068357	0.0025524981
4607.9208142088	0.0025274663
4609.8496215818	0.0024367422
4611.7784289549	0.0025013657
4613.7072363279	0.0025479198
4615.6360437010	0.0024843621
4617.5648510740	0.0024465723
4619.4936584471	0.0025307657
4621.4224658201	0.0024429271
4623.3512731932	0.0023894252
4625.2800805662	0.0023891157
4627.2088879393	0.0023994101
4629.1376953123	0.0024683536
4631.0665026853	0.0023751846
4632.9953100584	0.0024504708
4634.9241174314	0.0024919766
4636.8529248045	0.0023895234
4638.7817321775	0.0023894168
4640.7105395506	0.0023726462
4642.6393469236	0.0023467662
4644.5681542967	0.0023386772
4646.4969616697	0.0023784519
4648.4257690428	0.0024086554
4650.3545764158	0.0024137346
4652.2833837889	0.0023847250
4654.2121911619	0.0023734455
4656.1409985350	0.0023639062
4658.0698059080	0.0023256731
4659.9986132810	0.0022957635
4661.9274206541	0.0022985463
4663.8562280271	0.0023662420
4665.7850354002	0.0023021922
4667.7138427732	0.0022665279
4669.6426501463	0.0022945264
4671.5714575193	0.0022806283
4673.5002648924	0.0023241052
4675.4290722654	0.0023038653
4677.3578796385	0.0022787815
4679.2866870115	0.0022211804
4681.2154943846	0.0021638542
4683.1443017576	0.0022244034
4685.0731091307	0.0022413237
4687.0019165037	0.0022311639
4688.9307238767	0.0022476106
4690.8595312498	0.0021394477
4692.7883386228	0.0021318267
4694.7171459959	0.0022334014
4696.6459533689	0.0022057425
4698.5747607420	0.0022686140
4700.5035681150	0.0022311592
4702.4323754881	0.0022138488
4704.3611828611	0.0022089439
4706.2899902342	0.0020421976
4708.2187976072	0.0021486920
4710.1476049803	0.0021750638
4712.0764123533	0.0020864976
4714.0052197264	0.0021044025
4715.9340270994	0.0021269636
4717.8628344724	0.0021655683
4719.7916418455	0.0021250928
4721.7204492185	0.0021151518
4723.6492565916	0.0021103700
4725.5780639646	0.0021175416
4727.5068713377	0.0020729913
4729.4356787107	0.0020916336
4731.3644860838	0.0021469716
4733.2932934568	0.0021068892
4735.2221008299	0.0021016975
4737.1509082029	0.0020519164
4739.0797155760	0.0021037792
4741.0085229490	0.0020612238
4742.9373303221	0.0020233267
4744.8661376951	0.0020440468
4746.7949450682	0.0019524198
4748.7237524412	0.0020000050
4750.6525598142	0.0019756970
4752.5813671873	0.0019940436
4754.5101745603	0.0019954415
4756.4389819334	0.0020109371
4758.3677893064	0.0020879647
4760.2965966795	0.0019892754
4762.2254040525	0.0020035771
4764.1542114256	0.0019711650
4766.0830187986	0.0019514801
4768.0118261717	0.0019513606
4769.9406335447	0.0019269759
4771.8694409178	0.0019797990
4773.7982482908	0.0019177514
4775.7270556639	0.0019716036
4777.6558630369	0.0019820801
4779.5846704099	0.0018911387
4781.5134777830	0.0018804267
4783.4422851560	0.0018708080
4785.3710925291	0.0019235600
4787.2998999021	0.0019880447
4789.2287072752	0.0019684257
4791.1575146482	0.0019002927
4793.0863220213	0.0019422119
4795.0151293943	0.0019442977
4796.9439367674	0.0018836472
4798.8727441404	0.0018837947
4800.8015515135	0.0018663849
4802.7303588865	0.0018955756
4804.6591662596	0.0018887680
4806.5879736326	0.0018384610
4808.5167810056	0.0018554785
4810.4455883787	0.0018526122
4812.3743957517	0.0017939759
4814.3032031248	0.0018330172
4816.2320104978	0.0018420105
4818.1608178709	0.0018078813
4820.0896252439	0.0019198053
4822.0184326170	0.0018517126
4823.9472399900	0.0017473649
4825.8760473631	0.0018134270
4827.8048547361	0.0018148776
4829.7336621092	0.0018099982
4831.6624694822	0.0017570381
4833.5912768553	0.0017530418
4835.5200842283	0.0017816278
4837.4488916013	0.0017555621
4839.3776989744	0.0018068734
4841.3065063474	0.0017681957
4843.2353137205	0.0017786046
4845.1641210935	0.0018395795
4847.0929284666	0.0017481474
4849.0217358396	0.0017664065
4850.9505432127	0.0017898397
4852.8793505857	0.0017510618
4854.8081579588	0.0017465930
4856.7369653318	0.0017251940
4858.6657727049	0.0017283194
4860.5945800779	0.0016759615
4862.5233874510	0.0016385021
4864.4521948240	0.0016390908
4866.3810021971	0.0017404745
4868.3098095701	0.0017683001
4870.2386169431	0.0016424193
4872.1674243162	0.0016981622
4874.0962316892	0.0016477648
4876.0250390623	0.0016437680
4877.9538464353	0.0017493230
4879.8826538084	0.0016543333
4881.8114611814	0.0016623444
4883.7402685545	0.0016248637
4885.6690759275	0.0015236116
4887.5978833006	0.0015994764
4889.5266906736	0.0017033822
4891.4554980467	0.0016309470
4893.3843054197	0.0015570022
4895.3131127928	0.0016425697
4897.2419201658	0.0016310907
4899.1707275388	0.0016033797
4901.0995349119	0.0015605441
4903.0283422849	0.0015083225
4904.9571496580	0.0015787608
4906.8859570310	0.0016037489
4908.8147644041	0.0015449952
4910.7435717771	0.0015209077
4912.6723791502	0.0015583944
4914.6011865232	0.0015251511
4916.5299938963	0.0015090887
4918.4588012693	0.0015445433
4920.3876086424	0.0015878687
4922.3164160154	0.0016043053
4924.2452233885	0.0015520377
4926.1740307615	0.0015419879
4928.1028381345	0.0014963911
4930.0316455076	0.0015268463
4931.9604528806	0.0015436278
4933.8892602537	0.0014741244
4935.8180676267	0.0014887359
4937.7468749998	0.0014837772
4939.6756823728	0.0014878339
4941.6044897459	0.0014653536
4943.5332971189	0.0014859571
4945.4621044920	0.0015239369
4947.3909118650	0.0015225632
4949.3197192381	0.0014925313
4951.2485266111	0.0014433165
4953.1773339842	0.0015441792
4955.1061413572	0.0015424590
4957.0349487302	0.0014846828
4958.9637561033	0.0014809340
4960.8925634763	0.0015109940
4962.8213708494	0.0015240016
4964.7501782224	0.0014048028
4966.6789855955	0.0014711483
4968.6077929685	0.0014265047
4970.5366003416	0.0013483807
4972.4654077146	0.0014562258
4974.3942150877	0.0014192020
4976.3230224607	0.0014727520
4978.2518298338	0.0014557508
4980.1806372068	0.0013820960
4982.1094445799	0.0013924656
4984.0382519529	0.0013564900
4985.9670593259	0.0014073562
4987.8958666990	0.0013711094
4989.8246740720	0.0013916385
4991.7534814451	0.0014439787
4993.6822888181	0.0013391627
4995.6110961912	0.0013757199
4997.5399035642	0.0013850287
4999.4687109373	0.0013159943
5001.3975183103	0.0013924170
5003.3263256834	0.0013984833
5005.2551330564	0.0013143222
5007.1839404295	0.0013468268
5009.1127478025	0.0013722316
5011.0415551756	0.0013015277
5012.9703625486	0.0013236052
5014.8991699217	0.0013591881
5016.8279772947	0.0013376446
5018.7567846677	0.0014404315
5020.6855920408	0.0014315427
5022.6143994138	0.0012905532
5024.5432067869	0.0013126014
5026.4720141599	0.0013358044
5028.4008215330	0.0012892050
5030.3296289060	0.0012445545
5032.2584362791	0.0012501040
5034.1872436521	0.0012842342
5036.1160510252	0.0012941166
5038.0448583982	0.0013567822
5039.9736657713	0.0013444060
5041.9024731443	0.0012636513
5043.8312805174	0.0012227837
5045.7600878904	0.0012587672
5047.6888952634	0.0013155311
5049.6177026365	0.0012333223
5051.5465100095	0.0012092681
5053.4753173826	0.0012650974
5055.4041247556	0.0012349056
5057.3329321287	0.0012097568
5059.2617395017	0.0012415634
5061.1905468748	0.0012523772
5063.1193542478	0.0012106856
5065.0481616209	0.0012554259
5066.9769689939	0.0013054548
5068.9057763670	0.0012402066
5070.8345837400	0.0011769657
5072.7633911131	0.0011664351
5074.6921984861	0.0012224875
5076.6210058591	0.0012621632
5078.5498132322	0.0012076939
5080.4786206052	0.0011736443
5082.4074279783	0.0012145657
5084.3362353513	0.0012368474
5086.2650427244	0.0012135180
5088.1938500974	0.0011933481
5090.1226574705	0.0012091565
5092.0514648435	0.0011788744
5093.9802722166	0.0011265280
5095.9090795896	0.0011480309
5097.8378869627	0.0011193283
5099.7666943357	0.0011656964
5101.6955017088	0.0012461721
5103.6243090818	0.0011955178
5105.5531164548	0.0011817572
5107.4819238279	0.0011448435
5109.4107312009	0.0011721367
5111.3395385740	0.0011535445
5113.2683459470	0.0010618127
5115.1971533201	0.0011854335
5117.1259606931	0.0011694422
5119.0547680662	0.0010981597
5120.9835754392	0.0011743561
5122.9123828123	0.0011639311
5124.8411901853	0.0011203568
5126.7699975584	0.0010772385
5128.6988049314	0.0011195259
5130.6276123045	0.0011194804
5132.5564196775	0.0011002321
5134.4852270506	0.0011839194
5136.4140344236	0.0011334588
5138.3428417966	0.0010874341
5140.2716491697	0.0011111269
5142.2004565427	0.0011287096
5144.1292639158	0.0011207804
5146.0580712888	0.0010617170
5147.9868786619	0.0010800975
5149.9156860349	0.0010910421
5151.8444934080	0.0011067924
5153.7733007810	0.0011070550
5155.7021081541	0.0010687605
5157.6309155271	0.0010931878
5159.5597229002	0.0010909829
5161.4885302732	0.0010835673
5163.4173376463	0.0010746251
5165.3461450193	0.0010832980
5167.2749523923	0.0010655292
5169.2037597654	0.0010411339
5171.1325671384	0.0010796501
5173.0613745115	0.0010460515
5174.9901818845	0.0010371082
5176.9189892576	0.0010480375
5178.8477966306	0.0010595969
5180.7766040037	0.0010652721
5182.7054113767	0.0010484573
5184.6342187498	0.0010231168
5186.5630261228	0.0009482754
5188.4918334959	0.0010324700
5190.4206408689	0.0010345357
5192.3494482420	0.0009907091
5194.2782556150	0.0010490442
5196.2070629880	0.0009573768
5198.1358703611	0.0009901309
5200.0646777341	0.0010381227
5201.9934851072	0.0010282333
5203.9222924802	0.0010719335
5205.8510998533	0.0010202394
5207.7799072263	0.0009481955
5209.7087145994	0.0009468006
5211.6375219724	0.0010006010
5213.5663293455	0.0009184986
5215.4951367185	0.0009940225
5217.4239440916	0.0010977711
5219.3527514646	0.0009102674
5221.2815588377	0.0009540646
5223.2103662107	0.0010111281
5225.1391735837	0.0009314538
5227.0679809568	0.0009581753
5228.9967883298	0.0009414275
5230.9255957029	0.0009453704
5232.8544030759	0.0009253854
5234.7832104490	0.0009085472
5236.7120178220	0.0009843685
5238.6408251951	0.0010078929
5240.5696325681	0.0010055348
5242.4984399412	0.0009790444
5244.4272473142	0.0008977136
5246.3560546873	0.0008890148
5248.2848620603	0.0009053267
5250.2136694334	0.0008858193
5252.1424768064	0.0009001152
5254.0712841795	0.0009266241
5256.0000915525	0.0009000559
5257.9288989255	0.0008961270
5259.8577062986	0.0009600158
5261.7865136716	0.0008814544
5263.7153210447	0.0008251317
5265.6441284177	0.0009191151
5267.5729357908	0.0009246386
5269.5017431638	0.0008930427
5271.4305505369	0.0009031894
5273.3593579099	0.0009304401
5275.2881652830	0.0008654245
5277.2169726560	0.0008843724
5279.1457800291	0.0009976386
5281.0745874021	0.0009196272
5283.0033947752	0.0008679901
5284.9322021482	0.0009234591
5286.8610095212	0.0009350977
5288.7898168943	0.0008068021
5290.7186242673	0.0007894832
5292.6474316404	0.0008866985
5294.5762390134	0.0007865126
5296.5050463865	0.0008234158
5298.4338537595	0.0008719572
5300.3626611326	0.0008042405
5302.2914685056	0.0008703081
5304.2202758787	0.0008987165
5306.1490832517	0.0008731526
5308.0778906248	0.0008304152
5310.0066979978	0.0008329848
5311.9355053709	0.0008764569
5313.8643127439	0.0008524686
5315.7931201169	0.0008234250
5317.7219274900	0.0008338343
5319.6507348630	0.0008355371
5321.5795422361	0.0008264782
5323.5083496091	0.0008439336
5325.4371569822	0.0008452734
5327.3659643552	0.0008575987
5329.2947717283	0.0008033203
5331.2235791013	0.0007766670
5333.1523864744	0.0008432926
5335.0811938474	0.0007775411
5337.0100012205	0.0007707956
5338.9388085935	0.0007953391
5340.8676159666	0.0007819161
5342.7964233396	0.0008397000
5344.7252307126	0.0007729506
5346.6540380857	0.0008001066
5348.5828454587	0.0008889568
5350.5116528318	0.0008257470
5352.4404602048	0.0007595363
5354.3692675779	0.0007058588
5356.2980749509	0.0008002943
5358.2268823240	0.0008013378
5360.1556896970	0.0007537425
5362.0844970701	0.0008524694
5364.0133044431	0.0007730356
5365.9421118162	0.0008054627
5367.8709191892	0.0008005300
5369.7997265623	0.0006745454
5371.7285339353	0.0007612475
5373.6573413083	0.0007700707
5375.5861486814	0.0007851223
5377.5149560544	0.0007609703
5379.4437634275	0.0007453655
5381.3725708005	0.0008171082
5383.3013781736	0.0007601652
5385.2301855466	0.0007419718
5387.1589929197	0.0007027774
5389.0878002927	0.0007116160
5391.0166076658	0.0007454801
5392.9454150388	0.0006985274
5394.8742224119	0.0007379741
5396.8030297849	0.0007888557
5398.7318371580	0.0007644985
5400.6606445310	0.0007315358
5402.5894519041	0.0007605987
5404.5182592771	0.0007241746
5406.4470666501	0.0007267654
5408.3758740232	0.0007637381
5410.3046813962	0.0007161454
5412.2334887693	0.0006966173
5414.1622961423	0.0006766815
5416.0911035154	0.0007354523
5418.0199108884	0.0007159392
5419.9487182615	0.0006178644
5421.8775256345	0.0006575507
5423.8063330076	0.0007214646
5425.7351403806	0.0006817558
5427.6639477537	0.0006953870
5429.5927551267	0.0007513154
5431.5215624998	0.0006069237
5433.4503698728	0.0006726562
5435.3791772458	0.0007501263
5437.3079846189	0.0006893192
5439.2367919919	0.0007631622
5441.1655993650	0.0006769990
5443.0944067380	0.0007702489
5445.0232141111	0.0007456160
5446.9520214841	0.0005860495
5448.8808288572	0.0007123573
5450.8096362302	0.0006431531
5452.7384436033	0.0006233196
5454.6672509763	0.0006453124
5456.5960583494	0.0005771095
5458.5248657224	0.0006312615
5460.4536730955	0.0006873141
5462.3824804685	0.0006356975
5464.3112878415	0.0005653038
5466.2400952146	0.0006957195
5468.1689025876	0.0006739934
5470.0977099607	0.0006128185
5472.0265173337	0.0006939585
5473.9553247068	0.0006172077
5475.8841320798	0.0006540049
5477.8129394529	0.0007233500
5479.7417468259	0.0006789399
5481.6705541990	0.0006387457
5483.5993615720	0.0006280044
5485.5281689451	0.0006465079
5487.4569763181	0.0005871952
5489.3857836912	0.0006156323
5491.3145910642	0.0006961189
5493.2433984372	0.0006474840
5495.1722058103	0.0006075514
5497.1010131833	0.0006184176
5499.0298205564	0.0005842902
5500.9586279294	0.0005861309
5502.8874353025	0.0006189106
5504.8162426755	0.0006023956
5506.7450500486	0.0006488288
5508.6738574216	0.0006204945
5510.6026647947	0.0005842010
5512.5314721677	0.0006549738
5514.4602795408	0.0006402906
5516.3890869138	0.0006301756
5518.3178942869	0.0005929379
5520.2467016599	0.0005716510
5522.1755090330	0.0005985195
5524.1043164060	0.0005828756
5526.0331237790	0.0005948482
5527.9619311521	0.0005784757
5529.8907385251	0.0005699787
5531.8195458982	0.0005299109
5533.7483532712	0.0005938157
5535.6771606443	0.0006423575
5537.6059680173	0.0004957915
5539.5347753904	0.0005607120
5541.4635827634	0.0005805769
5543.3923901365	0.0005289635
5545.3211975095	0.0006287107
5547.2500048826	0.0006136202
5549.1788122556	0.0006022918
5551.1076196287	0.0005951321
5553.0364270017	0.0005801858
5554.9652343747	0.0005774931
5556.8940417478	0.0005278635
5558.8228491208	0.0005059371
5560.7516564939	0.0005363311
5562.6804638669	0.0005923939
5564.6092712400	0.0005571753
5566.5380786130	0.0005589190
5568.4668859861	0.0006012958
5570.3956933591	0.0005914420
5572.3245007322	0.0005796402
5574.2533081052	0.0005362962
5576.1821154783	0.0005360529
5578.1109228513	0.0005397740
5580.0397302244	0.0005440414
5581.9685375974	0.0005179566
5583.8973449704	0.0004585497
5585.8261523435	0.0004937680
5587.7549597165	0.0005215739
5589.6837670896	0.0004932862
5591.6125744626	0.0005124175
5593.5413818357	0.0005438231
5595.4701892087	0.0004634319
5597.3989965818	0.0004858453
5599.3278039548	0.0005654652
5601.2566113279	0.0004999078
5603.1854187009	0.0005076555
5605.1142260740	0.0004925549
5607.0430334470	0.0005054100
5608.9718408201	0.0005451906
5610.9006481931	0.0004781550
5612.8294555661	0.0004941780
5614.7582629392	0.0004831029
5616.6870703122	0.0004853111
5618.6158776853	0.0005125497
5620.5446850583	0.0005136140
5622.4734924314	0.0005290800
5624.4022998044	0.0004970849
5626.3311071775	0.0005182931
5628.2599145505	0.0005070576
5630.1887219236	0.0005537858
5632.1175292966	0.0005571957
5634.0463366697	0.0004675673
5635.9751440427	0.0005352822
5637.9039514158	0.0004983413
5639.8327587888	0.0004929411
5641.7615661619	0.0005448352
5643.6903735349	0.0004931070
5645.6191809079	0.0004778435
5647.5479882810	0.0004674444
5649.4767956540	0.0004959344
5651.4056030271	0.0004194271
5653.3344104001	0.0004248175
5655.2632177732	0.0005127507
5657.1920251462	0.0004858870
5659.1208325193	0.0005092085
5661.0496398923	0.0004603072
5662.9784472654	0.0004910657
5664.9072546384	0.0005028324
5666.8360620115	0.0004390263
5668.7648693845	0.0004964499
5670.6936767576	0.0004441517
5672.6224841306	0.0004563726
5674.5512915036	0.0005062612
5676.4800988767	0.0004426578
5678.4089062497	0.0004357354
5680.3377136228	0.0004669834
5682.2665209958	0.0005039555
5684.1953283689	0.0004505333
5686.1241357419	0.0004395174
5688.0529431150	0.0005208821
5689.9817504880	0.0004476671
5691.9105578611	0.0004140820
5693.8393652341	0.0004744382
5695.7681726072	0.0004476262
5697.6969799802	0.0004760589
5699.6257873533	0.0004914757
5701.5545947263	0.0004718502
5703.4834020993	0.0004626741
5705.4122094724	0.0004540955
5707.3410168454	0.0004933550
5709.2698242185	0.0004327605
5711.1986315915	0.0004303965
5713.1274389646	0.0004889207
5715.0562463376	0.0004554798
5716.9850537107	0.0003878790
5718.9138610837	0.0003675708
5720.8426684568	0.0004336182
5722.7714758298	0.0004081910
5724.7002832029	0.0004471110
5726.6290905759	0.0004505917
5728.5578979490	0.0003809840
5730.4867053220	0.0003768718
5732.4155126950	0.0003571764
5734.3443200681	0.0004480851
5736.2731274411	0.0003787728
5738.2019348142	0.0003808788
5740.1307421872	0.0004593567
5742.0595495603	0.0003743597
5743.9883569333	0.0004213746
5745.9171643064	0.0004115632
5747.8459716794	0.0004629036
5749.7747790525	0.0004990985
5751.7035864255	0.0004526103
5753.6323937986	0.0003851635
5755.5612011716	0.0003374053
5757.4900085447	0.0004911862
5759.4188159177	0.0004000659
5761.3476232907	0.0003348766
5763.2764306638	0.0004576732
5765.2052380368	0.0004565397
5767.1340454099	0.0004199620
5769.0628527829	0.0003938059
5770.9916601560	0.0004356383
5772.9204675290	0.0003819750
5774.8492749021	0.0003879699
5776.7780822751	0.0004001793
5778.7068896482	0.0003545280
5780.6356970212	0.0003832800
5782.5645043943	0.0003592088
5784.4933117673	0.0004160710
5786.4221191404	0.0004161387
5788.3509265134	0.0004032573
5790.2797338865	0.0004156637
5792.2085412595	0.0003678334
5794.1373486325	0.0003807442
5796.0661560056	0.0003846633
5797.9949633786	0.0004389634
5799.9237707517	0.0004177481
5801.8525781247	0.0003764023
5803.7813854978	0.0004100840
5805.7101928708	0.0003990902
5807.6390002439	0.0004148597
5809.5678076169	0.0003533348
5811.4966149900	0.0003283374
5813.4254223630	0.0003953515
5815.3542297361	0.0003414894
5817.2830371091	0.0003401847
5819.2118444822	0.0004137366
5821.1406518552	0.0003300072
5823.0694592282	0.0002982548
5824.9982666013	0.0003815854
5826.9270739743	0.0003626862
5828.8558813474	0.0003727904
5830.7846887204	0.0004248521
5832.7134960935	0.0003888509
5834.6423034665	0.0003552213
5836.5711108396	0.0003848390
5838.4999182126	0.0003457633
5840.4287255857	0.0002765936
5842.3575329587	0.0002933769
5844.2863403318	0.0003153497
5846.2151477048	0.0003500234
5848.1439550779	0.0003532524
5850.0727624509	0.0003650529
5852.0015698239	0.0003374339
5853.9303771970	0.0002395228
5855.8591845700	0.0002855545
5857.7879919431	0.0002932496
5859.7167993161	0.0002787808
5861.6456066892	0.0003430918
5863.5744140622	0.0003372167
5865.5032214353	0.0003687792
5867.4320288083	0.0003309001
5869.3608361814	0.0002920402
5871.2896435544	0.0003631305
5873.2184509275	0.0003292984
5875.1472583005	0.0003301959
5877.0760656736	0.0003092256
5879.0048730466	0.0002590002
5880.9336804196	0.0003180686
5882.8624877927	0.0002979744
5884.7912951657	0.0003093892
5886.7201025388	0.0003383380
5888.6489099118	0.0003381118
5890.5777172849	0.0003213327
5892.5065246579	0.0002706909
5894.4353320310	0.0003230336
5896.3641394040	0.0003112588
5898.2929467771	0.0003303132
5900.2217541501	0.0003410882
5902.1505615232	0.0002941436
5904.0793688962	0.0003119052
5906.0081762693	0.0002430033
5907.9369836423	0.0003396926
5909.8657910154	0.0003627872
5911.7945983884	0.0002584731
5913.7234057614	0.0003609438
5915.6522131345	0.0003263352
5917.5810205075	0.0002569904
5919.5098278806	0.0002961652
5921.4386352536	0.0003096375
5923.3674426267	0.0002898936
5925.2962499997	0.0002889122
5927.2250573728	0.0003460431
5929.1538647458	0.0003170129
5931.0826721189	0.0002581441
5933.0114794919	0.0002646315
5934.9402868650	0.0002813296
5936.8690942380	0.0002739999
5938.7979016111	0.0002688875
5940.7267089841	0.0002668055
5942.6555163571	0.0002764602
5944.5843237302	0.0002578733
5946.5131311032	0.0002487958
5948.4419384763	0.0003107734
5950.3707458493	0.0002491560
5952.2995532224	0.0002510167
5954.2283605954	0.0003179924
5956.1571679685	0.0002790479
5958.0859753415	0.0002962495
5960.0147827146	0.0002597502
5961.9435900876	0.0002659499
5963.8723974607	0.0003352961
5965.8012048337	0.0003490974
5967.7300122068	0.0003006000
5969.6588195798	0.0002522224
5971.5876269528	0.0003071369
5973.5164343259	0.0002823779
5975.4452416989	0.0002727595
5977.3740490720	0.0002528994
5979.3028564450	0.0002240955
5981.2316638181	0.0002444162
5983.1604711911	0.0002060678
5985.0892785642	0.0002960468
5987.0180859372	0.0003011823
5988.9468933103	0.0002875103
5990.8757006833	0.0003275315
5992.8045080564	0.0002722210
5994.7333154294	0.0003210286
5996.6621228025	0.0002691527
5998.5909301755	0.0002374587
6000.5197375485	0.0002754822
