399.2631262207	0.0012743182
401.1919335938	0.0010701693
403.1207409668	0.0014931674
405.0495483398	0.0015744052
406.9783557129	0.0017171530
408.9071630859	0.0014260371
410.8359704590	0.0013465256
412.7647778320	0.0016501495
414.6935852051	0.0013986444
416.6223925781	0.0016845849
418.5511999512	0.0015192898
420.4800073242	0.0015487385
422.4088146973	0.0020705990
424.3376220703	0.0015141789
426.2664294434	0.0017298239
428.1952368164	0.0020999846
430.1240441895	0.0014990508
432.0528515625	0.0014949897
433.9816589355	0.0017506517
435.9104663086	0.0018197016
437.8392736816	0.0016120742
439.7680810547	0.0014596819
441.6968884277	0.0018056520
443.6256958008	0.0018007944
445.5545031738	0.0012668092
447.4833105469	0.0014581812
449.4121179199	0.0016654916
451.3409252930	0.0011228877
453.2697326660	0.0015327915
455.1985400391	0.0013159832
457.1273474121	0.0009535517
459.0561547852	0.0016073652
460.9849621582	0.0012431433
462.9137695313	0.0014000963
464.8425769043	0.0012443920
466.7713842773	0.0011806891
468.7001916504	0.0014664955
470.6289990234	0.0005272707
472.5578063965	0.0010604599
474.4866137695	0.0012950638
476.4154211426	0.0010976824
478.3442285156	0.0014237376
480.2730358887	0.0012234955
482.2018432617	0.0012703007
484.1306506348	0.0010782580
486.0594580078	0.0013589017
487.9882653809	0.0009055566
489.9170727539	0.0008999232
491.8458801270	0.0013772489
493.7746875000	0.0007503916
495.7034948730	0.0013006036
497.6323022461	0.0011664918
499.5611096191	0.0007113160
501.4899169922	0.0010353853
503.4187243652	0.0006678994
505.3475317383	0.0003904903
507.2763391113	0.0008853409
509.2051464844	0.0010351241
511.1339538574	0.0006080582
513.0627612305	0.0010555170
514.9915686035	0.0008296323
516.9203759766	0.0008675138
518.8491833496	0.0013745937
520.7779907227	0.0008606666
522.7067980957	0.0010436408
524.6356054688	0.0008272215
526.5644128418	0.0005641514
528.4932202148	0.0009597836
530.4220275879	0.0010965066
532.3508349609	0.0009024631
534.2796423340	0.0007156167
536.2084497070	0.0009205564
538.1372570801	0.0006044592
540.0660644531	0.0007751252
541.9948718262	0.0010878948
543.9236791992	0.0006429350
545.8524865723	0.0006076468
547.7812939453	0.0007872012
549.7101013184	0.0008449457
551.6389086914	0.0009138557
553.5677160645	0.0009664800
555.4965234375	0.0007359921
557.4253308105	0.0007550382
559.3541381836	0.0009311777
561.2829455566	0.0009443595
563.2117529297	0.0009215602
565.1405603027	0.0008078486
567.0693676758	0.0011341160
568.9981750488	0.0009016788
570.9269824219	0.0004943867
572.8557897949	0.0008390052
574.7845971680	0.0010791719
576.7134045410	0.0013265864
578.6422119141	0.0011759561
580.5710192871	0.0009316616
582.4998266602	0.0007616887
584.4286340332	0.0004358703
586.3574414063	0.0009319230
588.2862487793	0.0010010219
590.2150561523	0.0008715890
592.1438635254	0.0010802633
594.0726708984	0.0005995609
596.0014782715	0.0010072880
597.9302856445	0.0010027023
599.8590930176	0.0005181510
601.7879003906	0.0010878281
603.7167077637	0.0007837538
605.6455151367	0.0007097198
607.5743225098	0.0007528849
609.5031298828	0.0005880293
611.4319372559	0.0009323478
613.3607446289	0.0005101594
615.2895520020	0.0006867417
617.2183593750	0.0007369146
619.1471667480	0.0005831911
621.0759741211	0.0011187440
623.0047814941	0.0008842843
624.9335888672	0.0007563409
626.8623962402	0.0007754723
628.7912036133	0.0005755656
630.7200109863	0.0007999123
632.6488183594	0.0010470004
634.5776257324	0.0010920197
636.5064331055	0.0013298255
638.4352404785	0.0015987407
640.3640478516	0.0017791181
642.2928552246	0.0017050008
644.2216625977	0.0016074330
646.1504699707	0.0018326817
648.0792773438	0.0018386685
650.0080847168	0.0020099219
651.9368920898	0.0021875815
653.8656994629	0.0019733342
655.7945068359	0.0021605450
657.7233142090	0.0025078650
659.6521215820	0.0025362717
661.5809289551	0.0026789955
663.5097363281	0.0028898651
665.4385437012	0.0029872288
667.3673510742	0.0028351163
669.2961584473	0.0030142206
671.2249658203	0.0034575923
673.1537731934	0.0032506976
675.0825805664	0.0034256380
677.0113879395	0.0036002770
678.9401953125	0.0035103434
680.8690026855	0.0039077876
682.7978100586	0.0039074831
684.7266174316	0.0037959239
686.6554248047	0.0037110632
688.5842321777	0.0037235380
690.5130395508	0.0038931849
692.4418469238	0.0040778099
694.3706542969	0.0046136491
696.2994616699	0.0050963885
698.2282690430	0.0058071148
700.1570764160	0.0061080474
702.0858837891	0.0056670704
704.0146911621	0.0055615380
705.9434985352	0.0050729890
707.8723059082	0.0042344932
709.8011132813	0.0036576069
711.7299206543	0.0025335692
713.6587280273	0.0015887154
715.5875354004	0.0012686892
717.5163427734	0.0007603327
719.4451501465	0.0005158562
721.3739575195	0.0005897625
723.3027648926	0.0004544877
725.2315722656	0.0005273765
727.1603796387	0.0007971087
729.0891870117	0.0005552631
731.0179943848	0.0007355958
732.9468017578	0.0010138217
734.8756091309	0.0006928319
736.8044165039	0.0008181110
738.7332238770	0.0008818859
740.6620312500	0.0006887520
742.5908386230	0.0008186908
744.5196459961	0.0007340793
746.4484533691	0.0005801358
748.3772607422	0.0008115995
750.3060681152	0.0006050493
752.2348754883	0.0007400357
754.1636828613	0.0012274864
756.0924902344	0.0008322885
758.0212976074	0.0009465839
759.9501049805	0.0011728326
761.8789123535	0.0008585858
763.8077197266	0.0010902387
765.7365270996	0.0010277223
767.6653344727	0.0006056067
769.5941418457	0.0008159492
771.5229492188	0.0008798926
773.4517565918	0.0007863864
775.3805639648	0.0011043253
777.3093713379	0.0009707598
779.2381787109	0.0007164588
781.1669860840	0.0008719919
783.0957934570	0.0008259011
785.0246008301	0.0007459890
786.9534082031	0.0007280782
788.8822155762	0.0006852070
790.8110229492	0.0008297866
792.7398303223	0.0009703755
794.6686376953	0.0009422193
796.5974450684	0.0007969758
798.5262524414	0.0010713832
800.4550598145	0.0014490567
802.3838671875	0.0013353885
804.3126745605	0.0011071833
806.2414819336	0.0008424796
808.1702893066	0.0010901319
810.0990966797	0.0008686637
812.0279040527	0.0003592969
813.9567114258	0.0006921630
815.8855187988	0.0005489014
817.8143261719	0.0006529449
819.7431335449	0.0009228829
821.6719409180	0.0008715846
823.6007482910	0.0009262703
825.5295556641	0.0007401677
827.4583630371	0.0008771123
829.3871704102	0.0011098443
831.3159777832	0.0012447884
833.2447851563	0.0013589355
835.1735925293	0.0015137640
837.1023999023	0.0017374165
839.0312072754	0.0017529862
840.9600146484	0.0014977821
842.8888220215	0.0015090115
844.8176293945	0.0015230991
846.7464367676	0.0014191838
848.6752441406	0.0016239376
850.6040515137	0.0011990461
852.5328588867	0.0010877637
854.4616662598	0.0011043794
856.3904736328	0.0009354249
858.3192810059	0.0010598130
860.2480883789	0.0007822122
862.1768957520	0.0010617628
864.1057031250	0.0008610478
866.0345104980	0.0006759659
867.9633178711	0.0007679749
869.8921252441	0.0005169411
871.8209326172	0.0008028615
873.7497399902	0.0005189590
875.6785473633	0.0006819298
877.6073547363	0.0007783871
879.5361621094	0.0007142600
881.4649694824	0.0009403691
883.3937768555	0.0005112509
885.3225842285	0.0006639397
887.2513916016	0.0006023296
889.1801989746	0.0006111774
891.1090063477	0.0009500434
893.0378137207	0.0008515723
894.9666210938	0.0008318870
896.8954284668	0.0008031602
898.8242358398	0.0009007265
900.7530432129	0.0005276020
902.6818505859	0.0003282351
904.6106579590	0.0008308075
906.5394653320	0.0007255676
908.4682727051	0.0004745821
910.3970800781	0.0006304066
912.3258874512	0.0006534517
914.2546948242	0.0010343245
916.1835021973	0.0014916532
918.1123095703	0.0013723148
920.0411169434	0.0011308724
921.9699243164	0.0013590703
923.8987316895	0.0015568244
925.8275390625	0.0015356435
927.7563464355	0.0018673623
929.6851538086	0.0021309028
931.6139611816	0.0022581099
933.5427685547	0.0022878344
935.4715759277	0.0025456161
937.4003833008	0.0027409524
939.3291906738	0.0027922415
941.2579980469	0.0030300096
943.1868054199	0.0026760795
945.1156127930	0.0026977102
947.0444201660	0.0029182904
948.9732275391	0.0029138541
950.9020349121	0.0030202293
952.8308422852	0.0027250405
954.7596496582	0.0026833955
956.6884570313	0.0026244069
958.6172644043	0.0025834686
960.5460717773	0.0027170747
962.4748791504	0.0027389980
964.4036865234	0.0027996683
966.3324938965	0.0027193937
968.2613012695	0.0029802946
970.1901086426	0.0032736587
972.1189160156	0.0031860895
974.0477233887	0.0034860945
975.9765307617	0.0039173979
977.9053381348	0.0040639946
979.8341455078	0.0047244634
981.7629528809	0.0051617934
983.6917602539	0.0054116119
985.6205676270	0.0063706664
987.5493750000	0.0070270635
989.4781823730	0.0076339608
991.4069897461	0.0084349513
993.3357971191	0.0093273241
995.2646044922	0.0101684425
997.1934118652	0.0108889490
999.1222192383	0.0120098479
1001.0510266113	0.0129408445
1002.9798339844	0.0138077978
1004.9086413574	0.0148699526
1006.8374487305	0.0158112980
1008.7662561035	0.0166548006
1010.6950634766	0.0177601762
1012.6238708496	0.0187782533
1014.5526782227	0.0196247846
1016.4814855957	0.0207747295
1018.4102929688	0.0215909518
1020.3391003418	0.0225532167
1022.2679077148	0.0236234888
1024.1967150879	0.0243294332
1026.1255224609	0.0251437575
1028.0543298340	0.0260532405
1029.9831372070	0.0268369876
1031.9119445801	0.0275816023
1033.8407519531	0.0282844305
1035.7695593262	0.0283267759
1037.6983666992	0.0286496803
1039.6271740723	0.0289886091
1041.5559814453	0.0288337953
1043.4847888184	0.0287594199
1045.4135961914	0.0284311622
1047.3424035645	0.0283841901
1049.2712109375	0.0277587380
1051.2000183105	0.0270637535
1053.1288256836	0.0267282315
1055.0576330566	0.0260415245
1056.9864404297	0.0257050302
1058.9152478027	0.0248759538
1060.8440551758	0.0241539311
1062.7728625488	0.0235678963
1064.7016699219	0.0225523934
1066.6304772949	0.0219373479
1068.5592846680	0.0210847463
1070.4880920410	0.0201379433
1072.4168994141	0.0192595609
1074.3457067871	0.0180076472
1076.2745141602	0.0171160698
1078.2033215332	0.0166596454
1080.1321289062	0.0158741176
1082.0609362793	0.0150942542
1083.9897436523	0.0145533122
1085.9185510254	0.0141122304
1087.8473583984	0.0133027826
1089.7761657715	0.0122940289
1091.7049731445	0.0120508447
1093.6337805176	0.0114652906
1095.5625878906	0.0109043205
1097.4913952637	0.0108000897
1099.4202026367	0.0102204587
1101.3490100098	0.0101165846
1103.2778173828	0.0099559147
1105.2066247559	0.0095710577
1107.1354321289	0.0095662829
1109.0642395019	0.0093731768
1110.9930468750	0.0093798283
1112.9218542480	0.0092504928
1114.8506616211	0.0089087822
1116.7794689941	0.0090188356
1118.7082763672	0.0090144882
1120.6370837402	0.0090468284
1122.5658911133	0.0091943033
1124.4946984863	0.0091273179
1126.4235058594	0.0093266526
1128.3523132324	0.0096031651
1130.2811206055	0.0097875036
1132.2099279785	0.0099781509
1134.1387353516	0.0102272220
1136.0675427246	0.0105848983
1137.9963500977	0.0111150062
1139.9251574707	0.0118644126
1141.8539648437	0.0126630310
1143.7827722168	0.0136720650
1145.7115795898	0.0146364868
1147.6403869629	0.0154350642
1149.5691943359	0.0161543414
1151.4980017090	0.0170353893
1153.4268090820	0.0179138929
1155.3556164551	0.0185535811
1157.2844238281	0.0194228999
1159.2132312012	0.0201970153
1161.1420385742	0.0210025087
1163.0708459473	0.0217280500
1164.9996533203	0.0224044900
1166.9284606934	0.0232749507
1168.8572680664	0.0242576618
1170.7860754394	0.0254251622
1172.7148828125	0.0263238996
1174.6436901855	0.0272462033
1176.5724975586	0.0280867517
1178.5013049316	0.0292266160
1180.4301123047	0.0303501114
1182.3589196777	0.0315518118
1184.2877270508	0.0332405046
1186.2165344238	0.0343403667
1188.1453417969	0.0359016806
1190.0741491699	0.0375140049
1192.0029565430	0.0392866731
1193.9317639160	0.0412229188
1195.8605712891	0.0428031236
1197.7893786621	0.0451067835
1199.7181860351	0.0471238457
1201.6469934082	0.0491588265
1203.5758007812	0.0511026606
1205.5046081543	0.0530806929
1207.4334155273	0.0550809726
1209.3622229004	0.0566475540
1211.2910302734	0.0585244857
1213.2198376465	0.0600210875
1215.1486450195	0.0616168082
1217.0774523926	0.0629781857
1219.0062597656	0.0641218647
1220.9350671387	0.0650235862
1222.8638745117	0.0655900016
1224.7926818848	0.0664050058
1226.7214892578	0.0667639002
1228.6502966308	0.0671737269
1230.5791040039	0.0674649775
1232.5079113769	0.0677838102
1234.4367187500	0.0677216277
1236.3655261230	0.0676724315
1238.2943334961	0.0676837564
1240.2231408691	0.0671391860
1242.1519482422	0.0673096776
1244.0807556152	0.0667027235
1246.0095629883	0.0662150234
1247.9383703613	0.0662134886
1249.8671777344	0.0655334741
1251.7959851074	0.0651519895
1253.7247924805	0.0646339580
1255.6535998535	0.0639472604
1257.5824072266	0.0628010631
1259.5112145996	0.0616626069
1261.4400219726	0.0607436672
1263.3688293457	0.0599758774
1265.2976367187	0.0592652783
1267.2264440918	0.0585903525
1269.1552514648	0.0580384135
1271.0840588379	0.0567829646
1273.0128662109	0.0558687449
1274.9416735840	0.0549287871
1276.8704809570	0.0537770018
1278.7992883301	0.0528095886
1280.7280957031	0.0516913123
1282.6569030762	0.0507528149
1284.5857104492	0.0496973768
1286.5145178223	0.0488866195
1288.4433251953	0.0480215400
1290.3721325683	0.0472086854
1292.3009399414	0.0468463749
1294.2297473144	0.0465473756
1296.1585546875	0.0462828130
1298.0873620605	0.0463298075
1300.0161694336	0.0461467393
1301.9449768066	0.0462833531
1303.8737841797	0.0471514985
1305.8025915527	0.0472417921
1307.7313989258	0.0479842760
1309.6602062988	0.0488363318
1311.5890136719	0.0494640917
1313.5178210449	0.0506866723
1315.4466284180	0.0517375544
1317.3754357910	0.0531243756
1319.3042431640	0.0541915968
1321.2330505371	0.0560607538
1323.1618579101	0.0578232072
1325.0906652832	0.0593250096
1327.0194726562	0.0611895621
1328.9482800293	0.0624546036
1330.8770874023	0.0642726049
1332.8058947754	0.0654459149
1334.7347021484	0.0668954849
1336.6635095215	0.0677703768
1338.5923168945	0.0673473775
1340.5211242676	0.0685559511
1342.4499316406	0.0705765039
1344.3787390137	0.0713013113
1346.3075463867	0.0710970014
1348.2363537597	0.0710820630
1350.1651611328	0.0705295503
1352.0939685058	0.0703891665
1354.0227758789	0.0697589889
1355.9515832519	0.0689819530
1357.8803906250	0.0686809868
1359.8091979980	0.0674010217
1361.7380053711	0.0652730763
1363.6668127441	0.0641207099
1365.5956201172	0.0665522739
1367.5244274902	0.0655008256
1369.4532348633	0.0644848645
1371.3820422363	0.0656450987
1373.3108496094	0.0624649301
1375.2396569824	0.0630799085
1377.1684643555	0.0641993359
1379.0972717285	0.0637181252
1381.0260791015	0.0640835613
1382.9548864746	0.0636561811
1384.8836938476	0.0638870448
1386.8125012207	0.0616541244
1388.7413085937	0.0624429360
1390.6701159668	0.0665266812
1392.5989233398	0.0652895421
1394.5277307129	0.0619234815
1396.4565380859	0.0644068420
1398.3853454590	0.0646890551
1400.3141528320	0.0642476231
1402.2429602051	0.0685825273
1404.1717675781	0.0653610304
1406.1005749512	0.0655347854
1408.0293823242	0.0674856082
1409.9581896972	0.0653784275
1411.8869970703	0.0664446354
1413.8158044433	0.0642731637
1415.7446118164	0.0654303133
1417.6734191894	0.0600057058
1419.6022265625	0.0546540245
1421.5310339355	0.0608858652
1423.4598413086	0.0591321141
1425.3886486816	0.0572165847
1427.3174560547	0.0573684946
1429.2462634277	0.0538383350
1431.1750708008	0.0522217602
1433.1038781738	0.0526668429
1435.0326855469	0.0484520271
1436.9614929199	0.0422126055
1438.8903002929	0.0464942381
1440.8191076660	0.0468893945
1442.7479150390	0.0440495089
1444.6767224121	0.0456881374
1446.6055297851	0.0424678698
1448.5343371582	0.0430476516
1450.4631445312	0.0443914868
1452.3919519043	0.0452148467
1454.3207592773	0.0469944030
1456.2495666504	0.0404975526
1458.1783740234	0.0422871113
1460.1071813965	0.0538338944
1462.0359887695	0.0568612143
1463.9647961426	0.0572920069
1465.8936035156	0.0596926510
1467.8224108886	0.0670277327
1469.7512182617	0.0721210837
1471.6800256347	0.0664069653
1473.6088330078	0.0697700158
1475.5376403808	0.0782830864
1477.4664477539	0.0840614438
1479.3952551269	0.0913279578
1481.3240625000	0.0932642072
1483.2528698730	0.0984859914
1485.1816772461	0.1018568724
1487.1104846191	0.1015196592
1489.0392919922	0.1018734723
1490.9680993652	0.1030441225
1492.8969067383	0.1163205579
1494.8257141113	0.1148596853
1496.7545214843	0.1059043258
1498.6833288574	0.1175290868
1500.6121362304	0.1210040897
1502.5409436035	0.1281465143
1504.4697509765	0.1229704022
1506.3985583496	0.0956644565
1508.3273657226	0.1124081016
1510.2561730957	0.1281376481
1512.1849804687	0.1246474981
1514.1137878418	0.1333380044
1516.0425952148	0.1227000952
1517.9714025879	0.1274099648
1519.9002099609	0.1234983057
1521.8290173340	0.1102824360
1523.7578247070	0.1295039058
1525.6866320801	0.1275921762
1527.6154394531	0.1273889244
1529.5442468261	0.1380000710
1531.4730541992	0.1338195652
1533.4018615722	0.1246293932
1535.3306689453	0.1304785609
1537.2594763183	0.1376422644
1539.1882836914	0.1051479205
1541.1170910644	0.1086030453
1543.0458984375	0.1259255409
1544.9747058105	0.1219037622
1546.9035131836	0.1390101314
1548.8323205566	0.1316877306
1550.7611279297	0.1349153072
1552.6899353027	0.1338716000
1554.6187426758	0.1238352135
1556.5475500488	0.1309737414
1558.4763574218	0.0993096530
1560.4051647949	0.1043267548
1562.3339721679	0.1387173980
1564.2627795410	0.1325334013
1566.1915869140	0.1352549493
1568.1203942871	0.1342802942
1570.0492016601	0.1214291379
1571.9780090332	0.1357564032
1573.9068164062	0.1369852722
1575.8356237793	0.1131534353
1577.7644311523	0.1244722679
1579.6932385254	0.1373577565
1581.6220458984	0.1317709088
1583.5508532715	0.1346076131
1585.4796606445	0.1324874908
1587.4084680175	0.1328797638
1589.3372753906	0.1317991316
1591.2660827636	0.1310674399
1593.1948901367	0.1309290975
1595.1236975097	0.1290819049
1597.0525048828	0.1302315295
1598.9813122558	0.1288974583
1600.9101196289	0.1288208663
1602.8389270019	0.1263069212
1604.7677343750	0.1273430586
1606.6965417480	0.1253295541
1608.6253491211	0.1243743151
1610.5541564941	0.1236445904
1612.4829638672	0.1234314889
1614.4117712402	0.1242543012
1616.3405786132	0.1044149399
1618.2693859863	0.1107571200
1620.1981933593	0.1251712441
1622.1270007324	0.1128091291
1624.0558081054	0.1130957156
1625.9846154785	0.1165392548
1627.9134228515	0.1159188151
1629.8422302246	0.1146444008
1631.7710375976	0.1204562783
1633.6998449707	0.1129544675
1635.6286523437	0.0963363647
1637.5574597168	0.1089268178
1639.4862670898	0.1175303236
1641.4150744629	0.1153850704
1643.3438818359	0.1181024462
1645.2726892090	0.1087451428
1647.2014965820	0.0985037684
1649.1303039550	0.1177390218
1651.0591113281	0.1129351854
1652.9879187011	0.0795385391
1654.9167260742	0.1019523665
1656.8455334472	0.1233667657
1658.7743408203	0.1191253215
1660.7031481933	0.1228556186
1662.6319555664	0.1142269000
1664.5607629394	0.1197548509
1666.4895703125	0.1273814142
1668.4183776855	0.1153398305
1670.3471850586	0.1132243276
1672.2759924316	0.1253668070
1674.2047998047	0.1183995530
1676.1336071777	0.1147758663
1678.0624145507	0.1292935610
1679.9912219238	0.1261075437
1681.9200292968	0.1258508563
1683.8488366699	0.1069164723
1685.7776440429	0.1057475805
1687.7064514160	0.1381814629
1689.6352587890	0.1235962585
1691.5640661621	0.1335245967
1693.4928735351	0.1368239969
1695.4216809082	0.1057581678
1697.3504882812	0.1257854104
1699.2792956543	0.1147841960
1701.2081030273	0.1051965952
1703.1369104004	0.1357785612
1705.0657177734	0.1272187680
1706.9945251464	0.1280063093
1708.9233325195	0.1373688430
1710.8521398925	0.1328002065
1712.7809472656	0.1353355348
1714.7097546386	0.1278398931
1716.6385620117	0.1169771254
1718.5673693847	0.1155905053
1720.4961767578	0.1331115365
1722.4249841308	0.1373130381
1724.3537915039	0.1292871833
1726.2825988769	0.1384930909
1728.2114062500	0.1297786087
1730.1402136230	0.1309768856
1732.0690209961	0.1281974614
1733.9978283691	0.1031160802
1735.9266357421	0.1223253533
1737.8554431152	0.1335475743
1739.7842504882	0.1215374321
1741.7130578613	0.1304790676
1743.6418652343	0.1327250302
1745.5706726074	0.1327297688
1747.4994799804	0.1343733966
1749.4282873535	0.1299264282
1751.3570947265	0.1252555400
1753.2859020996	0.1361019611
1755.2147094726	0.1414398551
1757.1435168457	0.1315635741
1759.0723242187	0.1418577731
1761.0011315918	0.1352615207
1762.9299389648	0.1314272732
1764.8587463379	0.1466757357
1766.7875537109	0.1346081793
1768.7163610839	0.1355952621
1770.6451684570	0.1353739202
1772.5739758300	0.1239148527
1774.5027832031	0.1354665160
1776.4315905761	0.1417808384
1778.3603979492	0.1400756240
1780.2892053222	0.1390725970
1782.2180126953	0.1398760974
1784.1468200683	0.1396266371
1786.0756274414	0.1373256892
1788.0044348144	0.1430527866
1789.9332421875	0.1403698027
1791.8620495605	0.1296528578
1793.7908569336	0.1338120401
1795.7196643066	0.1418367624
1797.6484716796	0.1403092444
1799.5772790527	0.1384947896
1801.5060864257	0.1369435191
1803.4348937988	0.1402189285
1805.3637011718	0.1426524073
1807.2925085449	0.1410665959
1809.2213159179	0.1415122747
1811.1501232910	0.1386240125
1813.0789306640	0.1418121606
1815.0077380371	0.1424607038
1816.9365454101	0.1412014663
1818.8653527832	0.1420927644
1820.7941601562	0.1414754093
1822.7229675293	0.1433137506
1824.6517749023	0.1360385120
1826.5805822753	0.1396854818
1828.5093896484	0.1398362219
1830.4381970214	0.1329320967
1832.3670043945	0.1421865225
1834.2958117675	0.1414119899
1836.2246191406	0.1412004679
1838.1534265136	0.1406370252
1840.0822338867	0.1411605626
1842.0110412597	0.1415809095
1843.9398486328	0.1288003474
1845.8686560058	0.1351042986
1847.7974633789	0.1411851794
1849.7262707519	0.1387098581
1851.6550781250	0.1418585032
1853.5838854980	0.1396877468
1855.5126928710	0.1406514943
1857.4415002441	0.1399950087
1859.3703076171	0.1392002851
1861.2991149902	0.1398390234
1863.2279223632	0.1385890841
1865.1567297363	0.1397019625
1867.0855371093	0.1360237896
1869.0143444824	0.1314596236
1870.9431518554	0.1355535090
1872.8719592285	0.1395278871
1874.8007666015	0.1376180947
1876.7295739746	0.1382418573
1878.6583813476	0.1377715766
1880.5871887207	0.1371384561
1882.5159960937	0.1380011439
1884.4448034667	0.1360844076
1886.3736108398	0.1376195401
1888.3024182128	0.1352843344
1890.2312255859	0.1330868006
1892.1600329589	0.1370549649
1894.0888403320	0.1355180740
1896.0176477050	0.1347683668
1897.9464550781	0.1360941976
1899.8752624511	0.1353122890
1901.8040698242	0.1355308443
1903.7328771972	0.1350112557
1905.6616845703	0.1352907121
1907.5904919433	0.1342203021
1909.5192993164	0.1334094107
1911.4481066894	0.1341387033
1913.3769140625	0.1342110932
1915.3057214355	0.1349915266
1917.2345288085	0.1302898228
1919.1633361816	0.1302140057
1921.0921435546	0.1341809034
1923.0209509277	0.1309330761
1924.9497583007	0.1328708380
1926.8785656738	0.1338543892
1928.8073730468	0.1325849742
1930.7361804199	0.1337174177
1932.6649877929	0.1321776509
1934.5937951660	0.1331815571
1936.5226025390	0.1324280798
1938.4514099121	0.1326638460
1940.3802172851	0.1325729191
1942.3090246582	0.1292530149
1944.2378320312	0.1309188306
1946.1666394042	0.1319123209
1948.0954467773	0.1317036450
1950.0242541503	0.1320098042
1951.9530615234	0.1315354705
1953.8818688964	0.1317109168
1955.8106762695	0.1313519776
1957.7394836425	0.1314888149
1959.6682910156	0.1314509958
1961.5970983886	0.1310625374
1963.5259057617	0.1313013285
1965.4547131347	0.1306258440
1967.3835205078	0.1294219941
1969.3123278808	0.1304830462
1971.2411352539	0.1309606433
1973.1699426269	0.1301687956
1975.0987499999	0.1304531097
1977.0275573730	0.1299279332
1978.9563647460	0.1300196350
1980.8851721191	0.1297245622
1982.8139794921	0.1293284893
1984.7427868652	0.1296615899
1986.6715942382	0.1287953854
1988.6004016113	0.1288835704
1990.5292089843	0.1278797686
1992.4580163574	0.1266697943
1994.3868237304	0.1279757321
1996.3156311035	0.1282400489
1998.2444384765	0.1277028471
2000.1732458496	0.1276012361
2002.1020532226	0.1272637993
2004.0308605956	0.1271403283
2005.9596679687	0.1267083585
2007.8884753417	0.1263157725
2009.8172827148	0.1261377037
2011.7460900878	0.1256760210
2013.6748974609	0.1257135719
2015.6037048339	0.1249755099
2017.5325122070	0.1241373941
2019.4613195800	0.1245275736
2021.3901269531	0.1244322658
2023.3189343261	0.1242083535
2025.2477416992	0.1238948405
2027.1765490722	0.1235371530
2029.1053564453	0.1234175190
2031.0341638183	0.1230633408
2032.9629711914	0.1228392720
2034.8917785644	0.1224226058
2036.8205859374	0.1222311854
2038.7493933105	0.1220152527
2040.6782006835	0.1213386208
2042.6070080566	0.1212041900
2044.5358154296	0.1210722625
2046.4646228027	0.1207005084
2048.3934301757	0.1205327585
2050.3222375488	0.1202892065
2052.2510449218	0.1201781929
2054.1798522949	0.1198345050
2056.1086596679	0.1195553616
2058.0374670410	0.1193444729
2059.9662744140	0.1188166961
2061.8950817871	0.1188444644
2063.8238891601	0.1183670759
2065.7526965331	0.1178402007
2067.6815039062	0.1179861501
2069.6103112792	0.1177786440
2071.5391186523	0.1176923513
2073.4679260253	0.1172487587
2075.3967333984	0.1168569550
2077.3255407714	0.1168810874
2079.2543481445	0.1167052835
2081.1831555175	0.1164634377
2083.1119628906	0.1161156744
2085.0407702636	0.1158828586
2086.9695776367	0.1156490296
2088.8983850097	0.1154547483
2090.8271923828	0.1151569337
2092.7559997558	0.1149122715
2094.6848071288	0.1148405820
2096.6136145019	0.1146254092
2098.5424218749	0.1143544316
2100.4712292480	0.1141437292
2102.4000366210	0.1141448468
2104.3288439941	0.1138746962
2106.2576513671	0.1135477796
2108.1864587402	0.1133496463
2110.1152661132	0.1131690368
2112.0440734863	0.1130897552
2113.9728808593	0.1128082871
2115.9016882324	0.1126376539
2117.8304956054	0.1125624701
2119.7593029785	0.1122893840
2121.6881103515	0.1119814813
2123.6169177245	0.1119121462
2125.5457250976	0.1118091717
2127.4745324706	0.1117288917
2129.4033398437	0.1115784347
2131.3321472167	0.1112377569
2133.2609545898	0.1112414822
2135.1897619628	0.1110563129
2137.1185693359	0.1108515859
2139.0473767089	0.1108262986
2140.9761840820	0.1106330305
2142.9049914550	0.1104446426
2144.8337988281	0.1103537381
2146.7626062011	0.1102466285
2148.6914135742	0.1100093573
2150.6202209472	0.1099748388
2152.5490283203	0.1098762527
2154.4778356933	0.1097258776
2156.4066430663	0.1094649583
2158.3354504394	0.1092702746
2160.2642578124	0.1091779917
2162.1930651855	0.1089374870
2164.1218725585	0.1089788973
2166.0506799316	0.1087740213
2167.9794873046	0.1086745411
2169.9082946777	0.1085498482
2171.8371020507	0.1083802730
2173.7659094238	0.1084656417
2175.6947167968	0.1082731485
2177.6235241699	0.1081580445
2179.5523315429	0.1078564972
2181.4811389160	0.1078485399
2183.4099462890	0.1078145355
2185.3387536620	0.1075508818
2187.2675610351	0.1075477079
2189.1963684081	0.1074015349
2191.1251757812	0.1074021384
2193.0539831542	0.1071968675
2194.9827905273	0.1070395261
2196.9115979003	0.1069639623
2198.8404052734	0.1068277881
2200.7692126464	0.1066795290
2202.6980200195	0.1065240502
2204.6268273925	0.1064761356
2206.5556347656	0.1062020585
2208.4844421386	0.1061338335
2210.4132495117	0.1059566885
2212.3420568847	0.1059609950
2214.2708642577	0.1059297472
2216.1996716308	0.1056211591
2218.1284790038	0.1056016237
2220.0572863769	0.1054232195
2221.9860937499	0.1053885147
2223.9149011230	0.1052081734
2225.8437084960	0.1050630733
2227.7725158691	0.1049794108
2229.7013232421	0.1048202813
2231.6301306152	0.1047557145
2233.5589379882	0.1045232117
2235.4877453613	0.1043684781
2237.4165527343	0.1041061804
2239.3453601074	0.1040920764
2241.2741674804	0.1038886011
2243.2029748534	0.1036458090
2245.1317822265	0.1034751683
2247.0605895995	0.1032114401
2248.9893969726	0.1033491418
2250.9182043456	0.1030806005
2252.8470117187	0.1029924452
2254.7758190917	0.1029229611
2256.7046264648	0.1026707739
2258.6334338378	0.1025965661
2260.5622412109	0.1024725139
2262.4910485839	0.1023778468
2264.4198559570	0.1020666584
2266.3486633300	0.1020732522
2268.2774707031	0.1018919200
2270.2062780761	0.1018145829
2272.1350854491	0.1017834768
2274.0638928222	0.1014651284
2275.9927001952	0.1015948504
2277.9215075683	0.1013811529
2279.8503149413	0.1012086719
2281.7791223144	0.1012494415
2283.7079296874	0.1011490375
2285.6367370605	0.1009296700
2287.5655444335	0.1007064581
2289.4943518066	0.1005378962
2291.4231591796	0.1002278626
2293.3519665527	0.1000068933
2295.2807739257	0.0995646119
2297.2095812988	0.0993026942
2299.1383886718	0.0990502983
2301.0671960449	0.0986712575
2302.9960034179	0.0982186645
2304.9248107909	0.0975392163
2306.8536181640	0.0970706195
2308.7824255370	0.0963596180
2310.7112329101	0.0955339521
2312.6400402831	0.0945679471
2314.5688476562	0.0936576575
2316.4976550292	0.0926770717
2318.4264624023	0.0913701579
2320.3552697753	0.0900523812
2322.2840771484	0.0885405689
2324.2128845214	0.0875152349
2326.1416918945	0.0865527689
2328.0704992675	0.0855182409
2329.9993066406	0.0845267102
2331.9281140136	0.0837397426
2333.8569213866	0.0835115314
2335.7857287597	0.0829376057
2337.7145361327	0.0828275830
2339.6433435058	0.0829105228
2341.5721508788	0.0831741840
2343.5009582519	0.0843947604
2345.4297656249	0.0858903229
2347.3585729980	0.0896117687
2349.2873803710	0.0926947817
2351.2161877441	0.0895950645
2353.1449951171	0.0847418234
2355.0738024902	0.0817425102
2357.0026098632	0.0790471137
2358.9314172363	0.0775174052
2360.8602246093	0.0766066611
2362.7890319823	0.0763469487
2364.7178393554	0.0770187527
2366.6466467284	0.0778755918
2368.5754541015	0.0796821564
2370.5042614745	0.0817295089
2372.4330688476	0.0839602351
2374.3618762206	0.0864011943
2376.2906835937	0.0886489823
2378.2194909667	0.0908170864
2380.1482983398	0.0922782719
2382.0771057128	0.0932756066
2384.0059130859	0.0939581916
2385.9347204589	0.0943190604
2387.8635278320	0.0944059640
2389.7923352050	0.0944036692
2391.7211425780	0.0943456665
2393.6499499511	0.0941556990
2395.5787573241	0.0940640122
2397.5075646972	0.0939521641
2399.4363720702	0.0938258916
2401.3651794433	0.0935276970
2403.2939868163	0.0934938490
2405.2227941894	0.0935192406
2407.1516015624	0.0932807177
2409.0804089355	0.0931918621
2411.0092163085	0.0930512920
2412.9380236816	0.0929381251
2414.8668310546	0.0928468853
2416.7956384277	0.0927654505
2418.7244458007	0.0924853534
2420.6532531738	0.0923468173
2422.5820605468	0.0923465267
2424.5108679198	0.0921168923
2426.4396752929	0.0920984298
2428.3684826659	0.0919751674
2430.2972900390	0.0918610767
2432.2260974120	0.0916928202
2434.1549047851	0.0915749297
2436.0837121581	0.0915068388
2438.0125195312	0.0911896676
2439.9413269042	0.0911609009
2441.8701342773	0.0911056772
2443.7989416503	0.0910149366
2445.7277490234	0.0908655226
2447.6565563964	0.0907365382
2449.5853637695	0.0907011554
2451.5141711425	0.0905497819
2453.4429785155	0.0904662237
2455.3717858886	0.0902315155
2457.3005932616	0.0901980549
2459.2294006347	0.0901765525
2461.1582080077	0.0900633335
2463.0870153808	0.0899057239
2465.0158227538	0.0896432847
2466.9446301269	0.0896334052
2468.8734374999	0.0894118771
2470.8022448730	0.0893670768
2472.7310522460	0.0894499570
2474.6598596191	0.0892169848
2476.5886669921	0.0890632719
2478.5174743652	0.0889227539
2480.4462817382	0.0888525695
2482.3750891112	0.0887439400
2484.3038964843	0.0885692760
2486.2327038573	0.0884289518
2488.1615112304	0.0883487687
2490.0903186034	0.0883415490
2492.0191259765	0.0881860554
2493.9479333495	0.0880099535
2495.8767407226	0.0879251435
2497.8055480956	0.0878289491
2499.7343554687	0.0877178758
2501.6631628417	0.0875413567
2503.5919702148	0.0874088183
2505.5207775878	0.0873407125
2507.4495849609	0.0871700048
2509.3783923339	0.0870687515
2511.3071997069	0.0868889540
2513.2360070800	0.0868030190
2515.1648144530	0.0868749842
2517.0936218261	0.0866059437
2519.0224291991	0.0865527391
2520.9512365722	0.0864621103
2522.8800439452	0.0861681402
2524.8088513183	0.0861917138
2526.7376586913	0.0860227793
2528.6664660644	0.0859644488
2530.5952734374	0.0859431848
2532.5240808105	0.0856573433
2534.4528881835	0.0856414065
2536.3816955566	0.0855793804
2538.3105029296	0.0854515210
2540.2393103027	0.0854260176
2542.1681176757	0.0851828605
2544.0969250487	0.0849818438
2546.0257324218	0.0849511027
2547.9545397948	0.0848533809
2549.8833471679	0.0847046226
2551.8121545409	0.0845575929
2553.7409619140	0.0844622850
2555.6697692870	0.0843422711
2557.5985766601	0.0842354521
2559.5273840331	0.0841232240
2561.4561914062	0.0839500576
2563.3849987792	0.0839727223
2565.3138061523	0.0838295668
2567.2426135253	0.0835896879
2569.1714208984	0.0836548209
2571.1002282714	0.0834767222
2573.0290356444	0.0832173079
2574.9578430175	0.0831663907
2576.8866503905	0.0830525309
2578.8154577636	0.0829690546
2580.7442651366	0.0828757361
2582.6730725097	0.0826866478
2584.6018798827	0.0826003999
2586.5306872558	0.0826312080
2588.4594946288	0.0823614746
2590.3883020019	0.0820516571
2592.3171093749	0.0820786506
2594.2459167480	0.0820672885
2596.1747241210	0.0819775239
2598.1035314941	0.0817747414
2600.0323388671	0.0816398263
2601.9611462401	0.0815559030
2603.8899536132	0.0813968778
2605.8187609862	0.0813819468
2607.7475683593	0.0811709538
2609.6763757323	0.0810899734
2611.6051831054	0.0810904056
2613.5339904784	0.0808586925
2615.4627978515	0.0808371753
2617.3916052245	0.0807722807
2619.3204125976	0.0806547105
2621.2492199706	0.0804492533
2623.1780273437	0.0801452547
2625.1068347167	0.0800967067
2627.0356420898	0.0800656229
2628.9644494628	0.0799430460
2630.8932568358	0.0798671469
2632.8220642089	0.0797563791
2634.7508715819	0.0795974731
2636.6796789550	0.0794597864
2638.6084863280	0.0793485343
2640.5372937011	0.0792981833
2642.4661010741	0.0790777951
2644.3949084472	0.0790217146
2646.3237158202	0.0790250897
2648.2525231933	0.0786934793
2650.1813305663	0.0786892548
2652.1101379394	0.0785675570
2654.0389453124	0.0784181952
2655.9677526855	0.0784550309
2657.8965600585	0.0782070979
2659.8253674315	0.0781350136
2661.7541748046	0.0780014247
2663.6829821776	0.0778957605
2665.6117895507	0.0778610408
2667.5405969237	0.0776167586
2669.4694042968	0.0774302334
2671.3982116698	0.0773366466
2673.3270190429	0.0772621632
2675.2558264159	0.0771357864
2677.1846337890	0.0770093948
2679.1134411620	0.0768507197
2681.0422485351	0.0768890679
2682.9710559081	0.0768038183
2684.8998632812	0.0765717700
2686.8286706542	0.0765452161
2688.7574780273	0.0763978958
2690.6862854003	0.0762702525
2692.6150927733	0.0761144683
2694.5439001464	0.0760203600
2696.4727075194	0.0758597255
2698.4015148925	0.0756423920
2700.3303222655	0.0755600631
2702.2591296386	0.0754263848
2704.1879370116	0.0754669383
2706.1167443847	0.0753351003
2708.0455517577	0.0751411915
2709.9743591308	0.0750425011
2711.9031665038	0.0748884007
2713.8319738769	0.0748155713
2715.7607812499	0.0747371241
2717.6895886230	0.0746300966
2719.6183959960	0.0744908154
2721.5472033690	0.0743751004
2723.4760107421	0.0741627514
2725.4048181151	0.0741146058
2727.3336254882	0.0739516616
2729.2624328612	0.0737630278
2731.1912402343	0.0737974048
2733.1200476073	0.0734969229
2735.0488549804	0.0733831450
2736.9776623534	0.0733939558
2738.9064697265	0.0733250380
2740.8352770995	0.0731148869
2742.7640844726	0.0729399920
2744.6928918456	0.0730309784
2746.6216992187	0.0728294253
2748.5505065917	0.0726521313
2750.4793139647	0.0724881887
2752.4081213378	0.0724254176
2754.3369287108	0.0723491088
2756.2657360839	0.0721382797
2758.1945434569	0.0720553994
2760.1233508300	0.0717865601
2762.0521582030	0.0717586726
2763.9809655761	0.0717230886
2765.9097729491	0.0714630932
2767.8385803222	0.0714071095
2769.7673876952	0.0712914318
2771.6961950683	0.0710385889
2773.6250024413	0.0709659606
2775.5538098144	0.0709136724
2777.4826171874	0.0706544667
2779.4114245604	0.0704434365
2781.3402319335	0.0703440532
2783.2690393065	0.0703434721
2785.1978466796	0.0701359436
2787.1266540526	0.0700341165
2789.0554614257	0.0699763298
2790.9842687987	0.0697297752
2792.9130761718	0.0696906671
2794.8418835448	0.0694163665
2796.7706909179	0.0692343414
2798.6994982909	0.0691341609
2800.6283056640	0.0690348148
2802.5571130370	0.0689406693
2804.4859204101	0.0686944649
2806.4147277831	0.0686681196
2808.3435351562	0.0684379712
2810.2723425292	0.0683106482
2812.2011499022	0.0681919977
2814.1299572753	0.0679945946
2816.0587646483	0.0678983778
2817.9875720214	0.0677475184
2819.9163793944	0.0676856488
2821.8451867675	0.0674043670
2823.7739941405	0.0672735348
2825.7028015136	0.0671675503
2827.6316088866	0.0669796765
2829.5604162597	0.0667737797
2831.4892236327	0.0665723979
2833.4180310058	0.0664164126
2835.3468383788	0.0661906302
2837.2756457519	0.0661689118
2839.2044531249	0.0658826828
2841.1332604979	0.0658012331
2843.0620678710	0.0655213818
2844.9908752440	0.0649031103
2846.9196826171	0.0646689311
2848.8484899901	0.0641864389
2850.7772973632	0.0639689639
2852.7061047362	0.0639411509
2854.6349121093	0.0639369413
2856.5637194823	0.0638523325
2858.4925268554	0.0636153445
2860.4213342284	0.0636412054
2862.3501416015	0.0635661334
2864.2789489745	0.0634680986
2866.2077563476	0.0632624030
2868.1365637206	0.0631675720
2870.0653710936	0.0631005615
2871.9941784667	0.0629216582
2873.9229858397	0.0627440736
2875.8517932128	0.0625452697
2877.7806005858	0.0625379980
2879.7094079589	0.0624334291
2881.6382153319	0.0623727143
2883.5670227050	0.0622203089
2885.4958300780	0.0620603450
2887.4246374511	0.0619616210
2889.3534448241	0.0617687479
2891.2822521972	0.0616571307
2893.2110595702	0.0614739805
2895.1398669433	0.0613024980
2897.0686743163	0.0610777363
2898.9974816893	0.0608773902
2900.9262890624	0.0606504828
2902.8550964354	0.0605680980
2904.7839038085	0.0603271648
2906.7127111815	0.0599752553
2908.6415185546	0.0598400235
2910.5703259276	0.0594073758
2912.4991333007	0.0591942444
2914.4279406737	0.0586952940
2916.3567480468	0.0582680553
2918.2855554198	0.0583271943
2920.2143627929	0.0581096262
2922.1431701659	0.0579923987
2924.0719775390	0.0577974617
2926.0007849120	0.0577661730
2927.9295922851	0.0576301515
2929.8583996581	0.0575145632
2931.7872070311	0.0575647578
2933.7160144042	0.0574740246
2935.6448217772	0.0576174855
2937.5736291503	0.0574841872
2939.5024365233	0.0574077070
2941.4312438964	0.0574118569
2943.3600512694	0.0573207214
2945.2888586425	0.0571928918
2947.2176660155	0.0570357814
2949.1464733886	0.0569472313
2951.0752807616	0.0566782951
2953.0040881347	0.0565580353
2954.9328955077	0.0562853217
2956.8617028808	0.0560928658
2958.7905102538	0.0559520870
2960.7193176268	0.0557207242
2962.6481249999	0.0555868000
2964.5769323729	0.0553760380
2966.5057397460	0.0554184653
2968.4345471190	0.0552607365
2970.3633544921	0.0552699715
2972.2921618651	0.0553542264
2974.2209692382	0.0552408174
2976.1497766112	0.0552603900
2978.0785839843	0.0550475046
2980.0073913573	0.0550030097
2981.9361987304	0.0549760014
2983.8650061034	0.0549443513
2985.7938134765	0.0548420511
2987.7226208495	0.0546288714
2989.6514282225	0.0545705855
2991.5802355956	0.0543484427
2993.5090429686	0.0542028993
2995.4378503417	0.0540886223
2997.3666577147	0.0539535582
2999.2954650878	0.0537934676
3001.2242724608	0.0536118150
3003.1530798339	0.0534725934
3005.0818872069	0.0532036796
3007.0106945800	0.0530309677
3008.9395019530	0.0529803187
3010.8683093261	0.0527150184
3012.7971166991	0.0524252355
3014.7259240722	0.0524040684
3016.6547314452	0.0521690696
3018.5835388182	0.0519589148
3020.5123461913	0.0518674888
3022.4411535643	0.0516435802
3024.3699609374	0.0514822602
3026.2987683104	0.0511922091
3028.2275756835	0.0510855243
3030.1563830565	0.0509087145
3032.0851904296	0.0505522341
3034.0139978026	0.0503510833
3035.9428051757	0.0501953438
3037.8716125487	0.0500859544
3039.8004199218	0.0498031154
3041.7292272948	0.0496473685
3043.6580346679	0.0495383665
3045.5868420409	0.0492860079
3047.5156494139	0.0491239242
3049.4444567870	0.0488880277
3051.3732641600	0.0486550890
3053.3020715331	0.0484636277
3055.2308789061	0.0482204035
3057.1596862792	0.0480047688
3059.0884936522	0.0478057340
3061.0173010253	0.0476337895
3062.9461083983	0.0475169942
3064.8749157714	0.0472490862
3066.8037231444	0.0470085591
3068.7325305175	0.0468552485
3070.6613378905	0.0466589630
3072.5901452636	0.0464989245
3074.5189526366	0.0462952405
3076.4477600097	0.0461756289
3078.3765673827	0.0458922610
3080.3053747557	0.0455613807
3082.2341821288	0.0454046875
3084.1629895018	0.0452319309
3086.0917968749	0.0450956672
3088.0206042479	0.0448019281
3089.9494116210	0.0444871858
3091.8782189940	0.0443358570
3093.8070263671	0.0441820771
3095.7358337401	0.0438241698
3097.6646411132	0.0435608923
3099.5934484862	0.0434122160
3101.5222558593	0.0431736037
3103.4510632323	0.0430614427
3105.3798706054	0.0427441001
3107.3086779784	0.0424735695
3109.2374853514	0.0423731953
3111.1662927245	0.0421022028
3113.0951000975	0.0417390577
3115.0239074706	0.0414044932
3116.9527148436	0.0411413237
3118.8815222167	0.0409405082
3120.8103295897	0.0408622287
3122.7391369628	0.0405583568
3124.6679443358	0.0403838530
3126.5967517089	0.0402055606
3128.5255590819	0.0397657491
3130.4543664550	0.0396066159
3132.3831738280	0.0393224731
3134.3119812011	0.0390147045
3136.2407885741	0.0388696864
3138.1695959471	0.0386669971
3140.0984033202	0.0383033976
3142.0272106932	0.0380297378
3143.9560180663	0.0378821194
3145.8848254393	0.0376000926
3147.8136328124	0.0373943225
3149.7424401854	0.0370264724
3151.6712475585	0.0368610844
3153.6000549315	0.0366660133
3155.5288623046	0.0363230966
3157.4576696776	0.0362713337
3159.3864770507	0.0359196551
3161.3152844237	0.0357016250
3163.2440917968	0.0355730280
3165.1728991698	0.0351942480
3167.1017065428	0.0348915048
3169.0305139159	0.0346224532
3170.9593212889	0.0344596803
3172.8881286620	0.0342861712
3174.8169360350	0.0339804441
3176.7457434081	0.0337185748
3178.6745507811	0.0336076766
3180.6033581542	0.0334052593
3182.5321655272	0.0332352147
3184.4609729003	0.0330089256
3186.3897802733	0.0326669589
3188.3185876464	0.0324951932
3190.2473950194	0.0322593972
3192.1762023925	0.0320402235
3194.1050097655	0.0318795219
3196.0338171386	0.0317168459
3197.9626245116	0.0314986594
3199.8914318846	0.0313189551
3201.8202392577	0.0311979689
3203.7490466307	0.0309705231
3205.6778540038	0.0308208987
3207.6066613768	0.0306127891
3209.5354687499	0.0304981675
3211.4642761229	0.0304045957
3213.3930834960	0.0301295519
3215.3218908690	0.0300331414
3217.2506982421	0.0300272368
3219.1795056151	0.0299169701
3221.1083129882	0.0296592824
3223.0371203612	0.0294833966
3224.9659277343	0.0294870809
3226.8947351073	0.0292600133
3228.8235424803	0.0291113928
3230.7523498534	0.0291395579
3232.6811572264	0.0288135074
3234.6099645995	0.0287626535
3236.5387719725	0.0288346279
3238.4675793456	0.0285864249
3240.3963867186	0.0285359062
3242.3251940917	0.0284258928
3244.2540014647	0.0283358768
3246.1828088378	0.0282869563
3248.1116162108	0.0282261521
3250.0404235839	0.0281013343
3251.9692309569	0.0279590543
3253.8980383300	0.0280232094
3255.8268457030	0.0278999154
3257.7556530760	0.0277817659
3259.6844604491	0.0276798606
3261.6132678221	0.0277287439
3263.5420751952	0.0276859421
3265.4708825682	0.0275249090
3267.3996899413	0.0276238937
3269.3284973143	0.0274648592
3271.2573046874	0.0273729414
3273.1861120604	0.0273164175
3275.1149194335	0.0272963010
3277.0437268065	0.0272096135
3278.9725341796	0.0271736458
3280.9013415526	0.0272563081
3282.8301489257	0.0270217806
3284.7589562987	0.0271617025
3286.6877636717	0.0270662643
3288.6165710448	0.0269153379
3290.5453784178	0.0269417539
3292.4741857909	0.0267696269
3294.4029931639	0.0267960057
3296.3318005370	0.0266219601
3298.2606079100	0.0266414564
3300.1894152831	0.0266318843
3302.1182226561	0.0265397914
3304.0470300292	0.0264647882
3305.9758374022	0.0263407491
3307.9046447753	0.0264164358
3309.8334521483	0.0263130553
3311.7622595214	0.0263157710
3313.6910668944	0.0262332708
3315.6198742675	0.0261640102
3317.5486816405	0.0261362568
3319.4774890135	0.0260768887
3321.4062963866	0.0260723419
3323.3351037596	0.0258852579
3325.2639111327	0.0258995108
3327.1927185057	0.0258780178
3329.1215258788	0.0257487781
3331.0503332518	0.0256769378
3332.9791406249	0.0257040672
3334.9079479979	0.0256029405
3336.8367553710	0.0255912244
3338.7655627440	0.0256476477
3340.6943701171	0.0254788473
3342.6231774901	0.0255971365
3344.5519848632	0.0253759250
3346.4807922362	0.0253202915
3348.4095996092	0.0254263487
3350.3384069823	0.0251926426
3352.2672143553	0.0252216123
3354.1960217284	0.0252012685
3356.1248291014	0.0253005940
3358.0536364745	0.0251455568
3359.9824438475	0.0250478648
3361.9112512206	0.0250885617
3363.8400585936	0.0249296762
3365.7688659667	0.0250649638
3367.6976733397	0.0248864796
3369.6264807128	0.0247099586
3371.5552880858	0.0248886030
3373.4840954589	0.0249658041
3375.4129028319	0.0248975381
3377.3417102049	0.0248744301
3379.2705175780	0.0248207878
3381.1993249510	0.0247471668
3383.1281323241	0.0248325244
3385.0569396971	0.0248147883
3386.9857470702	0.0248077363
3388.9145544432	0.0248634592
3390.8433618163	0.0248737969
3392.7721691893	0.0247634687
3394.7009765624	0.0247927010
3396.6297839354	0.0248101056
3398.5585913085	0.0246975459
3400.4873986815	0.0247238539
3402.4162060546	0.0246874876
3404.3450134276	0.0248119123
3406.2738208006	0.0248289406
3408.2026281737	0.0248636492
3410.1314355467	0.0249137841
3412.0602429198	0.0248142369
3413.9890502928	0.0248221904
3415.9178576659	0.0248661786
3417.8466650389	0.0249812864
3419.7754724120	0.0248586237
3421.7042797850	0.0249940213
3423.6330871581	0.0250056870
3425.5618945311	0.0249804687
3427.4907019042	0.0251937322
3429.4195092772	0.0250657797
3431.3483166503	0.0251880363
3433.2771240233	0.0251457710
3435.2059313963	0.0251555368
3437.1347387694	0.0251842216
3439.0635461424	0.0251894910
3440.9923535155	0.0252197068
3442.9211608885	0.0251039248
3444.8499682616	0.0253577642
3446.7787756346	0.0251384806
3448.7075830077	0.0252785645
3450.6363903807	0.0256014876
3452.5651977538	0.0254543424
3454.4940051268	0.0255993344
3456.4228124999	0.0256073810
3458.3516198729	0.0256442912
3460.2804272460	0.0256462581
3462.2092346190	0.0256975349
3464.1380419921	0.0257724170
3466.0668493651	0.0258667246
3467.9956567381	0.0258642361
3469.9244641112	0.0258129537
3471.8532714842	0.0260338224
3473.7820788573	0.0260244068
3475.7108862303	0.0260035209
3477.6396936034	0.0260779653
3479.5685009764	0.0262141936
3481.4973083495	0.0260374695
3483.4261157225	0.0261299349
3485.3549230956	0.0264715813
3487.2837304686	0.0263503455
3489.2125378417	0.0264791101
3491.1413452147	0.0264628530
3493.0701525878	0.0265804734
3494.9989599608	0.0266649444
3496.9277673338	0.0265912302
3498.8565747069	0.0268226452
3500.7853820799	0.0268638469
3502.7141894530	0.0265671667
3504.6429968260	0.0265923142
3506.5718041991	0.0271718167
3508.5006115721	0.0268821158
3510.4294189452	0.0268574711
3512.3582263182	0.0272182990
3514.2870336913	0.0272726435
3516.2158410643	0.0275292285
3518.1446484374	0.0272569191
3520.0734558104	0.0274828747
3522.0022631835	0.0273903981
3523.9310705565	0.0270638559
3525.8598779295	0.0273997802
3527.7886853026	0.0274335220
3529.7174926756	0.0275395755
3531.6463000487	0.0277906749
3533.5751074217	0.0281078201
3535.5039147948	0.0279236827
3537.4327221678	0.0278673451
3539.3615295409	0.0282309409
3541.2903369139	0.0282812063
3543.2191442870	0.0281561017
3545.1479516600	0.0277423002
3547.0767590331	0.0276436210
3549.0055664061	0.0281715803
3550.9343737792	0.0283815973
3552.8631811522	0.0280851256
3554.7919885252	0.0285607409
3556.7207958983	0.0287917890
3558.6496032713	0.0286161676
3560.5784106444	0.0286933575
3562.5072180174	0.0285301954
3564.4360253905	0.0287286863
3566.3648327635	0.0275042839
3568.2936401366	0.0268275179
3570.2224475096	0.0285768583
3572.1512548827	0.0292285345
3574.0800622557	0.0290227495
3576.0088696288	0.0292077698
3577.9376770018	0.0292576998
3579.8664843749	0.0292315986
3581.7952917479	0.0292803161
3583.7240991210	0.0295176543
3585.6529064940	0.0289175287
3587.5817138670	0.0272691846
3589.5105212401	0.0279030409
3591.4393286131	0.0296569727
3593.3681359862	0.0292075314
3595.2969433592	0.0288742408
3597.2257507323	0.0293484628
3599.1545581053	0.0295186490
3601.0833654784	0.0293618888
3603.0121728514	0.0296416078
3604.9409802245	0.0301552936
3606.8697875975	0.0294312239
3608.7985949706	0.0280088894
3610.7274023436	0.0286929198
3612.6562097167	0.0292933956
3614.5850170897	0.0285733510
3616.5138244627	0.0302613117
3618.4426318358	0.0284846909
3620.3714392088	0.0278260186
3622.3002465819	0.0306452196
3624.2290539549	0.0299105514
3626.1578613280	0.0311210081
3628.0866687010	0.0274790321
3630.0154760741	0.0255645849
3631.9442834471	0.0305634774
3633.8730908202	0.0299600177
3635.8018981932	0.0304634757
3637.7307055663	0.0310046598
3639.6595129393	0.0306149647
3641.5883203124	0.0309979767
3643.5171276854	0.0307180658
3645.4459350584	0.0310609378
3647.3747424315	0.0286800358
3649.3035498045	0.0268569179
3651.2323571776	0.0272512697
3653.1611645506	0.0312174596
3655.0899719237	0.0307965204
3657.0187792967	0.0283548106
3658.9475866698	0.0317404419
3660.8763940428	0.0310925283
3662.8052014159	0.0316642560
3664.7340087889	0.0317233764
3666.6628161620	0.0315493308
3668.5916235350	0.0309412349
3670.5204309081	0.0262310561
3672.4492382811	0.0305150636
3674.3780456541	0.0296006817
3676.3068530272	0.0255542342
3678.2356604002	0.0305490606
3680.1644677733	0.0312438924
3682.0932751463	0.0313140154
3684.0220825194	0.0320290476
3685.9508898924	0.0316848755
3687.8796972655	0.0291528795
3689.8085046385	0.0271765199
3691.7373120116	0.0302949399
3693.6661193846	0.0309965238
3695.5949267577	0.0315606631
3697.5237341307	0.0315976292
3699.4525415038	0.0312689394
3701.3813488768	0.0308107175
3703.3101562499	0.0299191121
3705.2389636229	0.0321511105
3707.1677709959	0.0309289694
3709.0965783690	0.0303662326
3711.0253857420	0.0289430600
3712.9541931151	0.0275270641
3714.8830004881	0.0311596729
3716.8118078612	0.0307313222
3718.7406152342	0.0309672952
3720.6694226073	0.0303923748
3722.5982299803	0.0296761915
3724.5270373534	0.0304901078
3726.4558447264	0.0285894386
3728.3846520995	0.0306016523
3730.3134594725	0.0302256420
3732.2422668456	0.0284012258
3734.1710742186	0.0278494023
3736.0998815916	0.0267242808
3738.0286889647	0.0279223882
3739.9574963377	0.0296307467
3741.8863037108	0.0309845265
3743.8151110838	0.0251324736
3745.7439184569	0.0239441209
3747.6727258299	0.0296056494
3749.6015332030	0.0261902399
3751.5303405760	0.0245809779
3753.4591479491	0.0274019279
3755.3879553221	0.0290921107
3757.3167626952	0.0300410725
3759.2455700682	0.0282971747
3761.1743774413	0.0288829729
3763.1031848143	0.0302843712
3765.0319921873	0.0287839398
3766.9607995604	0.0291019119
3768.8896069334	0.0289139207
3770.8184143065	0.0278599281
3772.7472216795	0.0296622291
3774.6760290526	0.0296615548
3776.6048364256	0.0294967629
3778.5336437987	0.0289554838
3780.4624511717	0.0281175300
3782.3912585448	0.0294266827
3784.3200659178	0.0288516879
3786.2488732909	0.0288411938
3788.1776806639	0.0292140823
3790.1064880370	0.0290444624
3792.0352954100	0.0289200004
3793.9641027830	0.0292826071
3795.8929101561	0.0279689394
3797.8217175291	0.0276879147
3799.7505249022	0.0287647210
3801.6793322752	0.0239761136
3803.6081396483	0.0271543842
3805.5369470213	0.0287895631
3807.4657543944	0.0246182419
3809.3945617674	0.0287375655
3811.3233691405	0.0280986223
3813.2521765135	0.0288889371
3815.1809838866	0.0265865680
3817.1097912596	0.0239134245
3819.0385986327	0.0287359841
3820.9674060057	0.0245017372
3822.8962133787	0.0254097059
3824.8250207518	0.0286342949
3826.7538281248	0.0264992081
3828.6826354979	0.0279736891
3830.6114428709	0.0272080675
3832.5402502440	0.0263555795
3834.4690576170	0.0268521123
3836.3978649901	0.0258650705
3838.3266723631	0.0237135757
3840.2554797362	0.0253015701
3842.1842871092	0.0268851742
3844.1130944823	0.0259315148
3846.0419018553	0.0275284946
3847.9707092284	0.0272061005
3849.8995166014	0.0272285268
3851.8283239745	0.0249202941
3853.7571313475	0.0198215023
3855.6859387205	0.0225986354
3857.6147460936	0.0272402856
3859.5435534666	0.0265360679
3861.4723608397	0.0263572037
3863.4011682127	0.0258279033
3865.3299755858	0.0244089328
3867.2587829588	0.0266922526
3869.1875903319	0.0246975515
3871.1163977049	0.0233067386
3873.0452050780	0.0265874341
3874.9740124510	0.0249245986
3876.9028198241	0.0263640713
3878.8316271971	0.0268190913
3880.7604345702	0.0238391906
3882.6892419432	0.0264402591
3884.6180493162	0.0251310226
3886.5468566893	0.0234424435
3888.4756640623	0.0265873894
3890.4044714354	0.0253490768
3892.3332788084	0.0240329951
3894.2620861815	0.0259187669
3896.1908935545	0.0262130648
3898.1197009276	0.0252150167
3900.0485083006	0.0241137631
3901.9773156737	0.0239088740
3903.9061230467	0.0236541182
3905.8349304198	0.0239609331
3907.7637377928	0.0257464685
3909.6925451659	0.0257356633
3911.6213525389	0.0254246742
3913.5501599119	0.0257335864
3915.4789672850	0.0251046196
3917.4077746580	0.0244765524
3919.3365820311	0.0244457647
3921.2653894041	0.0251132324
3923.1941967772	0.0249916613
3925.1230041502	0.0245799944
3927.0518115233	0.0249377526
3928.9806188963	0.0251854286
3930.9094262694	0.0247113630
3932.8382336424	0.0241476689
3934.7670410155	0.0247786790
3936.6958483885	0.0249545984
3938.6246557616	0.0246996917
3940.5534631346	0.0248628873
3942.4822705076	0.0242061801
3944.4110778807	0.0241670851
3946.3398852537	0.0245689824
3948.2686926268	0.0240946710
3950.1974999998	0.0240880996
3952.1263073729	0.0243876539
3954.0551147459	0.0244086236
3955.9839221190	0.0242881738
3957.9127294920	0.0241745561
3959.8415368651	0.0243273098
3961.7703442381	0.0240715854
3963.6991516112	0.0239502024
3965.6279589842	0.0241307653
3967.5567663573	0.0239767246
3969.4855737303	0.0239737593
3971.4143811034	0.0239267107
3973.3431884764	0.0237840544
3975.2719958494	0.0236618724
3977.2008032225	0.0236686990
3979.1296105955	0.0237558745
3981.0584179686	0.0236187801
3982.9872253416	0.0235629827
3984.9160327147	0.0235666856
3986.8448400877	0.0235461965
3988.7736474608	0.0234642327
3990.7024548338	0.0233848840
3992.6312622069	0.0234006457
3994.5600695799	0.0233254619
3996.4888769530	0.0232123528
3998.4176843260	0.0232318714
4000.3464916991	0.0232171379
4002.2752990721	0.0231227912
4004.2041064451	0.0231151022
4006.1329138182	0.0230189040
4008.0617211912	0.0229292326
4009.9905285643	0.0229010619
4011.9193359373	0.0228852723
4013.8481433104	0.0228108764
4015.7769506834	0.0227756724
4017.7057580565	0.0227713790
4019.6345654295	0.0226042084
4021.5633728026	0.0226415843
4023.4921801756	0.0226014629
4025.4209875487	0.0225585159
4027.3497949217	0.0225486346
4029.2786022948	0.0224117823
4031.2074096678	0.0224291347
4033.1362170408	0.0222736485
4035.0650244139	0.0222444795
4036.9938317869	0.0222475976
4038.9226391600	0.0221707337
4040.8514465330	0.0222058482
4042.7802539061	0.0221152175
4044.7090612791	0.0220068321
4046.6378686522	0.0219614990
4048.5666760252	0.0220093001
4050.4954833983	0.0219074823
4052.4242907713	0.0218322817
4054.3530981444	0.0218261778
4056.2819055174	0.0217908733
4058.2107128905	0.0217751302
4060.1395202635	0.0216560215
4062.0683276365	0.0216224603
4063.9971350096	0.0216319002
4065.9259423826	0.0216852985
4067.8547497557	0.0215929411
4069.7835571287	0.0214788914
4071.7123645018	0.0214423425
4073.6411718748	0.0213721562
4075.5699792479	0.0213308930
4077.4987866209	0.0212162174
4079.4275939940	0.0212478489
4081.3564013670	0.0212382935
4083.2852087401	0.0211999714
4085.2140161131	0.0210971013
4087.1428234862	0.0210011974
4089.0716308592	0.0210346952
4091.0004382323	0.0209455229
4092.9292456053	0.0208862759
4094.8580529783	0.0207926724
4096.7868603514	0.0208520051
4098.7156677244	0.0208115764
4100.6444750975	0.0207569003
4102.5732824705	0.0207495093
4104.5020898436	0.0205262378
4106.4308972166	0.0205466077
4108.3597045897	0.0204923861
4110.2885119627	0.0204502866
4112.2173193358	0.0204295702
4114.1461267088	0.0203356910
4116.0749340819	0.0203645397
4118.0037414549	0.0203645267
4119.9325488280	0.0202895626
4121.8613562010	0.0201661829
4123.7901635740	0.0202214457
4125.7189709471	0.0200510398
4127.6477783201	0.0199957099
4129.5765856932	0.0200785100
4131.5053930662	0.0198969655
4133.4342004393	0.0199529324
4135.3630078123	0.0199370123
4137.2918151854	0.0198836960
4139.2206225584	0.0198276918
4141.1494299315	0.0196711980
4143.0782373045	0.0196742639
4145.0070446776	0.0196786448
4146.9358520506	0.0196679756
4148.8646594237	0.0196149498
4150.7934667967	0.0194380805
4152.7222741697	0.0194579437
4154.6510815428	0.0194937624
4156.5798889158	0.0192962848
4158.5086962889	0.0193878226
4160.4375036619	0.0193640850
4162.3663110350	0.0192536581
4164.2951184080	0.0192499347
4166.2239257811	0.0191337299
4168.1527331541	0.0192254744
4170.0815405272	0.0191350654
4172.0103479002	0.0190323889
4173.9391552733	0.0189320315
4175.8679626463	0.0189088192
4177.7967700194	0.0189865604
4179.7255773924	0.0187950060
4181.6543847654	0.0188075267
4183.5831921385	0.0188452601
4185.5119995115	0.0187706277
4187.4408068846	0.0186290853
4189.3696142576	0.0186401829
4191.2984216307	0.0186508205
4193.2272290037	0.0185326133
4195.1560363768	0.0185344443
4197.0848437498	0.0184306540
4199.0136511229	0.0184617154
4200.9424584959	0.0183344949
4202.8712658690	0.0183343142
4204.8000732420	0.0184287708
4206.7288806151	0.0181963518
4208.6576879881	0.0181502774
4210.5864953611	0.0182330292
4212.5153027342	0.0182747729
4214.4441101072	0.0180848558
4216.3729174803	0.0180887543
4218.3017248533	0.0180887710
4220.2305322264	0.0179590024
4222.1593395994	0.0180147905
4224.0881469725	0.0178777240
4226.0169543455	0.0178181976
4227.9457617186	0.0177947488
4229.8745690916	0.0177933797
4231.8033764647	0.0177754648
4233.7321838377	0.0177161656
4235.6609912108	0.0176785607
4237.5897985838	0.0176708121
4239.5186059569	0.0176439788
4241.4474133299	0.0174950808
4243.3762207029	0.0174968131
4245.3050280760	0.0173719786
4247.2338354490	0.0173879117
4249.1626428221	0.0173740946
4251.0914501951	0.0173459984
4253.0202575682	0.0173691176
4254.9490649412	0.0171604697
4256.8778723143	0.0172297284
4258.8066796873	0.0171166752
4260.7354870604	0.0172798317
4262.6642944334	0.0173207000
4264.5931018065	0.0169913583
4266.5219091795	0.0171145406
4268.4507165526	0.0170540363
4270.3795239256	0.0170027278
4272.3083312986	0.0169472694
4274.2371386717	0.0169846676
4276.1659460447	0.0168897584
4278.0947534178	0.0166854523
4280.0235607908	0.0167784020
4281.9523681639	0.0167233497
4283.8811755369	0.0167012438
4285.8099829100	0.0165767819
4287.7387902830	0.0165974498
4289.6675976561	0.0165656731
4291.5964050291	0.0164645575
4293.5252124022	0.0165068172
4295.4540197752	0.0164565854
4297.3828271483	0.0165164843
4299.3116345213	0.0163993612
4301.2404418943	0.0164174531
4303.1692492674	0.0163504146
4305.0980566404	0.0162818581
4307.0268640135	0.0163068622
4308.9556713865	0.0161366668
4310.8844787596	0.0162224695
4312.8132861326	0.0161151327
4314.7420935057	0.0159799792
4316.6709008787	0.0160758123
4318.5997082518	0.0161398798
4320.5285156248	0.0159966499
4322.4573229979	0.0159106366
4324.3861303709	0.0159266163
4326.3149377440	0.0157973059
4328.2437451170	0.0158478413
4330.1725524900	0.0157227572
4332.1013598631	0.0157034323
4334.0301672361	0.0157769974
4335.9589746092	0.0157242864
4337.8877819822	0.0156717356
4339.8165893553	0.0155283380
4341.7453967283	0.0155799994
4343.6742041014	0.0154940095
4345.6030114744	0.0154706258
4347.5318188475	0.0154528357
4349.4606262205	0.0154436734
4351.3894335936	0.0154673606
4353.3182409666	0.0152947325
4355.2470483397	0.0152993333
4357.1758557127	0.0151985222
4359.1046630858	0.0152185867
4361.0334704588	0.0152361495
4362.9622778318	0.0151845114
4364.8910852049	0.0151831731
4366.8198925779	0.0150264362
4368.7486999510	0.0150598818
4370.6775073240	0.0149919987
4372.6063146971	0.0149428397
4374.5351220701	0.0150417341
4376.4639294432	0.0150053240
4378.3927368162	0.0148043660
4380.3215441893	0.0147393756
4382.2503515623	0.0148159154
4384.1791589354	0.0147392210
4386.1079663084	0.0147586986
4388.0367736815	0.0146781988
4389.9655810545	0.0146615785
4391.8943884275	0.0146739576
4393.8231958006	0.0145678064
4395.7520031736	0.0146103939
4397.6808105467	0.0145804025
4399.6096179197	0.0145142805
4401.5384252928	0.0144055067
4403.4672326658	0.0143991597
4405.3960400389	0.0144306440
4407.3248474119	0.0143494802
4409.2536547850	0.0142867435
4411.1824621580	0.0143301822
4413.1112695311	0.0143625941
4415.0400769041	0.0141997710
4416.9688842772	0.0141698513
4418.8976916502	0.0141226826
4420.8264990232	0.0140943620
4422.7553063963	0.0140851010
4424.6841137693	0.0140235126
4426.6129211424	0.0140654948
4428.5417285154	0.0139098167
4430.4705358885	0.0139028784
4432.3993432615	0.0139326006
4434.3281506346	0.0138303544
4436.2569580076	0.0138050243
4438.1857653807	0.0137533024
4440.1145727537	0.0137927439
4442.0433801268	0.0137393530
4443.9721874998	0.0136326496
4445.9009948729	0.0136490529
4447.8298022459	0.0137277357
4449.7586096189	0.0136218332
4451.6874169920	0.0134905512
4453.6162243650	0.0135511942
4455.5450317381	0.0134744290
4457.4738391111	0.0134707615
4459.4026464842	0.0134887006
4461.3314538572	0.0133861918
4463.2602612303	0.0133446455
4465.1890686033	0.0133227129
4467.1178759764	0.0132968286
4469.0466833494	0.0132775847
4470.9754907225	0.0133576691
4472.9042980955	0.0132865515
4474.8331054686	0.0131662320
4476.7619128416	0.0131431185
4478.6907202147	0.0130660478
4480.6195275877	0.0131159090
4482.5483349607	0.0131065417
4484.4771423338	0.0130395694
4486.4059497068	0.0130013609
4488.3347570799	0.0129934540
4490.2635644529	0.0130046066
4492.1923718260	0.0128809754
4494.1211791990	0.0129265171
4496.0499865721	0.0129176378
4497.9787939451	0.0127810631
4499.9076013182	0.0128093101
4501.8364086912	0.0127642304
4503.7652160643	0.0126964729
4505.6940234373	0.0126674762
4507.6228308104	0.0126523394
4509.5516381834	0.0125721246
4511.4804455564	0.0125553356
4513.4092529295	0.0126128234
4515.3380603025	0.0125214057
4517.2668676756	0.0125054494
4519.1956750486	0.0124584567
4521.1244824217	0.0124281319
4523.0532897947	0.0124539975
4524.9820971678	0.0124147628
4526.9109045408	0.0123494361
4528.8397119139	0.0122153480
4530.7685192869	0.0122746211
4532.6973266600	0.0123043880
4534.6261340330	0.0122066382
4536.5549414061	0.0121418172
4538.4837487791	0.0121147409
4540.4125561521	0.0121567221
4542.3413635252	0.0120809209
4544.2701708982	0.0120569076
4546.1989782713	0.0120244995
4548.1277856443	0.0119798658
4550.0565930174	0.0120348148
4551.9854003904	0.0119506931
4553.9142077635	0.0118303187
4555.8430151365	0.0118663246
4557.7718225096	0.0119022401
4559.7006298826	0.0118096080
4561.6294372557	0.0118051954
4563.5582446287	0.0117511284
4565.4870520018	0.0117045492
4567.4158593748	0.0117604928
4569.3446667478	0.0116715990
4571.2734741209	0.0116423955
4573.2022814939	0.0115960082
4575.1310888670	0.0114858616
4577.0598962400	0.0114608575
4578.9887036131	0.0114744958
4580.9175109861	0.0114452038
4582.8463183592	0.0114068026
4584.7751257322	0.0114416555
4586.7039331053	0.0113908425
4588.6327404783	0.0114028053
4590.5615478514	0.0114486758
4592.4903552244	0.0112948921
4594.4191625975	0.0111706927
4596.3479699705	0.0112179387
4598.2767773435	0.0112176221
4600.2055847166	0.0111542456
4602.1343920896	0.0111965351
4604.0631994627	0.0111760069
4605.9920068357	0.0110987946
4607.9208142088	0.0111259799
4609.8496215818	0.0111425389
4611.7784289549	0.0110623389
4613.7072363279	0.0110134967
4615.6360437010	0.0110004488
4617.5648510740	0.0109655634
4619.4936584471	0.0109573957
4621.4224658201	0.0109342504
4623.3512731932	0.0108796097
4625.2800805662	0.0108188689
4627.2088879393	0.0108700730
4629.1376953123	0.0108411759
4631.0665026853	0.0107484059
4632.9953100584	0.0107572544
4634.9241174314	0.0107072182
4636.8529248045	0.0107121877
4638.7817321775	0.0106540490
4640.7105395506	0.0105813034
4642.6393469236	0.0105904676
4644.5681542967	0.0105983401
4646.4969616697	0.0105336271
4648.4257690428	0.0104852626
4650.3545764158	0.0105443047
4652.2833837889	0.0103829186
4654.2121911619	0.0104173031
4656.1409985350	0.0104579376
4658.0698059080	0.0103179151
4659.9986132810	0.0104302075
4661.9274206541	0.0103907110
4663.8562280271	0.0103326533
4665.7850354002	0.0103400042
4667.7138427732	0.0102719665
4669.6426501463	0.0101951137
4671.5714575193	0.0101807546
4673.5002648924	0.0101530896
4675.4290722654	0.0101460088
4677.3578796385	0.0102061266
4679.2866870115	0.0100495545
4681.2154943846	0.0100968592
4683.1443017576	0.0101088937
4685.0731091307	0.0100236889
4687.0019165037	0.0100691542
4688.9307238767	0.0099535175
4690.8595312498	0.0099540185
4692.7883386228	0.0098750610
4694.7171459959	0.0098695708
4696.6459533689	0.0098960698
4698.5747607420	0.0097726546
4700.5035681150	0.0097917430
4702.4323754881	0.0098028444
4704.3611828611	0.0097654108
4706.2899902342	0.0096720941
4708.2187976072	0.0097002871
4710.1476049803	0.0097417617
4712.0764123533	0.0097110048
4714.0052197264	0.0096557159
4715.9340270994	0.0096423514
4717.8628344724	0.0096380683
4719.7916418455	0.0095310658
4721.7204492185	0.0096044606
4723.6492565916	0.0095297145
4725.5780639646	0.0094930213
4727.5068713377	0.0095235631
4729.4356787107	0.0093853008
4731.3644860838	0.0094282255
4733.2932934568	0.0094093755
4735.2221008299	0.0094030164
4737.1509082029	0.0093726274
4739.0797155760	0.0093132704
4741.0085229490	0.0093220677
4742.9373303221	0.0092968810
4744.8661376951	0.0093229320
4746.7949450682	0.0092354845
4748.7237524412	0.0091729369
4750.6525598142	0.0092045832
4752.5813671873	0.0091947420
4754.5101745603	0.0091317408
4756.4389819334	0.0090979747
4758.3677893064	0.0090972241
4760.2965966795	0.0091045666
4762.2254040525	0.0091198143
4764.1542114256	0.0090824021
4766.0830187986	0.0090543022
4768.0118261717	0.0089874072
4769.9406335447	0.0089893881
4771.8694409178	0.0089583332
4773.7982482908	0.0089376578
4775.7270556639	0.0089524211
4777.6558630369	0.0088390112
4779.5846704099	0.0088699637
4781.5134777830	0.0088396426
4783.4422851560	0.0087618455
4785.3710925291	0.0087730307
4787.2998999021	0.0087145716
4789.2287072752	0.0086861746
4791.1575146482	0.0087099634
4793.0863220213	0.0086918846
4795.0151293943	0.0086536985
4796.9439367674	0.0087000458
4798.8727441404	0.0086568817
4800.8015515135	0.0086386818
4802.7303588865	0.0086342432
4804.6591662596	0.0085561080
4806.5879736326	0.0085580647
4808.5167810056	0.0085043777
4810.4455883787	0.0084891506
4812.3743957517	0.0085173305
4814.3032031248	0.0084663257
4816.2320104978	0.0084088128
4818.1608178709	0.0084520085
4820.0896252439	0.0084239552
4822.0184326170	0.0083583035
4823.9472399900	0.0083722901
4825.8760473631	0.0083694346
4827.8048547361	0.0083787013
4829.7336621092	0.0082631446
4831.6624694822	0.0083122235
4833.5912768553	0.0082790181
4835.5200842283	0.0081715100
4837.4488916013	0.0082719792
4839.3776989744	0.0081569133
4841.3065063474	0.0081663961
4843.2353137205	0.0081123523
4845.1641210935	0.0080741271
4847.0929284666	0.0081330873
4849.0217358396	0.0079971561
4850.9505432127	0.0080689117
4852.8793505857	0.0080439225
4854.8081579588	0.0080035105
4856.7369653318	0.0080088172
4858.6657727049	0.0078961551
4860.5945800779	0.0078810966
4862.5233874510	0.0078822225
4864.4521948240	0.0078527564
4866.3810021971	0.0078431340
4868.3098095701	0.0079098623
4870.2386169431	0.0078781359
4872.1674243162	0.0078642769
4874.0962316892	0.0078652613
4876.0250390623	0.0077774897
4877.9538464353	0.0077590514
4879.8826538084	0.0077503207
4881.8114611814	0.0077156187
4883.7402685545	0.0077096689
4885.6690759275	0.0077237720
4887.5978833006	0.0076355245
4889.5266906736	0.0076644840
4891.4554980467	0.0076409746
4893.3843054197	0.0075967750
4895.3131127928	0.0076643694
4897.2419201658	0.0074986275
4899.1707275388	0.0075160037
4901.0995349119	0.0075160088
4903.0283422849	0.0074025169
4904.9571496580	0.0074567203
4906.8859570310	0.0074567115
4908.8147644041	0.0074755652
4910.7435717771	0.0074645565
4912.6723791502	0.0074281534
4914.6011865232	0.0073873335
4916.5299938963	0.0074122082
4918.4588012693	0.0073270109
4920.3876086424	0.0072919955
4922.3164160154	0.0073867803
4924.2452233885	0.0072073620
4926.1740307615	0.0072036358
4928.1028381345	0.0072408691
4930.0316455076	0.0071996604
4931.9604528806	0.0072392053
4933.8892602537	0.0071343263
4935.8180676267	0.0071579674
4937.7468749998	0.0071796877
4939.6756823728	0.0070953844
4941.6044897459	0.0071101654
4943.5332971189	0.0071191601
4945.4621044920	0.0070993872
4947.3909118650	0.0071512670
4949.3197192381	0.0070720641
4951.2485266111	0.0069757877
4953.1773339842	0.0070773857
4955.1061413572	0.0070074061
4957.0349487302	0.0069502611
4958.9637561033	0.0069641103
4960.8925634763	0.0068938751
4962.8213708494	0.0069343243
4964.7501782224	0.0068990737
4966.6789855955	0.0068512987
4968.6077929685	0.0068839472
4970.5366003416	0.0068705957
4972.4654077146	0.0069216681
4974.3942150877	0.0069051343
4976.3230224607	0.0067508831
4978.2518298338	0.0067242170
4980.1806372068	0.0066730869
4982.1094445799	0.0066674664
4984.0382519529	0.0067977188
4985.9670593259	0.0066687204
4987.8958666990	0.0066126538
4989.8246740720	0.0066882055
4991.7534814451	0.0066095316
4993.6822888181	0.0065641641
4995.6110961912	0.0065905843
4997.5399035642	0.0066380315
4999.4687109373	0.0065428410
5001.3975183103	0.0065390007
5003.3263256834	0.0065947035
5005.2551330564	0.0064859455
5007.1839404295	0.0065174401
5009.1127478025	0.0065289335
5011.0415551756	0.0064974064
5012.9703625486	0.0064609651
5014.8991699217	0.0063622533
5016.8279772947	0.0063922377
5018.7567846677	0.0064218938
5020.6855920408	0.0063727954
5022.6143994138	0.0062580574
5024.5432067869	0.0062406184
5026.4720141599	0.0063333791
5028.4008215330	0.0063173659
5030.3296289060	0.0062139416
5032.2584362791	0.0061733881
5034.1872436521	0.0062600113
5036.1160510252	0.0062211761
5038.0448583982	0.0062256074
5039.9736657713	0.0062876474
5041.9024731443	0.0062117297
5043.8312805174	0.0061639571
5045.7600878904	0.0060897474
5047.6888952634	0.0061680400
5049.6177026365	0.0061070742
5051.5465100095	0.0059924237
5053.4753173826	0.0061263666
5055.4041247556	0.0060360311
5057.3329321287	0.0060848072
5059.2617395017	0.0061398158
5061.1905468748	0.0059472993
5063.1193542478	0.0059322948
5065.0481616209	0.0059601516
5066.9769689939	0.0059850356
5068.9057763670	0.0059523433
5070.8345837400	0.0058627790
5072.7633911131	0.0058970442
5074.6921984861	0.0059135845
5076.6210058591	0.0058203312
5078.5498132322	0.0058744503
5080.4786206052	0.0058873510
5082.4074279783	0.0057910439
5084.3362353513	0.0058739893
5086.2650427244	0.0058192108
5088.1938500974	0.0057250466
5090.1226574705	0.0057268366
5092.0514648435	0.0057353396
5093.9802722166	0.0057734391
5095.9090795896	0.0056932168
5097.8378869627	0.0056404471
5099.7666943357	0.0056596939
5101.6955017088	0.0056712208
5103.6243090818	0.0056212810
5105.5531164548	0.0055958722
5107.4819238279	0.0055852616
5109.4107312009	0.0056232461
5111.3395385740	0.0056455256
5113.2683459470	0.0055157337
5115.1971533201	0.0056106010
5117.1259606931	0.0056168768
5119.0547680662	0.0055074077
5120.9835754392	0.0055567804
5122.9123828123	0.0055008782
5124.8411901853	0.0054405797
5126.7699975584	0.0054335818
5128.6988049314	0.0054900511
5130.6276123045	0.0054058684
5132.5564196775	0.0053849788
5134.4852270506	0.0054878034
5136.4140344236	0.0053871768
5138.3428417966	0.0053967563
5140.2716491697	0.0054019573
5142.2004565427	0.0053867646
5144.1292639158	0.0053950483
5146.0580712888	0.0052793380
5147.9868786619	0.0052922219
5149.9156860349	0.0052785957
5151.8444934080	0.0052159559
5153.7733007810	0.0053196428
5155.7021081541	0.0052707205
5157.6309155271	0.0051750066
5159.5597229002	0.0053074528
5161.4885302732	0.0053005717
5163.4173376463	0.0051754117
5165.3461450193	0.0051302263
5167.2749523923	0.0051779579
5169.2037597654	0.0051649595
5171.1325671384	0.0050945254
5173.0613745115	0.0052017774
5174.9901818845	0.0051702568
5176.9189892576	0.0051356410
5178.8477966306	0.0051778881
5180.7766040037	0.0050782044
5182.7054113767	0.0050146813
5184.6342187498	0.0049704444
5186.5630261228	0.0050235149
5188.4918334959	0.0050928434
5190.4206408689	0.0050460990
5192.3494482420	0.0049947239
5194.2782556150	0.0050375909
5196.2070629880	0.0049528643
5198.1358703611	0.0048595718
5200.0646777341	0.0050058188
5201.9934851072	0.0049498873
5203.9222924802	0.0049085161
5205.8510998533	0.0048782807
5207.7799072263	0.0047159106
5209.7087145994	0.0048118192
5211.6375219724	0.0049082460
5213.5663293455	0.0048835413
5215.4951367185	0.0048394045
5217.4239440916	0.0048239687
5219.3527514646	0.0047665811
5221.2815588377	0.0047677578
5223.2103662107	0.0048526181
5225.1391735837	0.0047093639
5227.0679809568	0.0047332291
5228.9967883298	0.0048117330
5230.9255957029	0.0046820771
5232.8544030759	0.0047134236
5234.7832104490	0.0047081700
5236.7120178220	0.0047487165
5238.6408251951	0.0047906777
5240.5696325681	0.0046584699
5242.4984399412	0.0046635671
5244.4272473142	0.0046044523
5246.3560546873	0.0045833793
5248.2848620603	0.0045891185
5250.2136694334	0.0045453468
5252.1424768064	0.0046599489
5254.0712841795	0.0045684199
5256.0000915525	0.0045382772
5257.9288989255	0.0045872200
5259.8577062986	0.0045521627
5261.7865136716	0.0045500193
5263.7153210447	0.0044101011
5265.6441284177	0.0044528283
5267.5729357908	0.0044936091
5269.5017431638	0.0044516334
5271.4305505369	0.0044872537
5273.3593579099	0.0044651348
5275.2881652830	0.0044365674
5277.2169726560	0.0044478420
5279.1457800291	0.0044898381
5281.0745874021	0.0044277953
5283.0033947752	0.0044244407
5284.9322021482	0.0043476876
5286.8610095212	0.0043667806
5288.7898168943	0.0044204588
5290.7186242673	0.0043146079
5292.6474316404	0.0044244700
5294.5762390134	0.0043127006
5296.5050463865	0.0043384405
5298.4338537595	0.0044028144
5300.3626611326	0.0042476682
5302.2914685056	0.0043367227
5304.2202758787	0.0042600241
5306.1490832517	0.0042736875
5308.0778906248	0.0042418716
5310.0066979978	0.0041849259
5311.9355053709	0.0042797159
5313.8643127439	0.0041855350
5315.7931201169	0.0042522848
5317.7219274900	0.0042838268
5319.6507348630	0.0041950792
5321.5795422361	0.0041236132
5323.5083496091	0.0041264538
5325.4371569822	0.0042065736
5327.3659643552	0.0040992135
5329.2947717283	0.0040827403
5331.2235791013	0.0042012092
5333.1523864744	0.0041431119
5335.0811938474	0.0040966617
5337.0100012205	0.0040635467
5338.9388085935	0.0039205034
5340.8676159666	0.0040460047
5342.7964233396	0.0040823631
5344.7252307126	0.0039368579
5346.6540380857	0.0039992332
5348.5828454587	0.0039642686
5350.5116528318	0.0040056547
5352.4404602048	0.0040021557
5354.3692675779	0.0038688856
5356.2980749509	0.0039142906
5358.2268823240	0.0039873747
5360.1556896970	0.0040027509
5362.0844970701	0.0039590346
5364.0133044431	0.0039356542
5365.9421118162	0.0038711876
5367.8709191892	0.0038924357
5369.7997265623	0.0039237663
5371.7285339353	0.0038247358
5373.6573413083	0.0038939458
5375.5861486814	0.0038857881
5377.5149560544	0.0037850214
5379.4437634275	0.0038489471
5381.3725708005	0.0038567279
5383.3013781736	0.0038649058
5385.2301855466	0.0038573849
5387.1589929197	0.0037298412
5389.0878002927	0.0038172393
5391.0166076658	0.0038850945
5392.9454150388	0.0037598126
5394.8742224119	0.0037030745
5396.8030297849	0.0036714636
5398.7318371580	0.0037523571
5400.6606445310	0.0037634089
5402.5894519041	0.0037021269
5404.5182592771	0.0037181857
5406.4470666501	0.0037215550
5408.3758740232	0.0036862907
5410.3046813962	0.0036773293
5412.2334887693	0.0037090001
5414.1622961423	0.0035199597
5416.0911035154	0.0035388863
5418.0199108884	0.0036538541
5419.9487182615	0.0035642618
5421.8775256345	0.0036202923
5423.8063330076	0.0035910842
5425.7351403806	0.0036152159
5427.6639477537	0.0035608313
5429.5927551267	0.0034622732
5431.5215624998	0.0035482286
5433.4503698728	0.0034905218
5435.3791772458	0.0034804798
5437.3079846189	0.0035632509
5439.2367919919	0.0035871896
5441.1655993650	0.0034845064
5443.0944067380	0.0034635831
5445.0232141111	0.0035026707
5446.9520214841	0.0034535341
5448.8808288572	0.0034688215
5450.8096362302	0.0034653924
5452.7384436033	0.0035418621
5454.6672509763	0.0034680401
5456.5960583494	0.0033898565
5458.5248657224	0.0034761454
5460.4536730955	0.0033752793
5462.3824804685	0.0033813957
5464.3112878415	0.0034174114
5466.2400952146	0.0033635194
5468.1689025876	0.0033545790
5470.0977099607	0.0033473931
5472.0265173337	0.0033758923
5473.9553247068	0.0032908923
5475.8841320798	0.0032628742
5477.8129394529	0.0033575688
5479.7417468259	0.0032749749
5481.6705541990	0.0032298751
5483.5993615720	0.0033296312
5485.5281689451	0.0033095176
5487.4569763181	0.0032759188
5489.3857836912	0.0032620924
5491.3145910642	0.0032196147
5493.2433984372	0.0031979270
5495.1722058103	0.0031988653
5497.1010131833	0.0032947683
5499.0298205564	0.0032808674
5500.9586279294	0.0031988155
5502.8874353025	0.0032234020
5504.8162426755	0.0031829141
5506.7450500486	0.0031161094
5508.6738574216	0.0031436090
5510.6026647947	0.0032143386
5512.5314721677	0.0031564822
5514.4602795408	0.0031362025
5516.3890869138	0.0032208022
5518.3178942869	0.0031463595
5520.2467016599	0.0031459033
5522.1755090330	0.0031434128
5524.1043164060	0.0030044154
5526.0331237790	0.0030448865
5527.9619311521	0.0031451406
5529.8907385251	0.0031492808
5531.8195458982	0.0030769382
5533.7483532712	0.0030451789
5535.6771606443	0.0030475019
5537.6059680173	0.0030561013
5539.5347753904	0.0031312034
5541.4635827634	0.0030463268
5543.3923901365	0.0030046911
5545.3211975095	0.0030281534
5547.2500048826	0.0029591080
5549.1788122556	0.0029765414
5551.1076196287	0.0029619902
5553.0364270017	0.0029411591
5554.9652343747	0.0028985557
5556.8940417478	0.0029591653
5558.8228491208	0.0030498975
5560.7516564939	0.0029372061
5562.6804638669	0.0029185447
5564.6092712400	0.0029191901
5566.5380786130	0.0029373430
5568.4668859861	0.0029480292
5570.3956933591	0.0029024708
5572.3245007322	0.0029669078
5574.2533081052	0.0029096026
5576.1821154783	0.0028587407
5578.1109228513	0.0029111649
5580.0397302244	0.0028467500
5581.9685375974	0.0028382214
5583.8973449704	0.0028917631
5585.8261523435	0.0028201244
5587.7549597165	0.0028425807
5589.6837670896	0.0028960328
5591.6125744626	0.0027897430
5593.5413818357	0.0028342367
5595.4701892087	0.0029130569
5597.3989965818	0.0028136794
5599.3278039548	0.0028046265
5601.2566113279	0.0028740363
5603.1854187009	0.0028518983
5605.1142260740	0.0028371350
5607.0430334470	0.0027924431
5608.9718408201	0.0027794468
5610.9006481931	0.0027809963
5612.8294555661	0.0026941961
5614.7582629392	0.0028068584
5616.6870703122	0.0027998560
5618.6158776853	0.0026899632
5620.5446850583	0.0027213953
5622.4734924314	0.0026662771
5624.4022998044	0.0027364567
5626.3311071775	0.0027170503
5628.2599145505	0.0026535285
5630.1887219236	0.0026571741
5632.1175292966	0.0025933483
5634.0463366697	0.0026510525
5635.9751440427	0.0026525734
5637.9039514158	0.0026422278
5639.8327587888	0.0026413454
5641.7615661619	0.0026376194
5643.6903735349	0.0026600072
5645.6191809079	0.0026203045
5647.5479882810	0.0026263811
5649.4767956540	0.0026250542
5651.4056030271	0.0025976407
5653.3344104001	0.0025981874
5655.2632177732	0.0025843368
5657.1920251462	0.0025419970
5659.1208325193	0.0025787768
5661.0496398923	0.0025959646
5662.9784472654	0.0025777244
5664.9072546384	0.0025511505
5666.8360620115	0.0025087977
5668.7648693845	0.0025754799
5670.6936767576	0.0025093500
5672.6224841306	0.0024501781
5674.5512915036	0.0024592592
5676.4800988767	0.0024567533
5678.4089062497	0.0025230753
5680.3377136228	0.0025103120
5682.2665209958	0.0025032905
5684.1953283689	0.0024468477
5686.1241357419	0.0024732528
5688.0529431150	0.0024764219
5689.9817504880	0.0024159511
5691.9105578611	0.0024640169
5693.8393652341	0.0023875614
5695.7681726072	0.0023899416
5697.6969799802	0.0024376740
5699.6257873533	0.0024531558
5701.5545947263	0.0024318863
5703.4834020993	0.0023537595
5705.4122094724	0.0023673966
5707.3410168454	0.0023599402
5709.2698242185	0.0023708995
5711.1986315915	0.0023673968
5713.1274389646	0.0023651908
5715.0562463376	0.0023494237
5716.9850537107	0.0023552799
5718.9138610837	0.0023820437
5720.8426684568	0.0023008015
5722.7714758298	0.0022962058
5724.7002832029	0.0022912486
5726.6290905759	0.0022574060
5728.5578979490	0.0022621793
5730.4867053220	0.0022968333
5732.4155126950	0.0023305172
5734.3443200681	0.0023032031
5736.2731274411	0.0022544991
5738.2019348142	0.0021790187
5740.1307421872	0.0022213513
5742.0595495603	0.0022731237
5743.9883569333	0.0022537790
5745.9171643064	0.0022660550
5747.8459716794	0.0022466774
5749.7747790525	0.0022110797
5751.7035864255	0.0021780666
5753.6323937986	0.0021901354
5755.5612011716	0.0022105221
5757.4900085447	0.0022179550
5759.4188159177	0.0022206143
5761.3476232907	0.0022203084
5763.2764306638	0.0022283099
5765.2052380368	0.0021876593
5767.1340454099	0.0021360987
5769.0628527829	0.0021046363
5770.9916601560	0.0021361404
5772.9204675290	0.0021717472
5774.8492749021	0.0021296223
5776.7780822751	0.0021448382
5778.7068896482	0.0021679753
5780.6356970212	0.0021353646
5782.5645043943	0.0021438699
5784.4933117673	0.0021277852
5786.4221191404	0.0021059657
5788.3509265134	0.0020539721
5790.2797338865	0.0020258937
5792.2085412595	0.0020867707
5794.1373486325	0.0020836876
5796.0661560056	0.0020828571
5797.9949633786	0.0020396456
5799.9237707517	0.0020621913
5801.8525781247	0.0020374935
5803.7813854978	0.0019518248
5805.7101928708	0.0020835025
5807.6390002439	0.0020579277
5809.5678076169	0.0020233092
5811.4966149900	0.0019813091
5813.4254223630	0.0019528181
5815.3542297361	0.0020320273
5817.2830371091	0.0019185967
5819.2118444822	0.0019919476
5821.1406518552	0.0019957623
5823.0694592282	0.0019246541
5824.9982666013	0.0019887222
5826.9270739743	0.0019482811
5828.8558813474	0.0019359289
5830.7846887204	0.0019324296
5832.7134960935	0.0019686900
5834.6423034665	0.0019074446
5836.5711108396	0.0019328095
5838.4999182126	0.0019562985
5840.4287255857	0.0018850198
5842.3575329587	0.0019199108
5844.2863403318	0.0018223319
5846.2151477048	0.0018902489
5848.1439550779	0.0019464942
5850.0727624509	0.0019059111
5852.0015698239	0.0019259008
5853.9303771970	0.0018167427
5855.8591845700	0.0018113651
5857.7879919431	0.0018518240
5859.7167993161	0.0018934323
5861.6456066892	0.0018935538
5863.5744140622	0.0018610035
5865.5032214353	0.0018632539
5867.4320288083	0.0017952416
5869.3608361814	0.0017793495
5871.2896435544	0.0018158371
5873.2184509275	0.0018009597
5875.1472583005	0.0017774833
5877.0760656736	0.0017718480
5879.0048730466	0.0017592858
5880.9336804196	0.0018198648
5882.8624877927	0.0018344035
5884.7912951657	0.0018089754
5886.7201025388	0.0017963415
5888.6489099118	0.0017222317
5890.5777172849	0.0017228852
5892.5065246579	0.0017412656
5894.4353320310	0.0017442503
5896.3641394040	0.0017500966
5898.2929467771	0.0018107337
5900.2217541501	0.0017498515
5902.1505615232	0.0016401183
5904.0793688962	0.0017209323
5906.0081762693	0.0017384479
5907.9369836423	0.0017647673
5909.8657910154	0.0017131551
5911.7945983884	0.0016876609
5913.7234057614	0.0017136201
5915.6522131345	0.0016583099
5917.5810205075	0.0017394109
5919.5098278806	0.0017102408
5921.4386352536	0.0016612945
5923.3674426267	0.0016710928
5925.2962499997	0.0016945179
5927.2250573728	0.0016791595
5929.1538647458	0.0016055855
5931.0826721189	0.0016906806
5933.0114794919	0.0016949023
5934.9402868650	0.0016600625
5936.8690942380	0.0016506836
5938.7979016111	0.0016195299
5940.7267089841	0.0016478121
5942.6555163571	0.0016281813
5944.5843237302	0.0015617341
5946.5131311032	0.0015965950
5948.4419384763	0.0016343235
5950.3707458493	0.0015728034
5952.2995532224	0.0015743277
5954.2283605954	0.0015116441
5956.1571679685	0.0015997686
5958.0859753415	0.0017007042
5960.0147827146	0.0015743703
5961.9435900876	0.0015622713
5963.8723974607	0.0015576603
5965.8012048337	0.0016180831
5967.7300122068	0.0015817689
5969.6588195798	0.0015184730
5971.5876269528	0.0015490034
5973.5164343259	0.0014985211
5975.4452416989	0.0015161124
5977.3740490720	0.0015130336
5979.3028564450	0.0015680715
5981.2316638181	0.0015374378
5983.1604711911	0.0015694083
5985.0892785642	0.0015903497
5987.0180859372	0.0014352823
5988.9468933103	0.0015267043
5990.8757006833	0.0015230600
5992.8045080564	0.0015308443
5994.7333154294	0.0015252698
5996.6621228025	0.0014341315
5998.5909301755	0.0015636744
6000.5197375485	0.0015097109
