399.2631262207	-2.6676833630
401.1919335938	0.6199471354
403.1207409668	0.1091711819
405.0495483398	-2.3932068348
406.9783557129	0.4440003932
408.9071630859	1.0878560543
410.8359704590	0.1207607910
412.7647778320	-0.0503601246
414.6935852051	0.6455419064
416.6223925781	-0.5074084401
418.5511999512	-5.0412249565
420.4800073242	-23.6274890900
422.4088146973	4.6557908058
424.3376220703	-37.4730186462
426.2664294434	-0.2727474570
428.1952368164	0.5380805135
430.1240441895	13.7936611176
432.0528515625	0.6933224797
433.9816589355	0.2267267555
435.9104663086	5.7341609001
437.8392736816	0.8833757043
439.7680810547	0.3178379238
441.6968884277	1.1601227522
443.6256958008	0.1088453457
445.5545031738	3.3747568130
447.4833105469	0.2181294709
449.4121179199	-0.5232321024
451.3409252930	3.5360839367
453.2697326660	0.3188408911
455.1985400391	0.8032115698
457.1273474121	1.6213043928
459.0561547852	-0.4353974462
460.9849621582	1.1126836538
462.9137695313	6.5494084358
464.8425769043	0.3560449481
466.7713842773	1.2798589468
468.7001916504	-6.0244636536
470.6289990234	-0.6256192923
472.5578063965	0.0812666491
474.4866137695	0.4034257531
476.4154211426	0.4044060707
478.3442285156	-0.3982483149
480.2730358887	-0.2199455053
482.2018432617	0.1759959459
484.1306506348	0.3305468857
486.0594580078	2.7518243790
487.9882653809	-2.3807032108
489.9170727539	2.6552710533
491.8458801270	1.0355483294
493.7746875000	0.7369054556
495.7034948730	3.8790760040
497.6323022461	-62.1030006409
499.5611096191	2.2078590393
501.4899169922	0.5119656920
503.4187243652	0.9909719825
505.3475317383	-10.0719947815
507.2763391113	14.9842720032
509.2051464844	0.0248656943
511.1339538574	0.4648767114
513.0627612305	1.5370746851
514.9915686035	0.7876567245
516.9203759766	0.9962633848
518.8491833496	1.4123618603
520.7779907227	0.6541563272
522.7067980957	0.9322110415
524.6356054688	0.9289468527
526.5644128418	0.4406652749
528.4932202148	0.4995489717
530.4220275879	15.3935995102
532.3508349609	1.8443489075
534.2796423340	0.2951451838
536.2084497070	-0.0737832487
538.1372570801	0.4660595357
540.0660644531	0.7272840142
541.9948718262	4.2325854301
543.9236791992	5.1704893112
545.8524865723	0.5691607594
547.7812939453	-0.7697725296
549.7101013184	3.7791168690
551.6389086914	0.4752194285
553.5677160645	0.6956221461
555.4965234375	1.9691079855
557.4253308105	0.1806771457
559.3541381836	0.7169128060
561.2829455566	0.8875772953
563.2117529297	-0.0621881336
565.1405603027	1.2828245163
567.0693676758	5.4780330658
568.9981750488	2.6935145855
570.9269824219	0.6750464439
572.8557897949	0.2778152525
574.7845971680	0.1313366443
576.7134045410	0.7471972704
578.6422119141	0.8379651308
580.5710192871	1.1867195368
582.4998266602	0.1239740551
584.4286340332	0.6211054921
586.3574414063	-22.2105312347
588.2862487793	1.8704390526
590.2150561523	2.6267995834
592.1438635254	1.6120337248
594.0726708984	0.5788256526
596.0014782715	2.2312846184
597.9302856445	0.8356856704
599.8590930176	2.7529501915
601.7879003906	1.2416698933
603.7167077637	0.4069069028
605.6455151367	2.4100112915
607.5743225098	1.3949118853
609.5031298828	1.5103917122
611.4319372559	0.2826997042
613.3607446289	1.6217380762
615.2895520020	2.3413054943
617.2183593750	0.2012344152
619.1471667480	1.0441297293
621.0759741211	0.1129794568
623.0047814941	0.3243599832
624.9335888672	2.0968408585
626.8623962402	1.1210271120
628.7912036133	1.5592862368
630.7200109863	0.6015754938
632.6488183594	-6.0524539948
634.5776257324	1.6140424013
636.5064331055	0.1733914018
638.4352404785	0.2296018302
640.3640478516	1.2635936737
642.2928552246	1.6982413530
644.2216625977	0.7125813961
646.1504699707	0.3817151785
648.0792773438	1.1988524199
650.0080847168	0.7825315595
651.9368920898	0.4034019113
653.8656994629	1.7796138525
655.7945068359	1.0780937672
657.7233142090	0.4477756619
659.6521215820	0.5972291827
661.5809289551	0.5618826151
663.5097363281	0.7972475886
665.4385437012	1.1223497391
667.3673510742	1.4559147358
669.2961584473	1.0709874630
671.2249658203	1.0400010347
673.1537731934	0.8411908746
675.0825805664	0.9353414178
677.0113879395	0.9334611297
678.9401953125	0.6527463794
680.8690026855	0.9670196772
682.7978100586	0.7596795559
684.7266174316	0.3394697607
686.6554248047	0.5663307309
688.5842321777	0.9919388294
690.5130395508	0.6646829247
692.4418469238	0.6455664039
694.3706542969	1.0690205097
696.2994616699	1.6555187702
698.2282690430	1.1035280228
700.1570764160	0.8152900934
702.0858837891	0.7791764736
704.0146911621	0.8675969839
705.9434985352	0.5685170889
707.8723059082	0.5913482308
709.8011132813	0.8398379683
711.7299206543	0.9361163378
713.6587280273	1.0505524874
715.5875354004	1.6327166557
717.5163427734	0.9249948263
719.4451501465	1.0046819448
721.3739575195	1.7555038929
723.3027648926	1.8496934175
725.2315722656	1.8283251524
727.1603796387	0.7413772941
729.0891870117	1.2246620655
731.0179943848	0.9888299704
732.9468017578	0.6061948538
734.8756091309	3.0045571327
736.8044165039	0.9285190701
738.7332238770	0.9067045450
740.6620312500	1.1148564816
742.5908386230	0.8150948286
744.5196459961	2.5530683994
746.4484533691	1.7332745790
748.3772607422	1.2793266773
750.3060681152	1.8296856880
752.2348754883	0.8023214340
754.1636828613	1.4871283770
756.0924902344	1.4793106318
758.0212976074	0.8013604879
759.9501049805	1.3614811897
761.8789123535	1.5806313753
763.8077197266	1.0917303562
765.7365270996	1.0360633135
767.6653344727	0.7386543751
769.5941418457	0.7424787283
771.5229492188	1.2486180067
773.4517565918	1.4502629042
775.3805639648	1.2544833422
777.3093713379	2.7251603603
779.2381787109	2.0988240242
781.1669860840	1.4171001911
783.0957934570	1.0190296173
785.0246008301	0.7867457271
786.9534082031	2.3490359783
788.8822155762	1.5570107698
790.8110229492	0.8807091117
792.7398303223	0.9070837498
794.6686376953	1.6531710625
796.5974450684	1.7189764977
798.5262524414	0.6745525599
800.4550598145	1.2071075439
802.3838671875	1.0985088348
804.3126745605	1.1140445471
806.2414819336	1.1856994629
808.1702893066	1.0381156206
810.0990966797	1.5856509209
812.0279040527	1.0159337521
813.9567114258	0.9950478077
815.8855187988	1.0199033022
817.8143261719	0.9764229655
819.7431335449	0.6720523834
821.6719409180	0.4660313129
823.6007482910	1.4277724028
825.5295556641	2.1856918335
827.4583630371	0.7569630146
829.3871704102	0.7610648870
831.3159777832	1.0280450583
833.2447851563	0.7631018758
835.1735925293	1.1276761293
837.1023999023	1.5523213148
839.0312072754	0.9718415737
840.9600146484	0.8568493128
842.8888220215	0.6171400547
844.8176293945	1.3095231056
846.7464367676	2.3423154354
848.6752441406	1.2742260695
850.6040515137	1.4092495441
852.5328588867	1.4266004562
854.4616662598	1.1681923866
856.3904736328	1.2084022760
858.3192810059	1.1470535994
860.2480883789	0.8760870099
862.1768957520	0.8174280524
864.1057031250	1.0748590231
866.0345104980	0.9840880036
867.9633178711	1.1691076756
869.8921252441	1.5418689251
871.8209326172	1.2398066521
873.7497399902	0.9622492790
875.6785473633	0.8882121444
877.6073547363	0.8632742763
879.5361621094	0.9065462351
881.4649694824	1.1605398655
883.3937768555	1.3340709209
885.3225842285	1.0817259550
887.2513916016	0.9946755767
889.1801989746	1.1869305372
891.1090063477	0.9342494607
893.0378137207	0.6951341033
894.9666210938	0.9982343912
896.8954284668	1.0057226419
898.8242358398	0.8988068104
900.7530432129	1.1583827734
902.6818505859	1.0986225605
904.6106579590	0.9561940432
906.5394653320	1.2193820477
908.4682727051	1.2276145220
910.3970800781	1.0106782913
912.3258874512	1.1238645315
914.2546948242	1.1501526833
916.1835021973	1.0201454163
918.1123095703	1.1227743626
920.0411169434	1.2966581583
921.9699243164	1.0066382885
923.8987316895	0.9340049028
925.8275390625	1.1546308994
927.7563464355	0.9949775934
929.6851538086	1.0660941601
931.6139611816	1.0416371822
933.5427685547	0.9182138443
935.4715759277	0.9873362184
937.4003833008	0.8423053026
939.3291906738	0.8602643609
941.2579980469	0.8679273129
943.1868054199	0.7615542412
945.1156127930	0.8039147854
947.0444201660	0.7962401509
948.9732275391	1.0402423143
950.9020349121	1.2315210104
952.8308422852	1.0785275698
954.7596496582	0.9195379615
956.6884570313	0.9234244823
958.6172644043	1.0693119764
960.5460717773	1.0519723892
962.4748791504	0.9086460471
964.4036865234	0.8534334302
966.3324938965	0.9463733435
968.2613012695	0.9174737930
970.1901086426	0.7573897839
972.1189160156	0.7883203030
974.0477233887	0.8805422783
975.9765307617	1.0287756920
977.9053381348	0.9920280576
979.8341455078	0.9407952428
981.7629528809	0.8908119202
983.6917602539	1.0310326815
985.6205676270	1.0468389988
987.5493750000	0.8600706458
989.4781823730	0.9462761879
991.4069897461	0.9784888625
993.3357971191	0.8858551383
995.2646044922	0.8314417005
997.1934118652	0.9650740027
999.1222192383	0.9479985237
1001.0510266113	0.7095645070
1002.9798339844	0.7435913086
1004.9086413574	0.8996646404
1006.8374487305	0.8502488136
1008.7662561035	0.7063505650
1010.6950634766	0.8611970544
1012.6238708496	0.8163381219
1014.5526782227	0.7112720609
1016.4814855957	0.8452412486
1018.4102929688	0.6656470895
1020.3391003418	0.6950541735
1022.2679077148	0.7489691377
1024.1967150879	0.7566874623
1026.1255224609	0.7253963947
1028.0543298340	0.6213512421
1029.9831372070	0.7921656370
1031.9119445801	0.6989250183
1033.8407519531	0.6728321910
1035.7695593262	0.6906368136
1037.6983666992	0.6303986311
1039.6271740723	0.7097977400
1041.5559814453	0.5884640217
1043.4847888184	0.6735447049
1045.4135961914	0.6983647346
1047.3424035645	0.6294360161
1049.2712109375	0.7329501510
1051.2000183105	0.6721482873
1053.1288256836	0.7358381152
1055.0576330566	0.7818558216
1056.9864404297	0.6809734106
1058.9152478027	0.7488930821
1060.8440551758	0.6960622072
1062.7728625488	0.6276756525
1064.7016699219	0.7577373981
1066.6304772949	0.7669268847
1068.5592846680	0.7172736526
1070.4880920410	0.7248169780
1072.4168994141	0.7218878865
1074.3457067871	0.8124958873
1076.2745141602	0.7624521255
1078.2033215332	0.7379850745
1080.1321289062	0.7251492143
1082.0609362793	0.7778555155
1083.9897436523	0.7579494715
1085.9185510254	0.6554428935
1087.8473583984	0.8928211927
1089.7761657715	0.8180467486
1091.7049731445	0.6929373741
1093.6337805176	0.7235813141
1095.5625878906	0.7759675980
1097.4913952637	0.8334484100
1099.4202026367	0.7905213237
1101.3490100098	0.9617667794
1103.2778173828	0.8364013433
1105.2066247559	0.7880648375
1107.1354321289	0.8711097836
1109.0642395019	0.8016999364
1110.9930468750	0.8500549197
1112.9218542480	0.8134408593
1114.8506616211	0.8668335676
1116.7794689941	0.9139415026
1118.7082763672	0.9602618814
1120.6370837402	0.8351451755
1122.5658911133	0.8593642712
1124.4946984863	0.9758305550
1126.4235058594	0.7275494933
1128.3523132324	0.9214001894
1130.2811206055	0.9463384151
1132.2099279785	0.7817940116
1134.1387353516	0.8824015856
1136.0675427246	0.8477086425
1137.9963500977	0.7724333405
1139.9251574707	0.7711849213
1141.8539648437	0.7949292660
1143.7827722168	0.7013136148
1145.7115795898	0.8657933474
1147.6403869629	0.8302870989
1149.5691943359	0.7058908343
1151.4980017090	0.8908897638
1153.4268090820	0.8373112679
1155.3556164551	0.8300288916
1157.2844238281	0.8090959191
1159.2132312012	0.7977368832
1161.1420385742	0.7291181087
1163.0708459473	0.7780610323
1164.9996533203	0.8617762327
1166.9284606934	0.6670143008
1168.8572680664	0.7280462384
1170.7860754394	0.7638217807
1172.7148828125	0.7805580497
1174.6436901855	0.7765802741
1176.5724975586	0.6951222420
1178.5013049316	0.7623387575
1180.4301123047	0.6598984599
1182.3589196777	0.6609573364
1184.2877270508	0.6690264344
1186.2165344238	0.6206756234
1188.1453417969	0.6858290434
1190.0741491699	0.6488455534
1192.0029565430	0.6862633824
1193.9317639160	0.6817147136
1195.8605712891	0.5939229131
1197.7893786621	0.6217845678
1199.7181860351	0.6405245066
1201.6469934082	0.6466144323
1203.5758007812	0.6454190612
1205.5046081543	0.6827737689
1207.4334155273	0.6580833197
1209.3622229004	0.6058148146
1211.2910302734	0.6581107974
1213.2198376465	0.6208492517
1215.1486450195	0.5974289179
1217.0774523926	0.6099313498
1219.0062597656	0.6070441008
1220.9350671387	0.6314175129
1222.8638745117	0.6179857850
1224.7926818848	0.6593418121
1226.7214892578	0.6248579621
1228.6502966308	0.5942345262
1230.5791040039	0.6292290688
1232.5079113769	0.6201505065
1234.4367187500	0.6565549970
1236.3655261230	0.6084289551
1238.2943334961	0.6093679070
1240.2231408691	0.6660329700
1242.1519482422	0.6401513815
1244.0807556152	0.6118588448
1246.0095629883	0.6036933661
1247.9383703613	0.6566089392
1249.8671777344	0.6179148555
1251.7959851074	0.6003446579
1253.7247924805	0.6270325780
1255.6535998535	0.5942099094
1257.5824072266	0.6329274178
1259.5112145996	0.6218006611
1261.4400219726	0.6082296371
1263.3688293457	0.6638258100
1265.2976367187	0.6651436090
1267.2264440918	0.6334801316
1269.1552514648	0.6672661304
1271.0840588379	0.6335570216
1273.0128662109	0.5970729589
1274.9416735840	0.6659756303
1276.8704809570	0.6152353287
1278.7992883301	0.6558117270
1280.7280957031	0.6506391764
1282.6569030762	0.5808406472
1284.5857104492	0.6647053361
1286.5145178223	0.6327890754
1288.4433251953	0.6352926493
1290.3721325683	0.6473293900
1292.3009399414	0.6573842764
1294.2297473144	0.6861019731
1296.1585546875	0.6583828330
1298.0873620605	0.7327100039
1300.0161694336	0.6734735966
1301.9449768066	0.6387901902
1303.8737841797	0.6825243235
1305.8025915527	0.6464576125
1307.7313989258	0.6439597607
1309.6602062988	0.6430168152
1311.5890136719	0.6570315957
1313.5178210449	0.6853543520
1315.4466284180	0.7013707161
1317.3754357910	0.6577873826
1319.3042431640	0.6523120999
1321.2330505371	0.6743321419
1323.1618579101	0.6488308311
1325.0906652832	0.6504985690
1327.0194726562	0.6370896697
1328.9482800293	0.6303326488
1330.8770874023	0.6171886921
1332.8058947754	0.6326836348
1334.7347021484	0.6508742571
1336.6635095215	0.6018601060
1338.5923168945	0.6137573719
1340.5211242676	0.6038904786
1342.4499316406	0.6117937565
1344.3787390137	0.6406470537
1346.3075463867	0.5965803862
1348.2363537597	0.6458573937
1350.1651611328	0.6412129998
1352.0939685058	0.5948996544
1354.0227758789	0.6556960940
1355.9515832519	0.6460588574
1357.8803906250	0.6499712467
1359.8091979980	0.6659776568
1361.7380053711	0.6352410913
1363.6668127441	0.6484978795
1365.5956201172	0.6426380277
1367.5244274902	0.6281737685
1369.4532348633	0.6163101792
1371.3820422363	0.6416950226
1373.3108496094	0.6666009426
1375.2396569824	0.6572682261
1377.1684643555	0.6497734189
1379.0972717285	0.6358631253
1381.0260791015	0.6674151421
1382.9548864746	0.6615631580
1384.8836938476	0.6506170630
1386.8125012207	0.6663610935
1388.7413085937	0.6423187256
1390.6701159668	0.6445297599
1392.5989233398	0.6576473713
1394.5277307129	0.6699001193
1396.4565380859	0.6370116472
1398.3853454590	0.6096047163
1400.3141528320	0.6255692244
1402.2429602051	0.6301213503
1404.1717675781	0.6376606822
1406.1005749512	0.6135666370
1408.0293823242	0.6219764352
1409.9581896972	0.6559101343
1411.8869970703	0.6402305961
1413.8158044433	0.6611869931
1415.7446118164	0.6662276387
1417.6734191894	0.6255292892
1419.6022265625	0.6623512506
1421.5310339355	0.6721206307
1423.4598413086	0.6343911290
1425.3886486816	0.6329122186
1427.3174560547	0.6303479075
1429.2462634277	0.6569022536
1431.1750708008	0.6548429728
1433.1038781738	0.6502818465
1435.0326855469	0.6777629852
1436.9614929199	0.6707676649
1438.8903002929	0.6533644795
1440.8191076660	0.6304267049
1442.7479150390	0.6746757030
1444.6767224121	0.6853442788
1446.6055297851	0.6739727855
1448.5343371582	0.6880278587
1450.4631445312	0.6725357771
1452.3919519043	0.7254517078
1454.3207592773	0.7132074833
1456.2495666504	0.7171416879
1458.1783740234	0.6726287007
1460.1071813965	0.6227277517
1462.0359887695	0.6976162195
1463.9647961426	0.6693974733
1465.8936035156	0.6294942498
1467.8224108886	0.6468095779
1469.7512182617	0.6437038779
1471.6800256347	0.6418341398
1473.6088330078	0.6315430999
1475.5376403808	0.6456268430
1477.4664477539	0.6345040798
1479.3952551269	0.6147589684
1481.3240625000	0.6173789501
1483.2528698730	0.6191158891
1485.1816772461	0.6237863898
1487.1104846191	0.6172434092
1489.0392919922	0.5957956910
1490.9680993652	0.5918876529
1492.8969067383	0.6020507813
1494.8257141113	0.6000752449
1496.7545214843	0.5979049206
1498.6833288574	0.5967808366
1500.6121362304	0.5889171362
1502.5409436035	0.5768608451
1504.4697509765	0.5896576643
1506.3985583496	0.6040400267
1508.3273657226	0.5942831039
1510.2561730957	0.5963434577
1512.1849804687	0.5882628560
1514.1137878418	0.5943970084
1516.0425952148	0.5892632604
1517.9714025879	0.5767211318
1519.9002099609	0.5869655609
1521.8290173340	0.5951465368
1523.7578247070	0.6118014455
1525.6866320801	0.6193996668
1527.6154394531	0.6004444361
1529.5442468261	0.5803406835
1531.4730541992	0.5910959244
1533.4018615722	0.5892907381
1535.3306689453	0.5770063400
1537.2594763183	0.5990819335
1539.1882836914	0.6145705581
1541.1170910644	0.6071638465
1543.0458984375	0.5802335143
1544.9747058105	0.5912855864
1546.9035131836	0.5979876518
1548.8323205566	0.5808225870
1550.7611279297	0.5965467095
1552.6899353027	0.5792616010
1554.6187426758	0.5806730986
1556.5475500488	0.5958765745
1558.4763574218	0.5932779908
1560.4051647949	0.5934327245
1562.3339721679	0.5800433159
1564.2627795410	0.5863738656
1566.1915869140	0.5765839815
1568.1203942871	0.5765581131
1570.0492016601	0.5948510766
1571.9780090332	0.5750859380
1573.9068164062	0.5662742257
1575.8356237793	0.6079507470
1577.7644311523	0.6004594564
1579.6932385254	0.5578228235
1581.6220458984	0.5758143663
1583.5508532715	0.5777897239
1585.4796606445	0.5822791457
1587.4084680175	0.5922887921
1589.3372753906	0.5651040673
1591.2660827636	0.5688915253
1593.1948901367	0.5692045093
1595.1236975097	0.5712513924
1597.0525048828	0.5826182961
1598.9813122558	0.5907761455
1600.9101196289	0.5774296522
1602.8389270019	0.5636388659
1604.7677343750	0.5935848355
1606.6965417480	0.5745316148
1608.6253491211	0.5507388115
1610.5541564941	0.5702461004
1612.4829638672	0.5693603158
1614.4117712402	0.5803182125
1616.3405786132	0.5963212848
1618.2693859863	0.5816479921
1620.1981933593	0.5786825418
1622.1270007324	0.5860720277
1624.0558081054	0.5783955455
1625.9846154785	0.5697183609
1627.9134228515	0.5811915994
1629.8422302246	0.5901788473
1631.7710375976	0.5785955191
1633.6998449707	0.5941670537
1635.6286523437	0.6069979072
1637.5574597168	0.5969745517
1639.4862670898	0.6123013496
1641.4150744629	0.6133230925
1643.3438818359	0.6206672788
1645.2726892090	0.6184580922
1647.2014965820	0.6278766394
1649.1303039550	0.6415233612
1651.0591113281	0.6189201474
1652.9879187011	0.6483789682
1654.9167260742	0.6463851929
1656.8455334472	0.6319757104
1658.7743408203	0.6421333551
1660.7031481933	0.6319699287
1662.6319555664	0.6386198401
1664.5607629394	0.6364281774
1666.4895703125	0.6490176320
1668.4183776855	0.6592124701
1670.3471850586	0.6455572844
1672.2759924316	0.6558101773
1674.2047998047	0.6573174000
1676.1336071777	0.6534752846
1678.0624145507	0.6550265551
1679.9912219238	0.6560170054
1681.9200292968	0.6583635807
1683.8488366699	0.6584754586
1685.7776440429	0.6564075351
1687.7064514160	0.6710060239
1689.6352587890	0.6613786221
1691.5640661621	0.6385402083
1693.4928735351	0.6735419035
1695.4216809082	0.6749976277
1697.3504882812	0.6556553245
1699.2792956543	0.6712856293
1701.2081030273	0.6474524736
1703.1369104004	0.6623175740
1705.0657177734	0.6710960269
1706.9945251464	0.6533942223
1708.9233325195	0.6733143330
1710.8521398925	0.6733322144
1712.7809472656	0.6590880752
1714.7097546386	0.6699744463
1716.6385620117	0.6775824428
1718.5673693847	0.6575077176
1720.4961767578	0.6488735080
1722.4249841308	0.6529474258
1724.3537915039	0.6322146058
1726.2825988769	0.6355899572
1728.2114062500	0.6569304466
1730.1402136230	0.6593232751
1732.0690209961	0.6651713252
1733.9978283691	0.6606366634
1735.9266357421	0.6512532234
1737.8554431152	0.6542623043
1739.7842504882	0.6490452290
1741.7130578613	0.6440010667
1743.6418652343	0.6448573470
1745.5706726074	0.6425181031
1747.4994799804	0.6414829493
1749.4282873535	0.6443405747
1751.3570947265	0.6383247375
1753.2859020996	0.6386690736
1755.2147094726	0.6257585883
1757.1435168457	0.6176347136
1759.0723242187	0.6355273128
1761.0011315918	0.6351208091
1762.9299389648	0.6522687078
1764.8587463379	0.6421007514
1766.7875537109	0.6309432387
1768.7163610839	0.6550909877
1770.6451684570	0.6382730603
1772.5739758300	0.6322818995
1774.5027832031	0.6218509674
1776.4315905761	0.6171349883
1778.3603979492	0.6400995255
1780.2892053222	0.6242200732
1782.2180126953	0.6257547736
1784.1468200683	0.6343272328
1786.0756274414	0.6241114140
1788.0044348144	0.6312973499
1789.9332421875	0.6345514655
1791.8620495605	0.6278705597
1793.7908569336	0.6261150837
1795.7196643066	0.6259611845
1797.6484716796	0.6248409748
1799.5772790527	0.6372415423
1801.5060864257	0.6311384439
1803.4348937988	0.6161237955
1805.3637011718	0.6201046705
1807.2925085449	0.6276605725
1809.2213159179	0.6342126131
1811.1501232910	0.6301615834
1813.0789306640	0.6332566738
1815.0077380371	0.6209334135
1816.9365454101	0.6229038239
1818.8653527832	0.6395515203
1820.7941601562	0.6234238744
1822.7229675293	0.6323233247
1824.6517749023	0.6222943664
1826.5805822753	0.6154124737
1828.5093896484	0.6279155612
1830.4381970214	0.6153228879
1832.3670043945	0.6287788749
1834.2958117675	0.6129817367
1836.2246191406	0.6126480103
1838.1534265136	0.6233745217
1840.0822338867	0.6062399745
1842.0110412597	0.6298316717
1843.9398486328	0.6311731339
1845.8686560058	0.6193326116
1847.7974633789	0.6171164513
1849.7262707519	0.6140390038
1851.6550781250	0.6241710782
1853.5838854980	0.6183106303
1855.5126928710	0.6143270135
1857.4415002441	0.6099379063
1859.3703076171	0.6241109967
1861.2991149902	0.6249869466
1863.2279223632	0.6131013632
1865.1567297363	0.6256301403
1867.0855371093	0.6106824875
1869.0143444824	0.6126983762
1870.9431518554	0.6435553432
1872.8719592285	0.6305943727
1874.8007666015	0.6065912843
1876.7295739746	0.6224394441
1878.6583813476	0.6209199429
1880.5871887207	0.6058413982
1882.5159960937	0.6224752665
1884.4448034667	0.6132499576
1886.3736108398	0.6188362241
1888.3024182128	0.6328603625
1890.2312255859	0.6201185584
1892.1600329589	0.6328276396
1894.0888403320	0.6191639900
1896.0176477050	0.6069961786
1897.9464550781	0.6213498712
1899.8752624511	0.6067751646
1901.8040698242	0.6140560508
1903.7328771972	0.6254324913
1905.6616845703	0.6209183931
1907.5904919433	0.6275147796
1909.5192993164	0.6065699458
1911.4481066894	0.6095851660
1913.3769140625	0.6115368605
1915.3057214355	0.5993406177
1917.2345288085	0.6262673736
1919.1633361816	0.6047495604
1921.0921435546	0.6003166437
1923.0209509277	0.6252363920
1924.9497583007	0.6179571748
1926.8785656738	0.6228511333
1928.8073730468	0.6109302044
1930.7361804199	0.6130732298
1932.6649877929	0.6212500930
1934.5937951660	0.6242803931
1936.5226025390	0.6168984771
1938.4514099121	0.6024351120
1940.3802172851	0.6216325760
1942.3090246582	0.6120591760
1944.2378320312	0.6196639538
1946.1666394042	0.6328891516
1948.0954467773	0.6100356579
1950.0242541503	0.6040564179
1951.9530615234	0.6149984598
1953.8818688964	0.6307425499
1955.8106762695	0.6098142862
1957.7394836425	0.6069722772
1959.6682910156	0.6261574030
1961.5970983886	0.6259077787
1963.5259057617	0.6210079193
1965.4547131347	0.6063444018
1967.3835205078	0.6190114617
1969.3123278808	0.6125271320
1971.2411352539	0.5970449448
1973.1699426269	0.6044453979
1975.0987499999	0.5990082622
1977.0275573730	0.6126691103
1978.9563647460	0.6162521839
1980.8851721191	0.6043607593
1982.8139794921	0.6082395911
1984.7427868652	0.6081050038
1986.6715942382	0.6200473905
1988.6004016113	0.6274376512
1990.5292089843	0.6179981232
1992.4580163574	0.6208367348
1994.3868237304	0.6064662933
1996.3156311035	0.5962024331
1998.2444384765	0.6134087443
2000.1732458496	0.6045279503
2002.1020532226	0.6016231179
2004.0308605956	0.6215718389
2005.9596679687	0.6183994412
2007.8884753417	0.6028203368
2009.8172827148	0.5999233127
2011.7460900878	0.6000029445
2013.6748974609	0.5978480577
2015.6037048339	0.6080983281
2017.5325122070	0.6095520854
2019.4613195800	0.6082227826
2021.3901269531	0.6179329157
2023.3189343261	0.6054659486
2025.2477416992	0.6069495678
2027.1765490722	0.6271409392
2029.1053564453	0.6012338996
2031.0341638183	0.5945242047
2032.9629711914	0.6190543175
2034.8917785644	0.6117145419
2036.8205859374	0.6088767052
2038.7493933105	0.6050616503
2040.6782006835	0.5950827003
2042.6070080566	0.5918776989
2044.5358154296	0.6091469526
2046.4646228027	0.6169433594
2048.3934301757	0.5847566724
2050.3222375488	0.6059706211
2052.2510449218	0.6220297813
2054.1798522949	0.6049724817
2056.1086596679	0.6014449000
2058.0374670410	0.5947868824
2059.9662744140	0.6131462455
2061.8950817871	0.5979282856
2063.8238891601	0.5961509943
2065.7526965331	0.6096507311
2067.6815039062	0.5957411528
2069.6103112792	0.6155169606
2071.5391186523	0.6067266464
2073.4679260253	0.5951803923
2075.3967333984	0.6099370718
2077.3255407714	0.6171545982
2079.2543481445	0.6218754649
2081.1831555175	0.6076794863
2083.1119628906	0.5982121825
2085.0407702636	0.5946381688
2086.9695776367	0.6011744738
2088.8983850097	0.6149050593
2090.8271923828	0.6158575416
2092.7559997558	0.6067400575
2094.6848071288	0.5984142423
2096.6136145019	0.6126219630
2098.5424218749	0.6174414158
2100.4712292480	0.6060659289
2102.4000366210	0.6036490798
2104.3288439941	0.5990946889
2106.2576513671	0.6156994104
2108.1864587402	0.6196093559
2110.1152661132	0.6027349234
2112.0440734863	0.6189523935
2113.9728808593	0.6103132963
2115.9016882324	0.6085347533
2117.8304956054	0.6112893224
2119.7593029785	0.5874428153
2121.6881103515	0.5990572572
2123.6169177245	0.5985508561
2125.5457250976	0.6236062646
2127.4745324706	0.6253569126
2129.4033398437	0.5833411813
2131.3321472167	0.6039986610
2133.2609545898	0.6076251268
2135.1897619628	0.6109358668
2137.1185693359	0.6188867092
2139.0473767089	0.6085088849
2140.9761840820	0.6097114682
2142.9049914550	0.6038681269
2144.8337988281	0.6079902649
2146.7626062011	0.6056296229
2148.6914135742	0.6194839478
2150.6202209472	0.6276043653
2152.5490283203	0.6171033382
2154.4778356933	0.6075269580
2156.4066430663	0.6003695726
2158.3354504394	0.5997999310
2160.2642578124	0.5802334547
2162.1930651855	0.5931488872
2164.1218725585	0.5975419283
2166.0506799316	0.5970598459
2167.9794873046	0.6144886613
2169.9082946777	0.5988975763
2171.8371020507	0.6088387370
2173.7659094238	0.5949887037
2175.6947167968	0.5890334845
2177.6235241699	0.6080014706
2179.5523315429	0.5838323832
2181.4811389160	0.6019531488
2183.4099462890	0.6112033725
2185.3387536620	0.5984960198
2187.2675610351	0.6210051775
2189.1963684081	0.6070416570
2191.1251757812	0.5981112123
2193.0539831542	0.6115319729
2194.9827905273	0.5971593261
2196.9115979003	0.6096326113
2198.8404052734	0.6220234632
2200.7692126464	0.5973075628
2202.6980200195	0.5942450166
2204.6268273925	0.6013321280
2206.5556347656	0.6031247377
2208.4844421386	0.6159633994
2210.4132495117	0.6284435987
2212.3420568847	0.6193958521
2214.2708642577	0.6086502671
2216.1996716308	0.6178448796
2218.1284790038	0.6146673560
2220.0572863769	0.6047039628
2221.9860937499	0.6039324403
2223.9149011230	0.6085587740
2225.8437084960	0.6142523289
2227.7725158691	0.5971987247
2229.7013232421	0.5892958641
2231.6301306152	0.6097147465
2233.5589379882	0.6092849970
2235.4877453613	0.5996261835
2237.4165527343	0.6143296361
2239.3453601074	0.6133760214
2241.2741674804	0.5921260118
2243.2029748534	0.6035968661
2245.1317822265	0.6186165810
2247.0605895995	0.6014813781
2248.9893969726	0.5945504904
2250.9182043456	0.5989494920
2252.8470117187	0.6078012586
2254.7758190917	0.6104525924
2256.7046264648	0.6062335968
2258.6334338378	0.6032719016
2260.5622412109	0.5941983461
2262.4910485839	0.6097593307
2264.4198559570	0.6084704995
2266.3486633300	0.6014909744
2268.2774707031	0.6023554802
2270.2062780761	0.5881038904
2272.1350854491	0.6217750907
2274.0638928222	0.6255520582
2275.9927001952	0.6044737697
2277.9215075683	0.6019287109
2279.8503149413	0.5920966268
2281.7791223144	0.6111862659
2283.7079296874	0.6007955074
2285.6367370605	0.5902217627
2287.5655444335	0.5953436494
2289.4943518066	0.6040247679
2291.4231591796	0.6093149185
2293.3519665527	0.5756511688
2295.2807739257	0.5916839838
2297.2095812988	0.6090534329
2299.1383886718	0.5973368883
2301.0671960449	0.6020261049
2302.9960034179	0.5970402360
2304.9248107909	0.6111597419
2306.8536181640	0.6158525348
2308.7824255370	0.5988233089
2310.7112329101	0.5977686048
2312.6400402831	0.5985471010
2314.5688476562	0.5938775539
2316.4976550292	0.5960698724
2318.4264624023	0.5955975652
2320.3552697753	0.6086211205
2322.2840771484	0.6192405224
2324.2128845214	0.6055383682
2326.1416918945	0.6181491613
2328.0704992675	0.6046448946
2329.9993066406	0.5879782438
2331.9281140136	0.6240735650
2333.8569213866	0.6252698302
2335.7857287597	0.6022782326
2337.7145361327	0.6119813323
2339.6433435058	0.6333799958
2341.5721508788	0.6302042007
2343.5009582519	0.6094428897
2345.4297656249	0.6008282304
2347.3585729980	0.6084513068
2349.2873803710	0.5911372304
2351.2161877441	0.5850195885
2353.1449951171	0.6142429113
2355.0738024902	0.6097410917
2357.0026098632	0.6244739294
2358.9314172363	0.6124684215
2360.8602246093	0.5866678953
2362.7890319823	0.6088356972
2364.7178393554	0.5919405818
2366.6466467284	0.6091721654
2368.5754541015	0.6220187545
2370.5042614745	0.6068264842
2372.4330688476	0.6119291782
2374.3618762206	0.6007152796
2376.2906835937	0.6048100591
2378.2194909667	0.5943303704
2380.1482983398	0.5895199776
2382.0771057128	0.5812447071
2384.0059130859	0.5769915581
2385.9347204589	0.6077225804
2387.8635278320	0.6038522720
2389.7923352050	0.6018093228
2391.7211425780	0.5933853388
2393.6499499511	0.5953025222
2395.5787573241	0.6164880395
2397.5075646972	0.5984098911
2399.4363720702	0.5995658040
2401.3651794433	0.5885464549
2403.2939868163	0.5728813410
2405.2227941894	0.5918749571
2407.1516015624	0.5951601863
2409.0804089355	0.5850666761
2411.0092163085	0.5868158937
2412.9380236816	0.5981686711
2414.8668310546	0.5851958990
2416.7956384277	0.5891395211
2418.7244458007	0.5954618454
2420.6532531738	0.5821769238
2422.5820605468	0.6005092859
2424.5108679198	0.6118152738
2426.4396752929	0.6055248976
2428.3684826659	0.5880995393
2430.2972900390	0.5916099548
2432.2260974120	0.5906155705
2434.1549047851	0.5749651790
2436.0837121581	0.5960774422
2438.0125195312	0.5922580361
2439.9413269042	0.5877705812
2441.8701342773	0.5817273259
2443.7989416503	0.5941773653
2445.7277490234	0.6089295149
2447.6565563964	0.5685831904
2449.5853637695	0.5929867029
2451.5141711425	0.5958046317
2453.4429785155	0.5784804821
2455.3717858886	0.6104034781
2457.3005932616	0.5924388766
2459.2294006347	0.5798664093
2461.1582080077	0.5795311332
2463.0870153808	0.5850445628
2465.0158227538	0.5809248090
2466.9446301269	0.5683562160
2468.8734374999	0.5855696201
2470.8022448730	0.5771629214
2472.7310522460	0.5662784576
2474.6598596191	0.5836572051
2476.5886669921	0.6022685766
2478.5174743652	0.5948721766
2480.4462817382	0.5910692811
2482.3750891112	0.5977388024
2484.3038964843	0.5813091397
2486.2327038573	0.5739117861
2488.1615112304	0.5804035664
2490.0903186034	0.5902851224
2492.0191259765	0.5945345163
2493.9479333495	0.5877761841
2495.8767407226	0.5780401230
2497.8055480956	0.5968977213
2499.7343554687	0.6050072908
2501.6631628417	0.5864195228
2503.5919702148	0.5964071155
2505.5207775878	0.5769605041
2507.4495849609	0.5722149014
2509.3783923339	0.5939301252
2511.3071997069	0.5912901759
2513.2360070800	0.5788879991
2515.1648144530	0.5611602068
2517.0936218261	0.5844709277
2519.0224291991	0.5774895549
2520.9512365722	0.5803419948
2522.8800439452	0.6061056256
2524.8088513183	0.5850374699
2526.7376586913	0.5993682742
2528.6664660644	0.5866456032
2530.5952734374	0.5812187195
2532.5240808105	0.5959796906
2534.4528881835	0.5795633197
2536.3816955566	0.5932388902
2538.3105029296	0.5802839398
2540.2393103027	0.5850763917
2542.1681176757	0.5836594105
2544.0969250487	0.5604948997
2546.0257324218	0.5953701735
2547.9545397948	0.5874359608
2549.8833471679	0.5740482211
2551.8121545409	0.5914033651
2553.7409619140	0.5814827085
2555.6697692870	0.5752083659
2557.5985766601	0.5844761729
2559.5273840331	0.5996658206
2561.4561914062	0.5840335488
2563.3849987792	0.5725999475
2565.3138061523	0.5798571110
2567.2426135253	0.5786809325
2569.1714208984	0.6007359028
2571.1002282714	0.6084908247
2573.0290356444	0.5862827897
2574.9578430175	0.5662609339
2576.8866503905	0.5659601092
2578.8154577636	0.5923284292
2580.7442651366	0.6101070642
2582.6730725097	0.5991165042
2584.6018798827	0.5906236172
2586.5306872558	0.5904897451
2588.4594946288	0.5698138475
2590.3883020019	0.5647919178
2592.3171093749	0.5637673140
2594.2459167480	0.5713800788
2596.1747241210	0.6010770202
2598.1035314941	0.5810220242
2600.0323388671	0.5754103065
2601.9611462401	0.5963580012
2603.8899536132	0.5805719495
2605.8187609862	0.5824426413
2607.7475683593	0.5791661143
2609.6763757323	0.5619179606
2611.6051831054	0.5808069706
2613.5339904784	0.5867764950
2615.4627978515	0.5669593215
2617.3916052245	0.5712952018
2619.3204125976	0.5669149756
2621.2492199706	0.5774554014
2623.1780273437	0.5933945179
2625.1068347167	0.5603719950
2627.0356420898	0.5780647397
2628.9644494628	0.6010643244
2630.8932568358	0.5651053786
2632.8220642089	0.5700770617
2634.7508715819	0.5894656777
2636.6796789550	0.5709671974
2638.6084863280	0.5770679116
2640.5372937011	0.6055531502
2642.4661010741	0.5791900158
2644.3949084472	0.5685488582
2646.3237158202	0.5826412439
2648.2525231933	0.5640265942
2650.1813305663	0.5732070804
2652.1101379394	0.5812934637
2654.0389453124	0.5721481442
2655.9677526855	0.5700634718
2657.8965600585	0.5676179528
2659.8253674315	0.5736469030
2661.7541748046	0.5664435029
2663.6829821776	0.5783171654
2665.6117895507	0.5940753818
2667.5405969237	0.5706267953
2669.4694042968	0.5633028150
2671.3982116698	0.5676761270
2673.3270190429	0.5646393895
2675.2558264159	0.5790092945
2677.1846337890	0.5845359564
2679.1134411620	0.5725521445
2681.0422485351	0.5783473253
2682.9710559081	0.5917599797
2684.8998632812	0.5699546337
2686.8286706542	0.5614402890
2688.7574780273	0.5875588059
2690.6862854003	0.5618047714
2692.6150927733	0.5446528792
2694.5439001464	0.5724549890
2696.4727075194	0.5749475360
2698.4015148925	0.5749690533
2700.3303222655	0.5703161359
2702.2591296386	0.5595723391
2704.1879370116	0.5633702874
2706.1167443847	0.5738566518
2708.0455517577	0.5763852596
2709.9743591308	0.5711113214
2711.9031665038	0.5631523728
2713.8319738769	0.5452857018
2715.7607812499	0.5522797704
2717.6895886230	0.5697810054
2719.6183959960	0.5719873309
2721.5472033690	0.5609638691
2723.4760107421	0.5614199042
2725.4048181151	0.5879804492
2727.3336254882	0.5831875205
2729.2624328612	0.5634077787
2731.1912402343	0.5496581793
2733.1200476073	0.5528195500
2735.0488549804	0.5640200377
2736.9776623534	0.5518031716
2738.9064697265	0.5507410765
2740.8352770995	0.5622996092
2742.7640844726	0.5754131079
2744.6928918456	0.5691267848
2746.6216992187	0.5781186223
2748.5505065917	0.5787625313
2750.4793139647	0.5486282706
2752.4081213378	0.5724781752
2754.3369287108	0.5758137107
2756.2657360839	0.5616049767
2758.1945434569	0.5682097077
2760.1233508300	0.5549034476
2762.0521582030	0.5647357702
2763.9809655761	0.5739100575
2765.9097729491	0.5633347034
2767.8385803222	0.5493407249
2769.7673876952	0.5386002660
2771.6961950683	0.5382575989
2773.6250024413	0.5586407781
2775.5538098144	0.5777956843
2777.4826171874	0.5613452196
2779.4114245604	0.5633990169
2781.3402319335	0.5613064170
2783.2690393065	0.5591232181
2785.1978466796	0.5717291236
2787.1266540526	0.5379274487
2789.0554614257	0.5396718979
2790.9842687987	0.5731654167
2792.9130761718	0.5501956344
2794.8418835448	0.5449047089
2796.7706909179	0.5744473934
2798.6994982909	0.5726739764
2800.6283056640	0.5630944371
2802.5571130370	0.5623443723
2804.4859204101	0.5587558150
2806.4147277831	0.5580683947
2808.3435351562	0.5452467203
2810.2723425292	0.5496320128
2812.2011499022	0.5504689813
2814.1299572753	0.5281676650
2816.0587646483	0.5544008613
2817.9875720214	0.5535296202
2819.9163793944	0.5333076119
2821.8451867675	0.5582399368
2823.7739941405	0.5388668776
2825.7028015136	0.5471032858
2827.6316088866	0.5739191175
2829.5604162597	0.5531266332
2831.4892236327	0.5551998019
2833.4180310058	0.5390294790
2835.3468383788	0.5380306840
2837.2756457519	0.5600129962
2839.2044531249	0.5600191951
2841.1332604979	0.5657319427
2843.0620678710	0.5522261858
2844.9908752440	0.5341967940
2846.9196826171	0.5393122435
2848.8484899901	0.5729523897
2850.7772973632	0.5656309724
2852.7061047362	0.5214233398
2854.6349121093	0.5351961851
2856.5637194823	0.5557242632
2858.4925268554	0.5578340888
2860.4213342284	0.5413050056
2862.3501416015	0.5381491184
2864.2789489745	0.5519386530
2866.2077563476	0.5360042453
2868.1365637206	0.5466099381
2870.0653710936	0.5505222082
2871.9941784667	0.5404793024
2873.9229858397	0.5542961359
2875.8517932128	0.5482482910
2877.7806005858	0.5478159785
2879.7094079589	0.5427134037
2881.6382153319	0.5320081115
2883.5670227050	0.5501818657
2885.4958300780	0.5417532325
2887.4246374511	0.5259253979
2889.3534448241	0.5343852639
2891.2822521972	0.5273695588
2893.2110595702	0.5373055339
2895.1398669433	0.5502695441
2897.0686743163	0.5283781886
2898.9974816893	0.5157889724
2900.9262890624	0.5223143697
2902.8550964354	0.5245588422
2904.7839038085	0.5440111160
2906.7127111815	0.5636793971
2908.6415185546	0.5265274644
2910.5703259276	0.5300865769
2912.4991333007	0.5562850833
2914.4279406737	0.5239208341
2916.3567480468	0.5236147642
2918.2855554198	0.5174532533
2920.2143627929	0.5291815996
2922.1431701659	0.5634961724
2924.0719775390	0.5412305593
2926.0007849120	0.5298357010
2927.9295922851	0.5407157540
2929.8583996581	0.5594905615
2931.7872070311	0.5392282009
2933.7160144042	0.5226768851
2935.6448217772	0.5286277533
2937.5736291503	0.5237658620
2939.5024365233	0.5580413342
2941.4312438964	0.5479868650
2943.3600512694	0.5279541016
2945.2888586425	0.5513898730
2947.2176660155	0.5594222546
2949.1464733886	0.5417423248
2951.0752807616	0.5182378888
2953.0040881347	0.5234798193
2954.9328955077	0.5200893879
2956.8617028808	0.5345991254
2958.7905102538	0.5307163596
2960.7193176268	0.5173246264
2962.6481249999	0.5374779701
2964.5769323729	0.5296913981
2966.5057397460	0.5443424582
2968.4345471190	0.5285444260
2970.3633544921	0.5159840584
2972.2921618651	0.5299682617
2974.2209692382	0.5061035156
2976.1497766112	0.5300953984
2978.0785839843	0.5148571730
2980.0073913573	0.5075885653
2981.9361987304	0.5537549853
2983.8650061034	0.5229046345
2985.7938134765	0.5068536997
2987.7226208495	0.5277416110
2989.6514282225	0.5364940166
2991.5802355956	0.5387963057
2993.5090429686	0.5318586230
2995.4378503417	0.5137925744
2997.3666577147	0.5033774972
2999.2954650878	0.5219529271
3001.2242724608	0.5237776637
3003.1530798339	0.5288271904
3005.0818872069	0.5434485674
3007.0106945800	0.5433114767
3008.9395019530	0.5141021013
3010.8683093261	0.4917857051
3012.7971166991	0.5247039795
3014.7259240722	0.5095307827
3016.6547314452	0.5190631747
3018.5835388182	0.5452654958
3020.5123461913	0.4889856875
3022.4411535643	0.5058077574
3024.3699609374	0.5353221893
3026.2987683104	0.5062373877
3028.2275756835	0.5107238889
3030.1563830565	0.5232652426
3032.0851904296	0.5154573917
3034.0139978026	0.5022253394
3035.9428051757	0.5085356236
3037.8716125487	0.5005015731
3039.8004199218	0.5033555031
3041.7292272948	0.5138100982
3043.6580346679	0.4958826900
3045.5868420409	0.4941811264
3047.5156494139	0.5188968182
3049.4444567870	0.5408091545
3051.3732641600	0.5281918049
3053.3020715331	0.5239719152
3055.2308789061	0.5184659958
3057.1596862792	0.5228693485
3059.0884936522	0.5085516572
3061.0173010253	0.4800064564
3062.9461083983	0.5196141005
3064.8749157714	0.5003628731
3066.8037231444	0.4941110313
3068.7325305175	0.5219497681
3070.6613378905	0.5122049451
3072.5901452636	0.5287483335
3074.5189526366	0.5073503256
3076.4477600097	0.5145205259
3078.3765673827	0.5185546279
3080.3053747557	0.4936719835
3082.2341821288	0.4939345121
3084.1629895018	0.4878401458
3086.0917968749	0.5084917545
3088.0206042479	0.5225929022
3089.9494116210	0.5139886737
3091.8782189940	0.4835851789
3093.8070263671	0.4952338040
3095.7358337401	0.5052442551
3097.6646411132	0.4797083437
3099.5934484862	0.4924977124
3101.5222558593	0.4947658479
3103.4510632323	0.5102617145
3105.3798706054	0.4972576797
3107.3086779784	0.4907331467
3109.2374853514	0.4905077517
3111.1662927245	0.4943358600
3113.0951000975	0.5377660990
3115.0239074706	0.5091781616
3116.9527148436	0.5165925026
3118.8815222167	0.5246236324
3120.8103295897	0.4984708130
3122.7391369628	0.4967590570
3124.6679443358	0.5109056830
3126.5967517089	0.5436152220
3128.5255590819	0.5087059736
3130.4543664550	0.5065484643
3132.3831738280	0.5148864985
3134.3119812011	0.4924642742
3136.2407885741	0.4863359630
3138.1695959471	0.4907225668
3140.0984033202	0.5173591375
3142.0272106932	0.4984444678
3143.9560180663	0.4845288098
3145.8848254393	0.4966315925
3147.8136328124	0.5102892518
3149.7424401854	0.4564986825
3151.6712475585	0.4539536536
3153.6000549315	0.5143672228
3155.5288623046	0.4705739617
3157.4576696776	0.5074353814
3159.3864770507	0.5229138732
3161.3152844237	0.4929515123
3163.2440917968	0.5238509774
3165.1728991698	0.5034523010
3167.1017065428	0.5137514472
3169.0305139159	0.5018280745
3170.9593212889	0.4726397395
3172.8881286620	0.4848879278
3174.8169360350	0.5122303963
3176.7457434081	0.5205100179
3178.6745507811	0.5135734677
3180.6033581542	0.5167488456
3182.5321655272	0.5109591484
3184.4609729003	0.5249108076
3186.3897802733	0.4969302416
3188.3185876464	0.5012833476
3190.2473950194	0.5053786039
3192.1762023925	0.4692360461
3194.1050097655	0.5164515376
3196.0338171386	0.5129758716
3197.9626245116	0.5066121221
3199.8914318846	0.5299356580
3201.8202392577	0.5183858275
3203.7490466307	0.5286593437
3205.6778540038	0.5334047079
3207.6066613768	0.5054056048
3209.5354687499	0.4814103544
3211.4642761229	0.5197521448
3213.3930834960	0.5263246298
3215.3218908690	0.5132483840
3217.2506982421	0.5375759602
3219.1795056151	0.5220957994
3221.1083129882	0.5321529508
3223.0371203612	0.5438391566
3224.9659277343	0.5383710265
3226.8947351073	0.5401299596
3228.8235424803	0.5041601062
3230.7523498534	0.5089976788
3232.6811572264	0.5329939127
3234.6099645995	0.5093142390
3236.5387719725	0.5114750862
3238.4675793456	0.5305742621
3240.3963867186	0.5276607275
3242.3251940917	0.5258079767
3244.2540014647	0.5294694304
3246.1828088378	0.5100923181
3248.1116162108	0.5069417953
3250.0404235839	0.5399472713
3251.9692309569	0.5185270309
3253.8980383300	0.5134519339
3255.8268457030	0.5431829095
3257.7556530760	0.5345160961
3259.6844604491	0.5291292071
3261.6132678221	0.5300862789
3263.5420751952	0.5362438560
3265.4708825682	0.5393573046
3267.3996899413	0.5525531173
3269.3284973143	0.5486481190
3271.2573046874	0.5433158278
3273.1861120604	0.5464627743
3275.1149194335	0.5309764147
3277.0437268065	0.5532213449
3278.9725341796	0.5362680554
3280.9013415526	0.5535781980
3282.8301489257	0.5789458156
3284.7589562987	0.5324119925
3286.6877636717	0.5626120567
3288.6165710448	0.5758007169
3290.5453784178	0.5587934256
3292.4741857909	0.5532175303
3294.4029931639	0.5653303266
3296.3318005370	0.5648341179
3298.2606079100	0.5393761992
3300.1894152831	0.5693171620
3302.1182226561	0.5451489687
3304.0470300292	0.5612451434
3305.9758374022	0.6013322473
3307.9046447753	0.5583232641
3309.8334521483	0.5774041414
3311.7622595214	0.5840386152
3313.6910668944	0.5456693172
3315.6198742675	0.5629050732
3317.5486816405	0.5935450196
3319.4774890135	0.5734730363
3321.4062963866	0.5796428919
3323.3351037596	0.5953962207
3325.2639111327	0.5921317935
3327.1927185057	0.6018372774
3329.1215258788	0.6044916511
3331.0503332518	0.6255677342
3332.9791406249	0.5818265080
3334.9079479979	0.5890558958
3336.8367553710	0.6294604540
3338.7655627440	0.5939673185
3340.6943701171	0.6242187619
3342.6231774901	0.6163194776
3344.5519848632	0.6188750863
3346.4807922362	0.6458069086
3348.4095996092	0.5952457786
3350.3384069823	0.5744389892
3352.2672143553	0.5949811339
3354.1960217284	0.6188579798
3356.1248291014	0.6072922349
3358.0536364745	0.6064246893
3359.9824438475	0.6076125503
3361.9112512206	0.6103588343
3363.8400585936	0.6493530869
3365.7688659667	0.6476832628
3367.6976733397	0.6262397766
3369.6264807128	0.6009957790
3371.5552880858	0.6369127631
3373.4840954589	0.6510732770
3375.4129028319	0.5806492567
3377.3417102049	0.5919036269
3379.2705175780	0.6379216313
3381.1993249510	0.6522945762
3383.1281323241	0.6638666987
3385.0569396971	0.6550461054
3386.9857470702	0.6489357352
3388.9145544432	0.6648710370
3390.8433618163	0.6534294486
3392.7721691893	0.6240109205
3394.7009765624	0.6516717672
3396.6297839354	0.6942830682
3398.5585913085	0.7072741389
3400.4873986815	0.6669273376
3402.4162060546	0.6615407467
3404.3450134276	0.7151985168
3406.2738208006	0.6928256154
3408.2026281737	0.6984068155
3410.1314355467	0.7125510573
3412.0602429198	0.6714794636
3413.9890502928	0.6695308685
3415.9178576659	0.6721440554
3417.8466650389	0.6947524548
3419.7754724120	0.7151072025
3421.7042797850	0.6808854938
3423.6330871581	0.6841887832
3425.5618945311	0.7168388367
3427.4907019042	0.7164928913
3429.4195092772	0.6937905550
3431.3483166503	0.6798501015
3433.2771240233	0.7000813484
3435.2059313963	0.7280229330
3437.1347387694	0.7193480730
3439.0635461424	0.7167833447
3440.9923535155	0.7244344354
3442.9211608885	0.7128967047
3444.8499682616	0.7435872555
3446.7787756346	0.7630581856
3448.7075830077	0.7243849039
3450.6363903807	0.7202243209
3452.5651977538	0.7315345407
3454.4940051268	0.7368075252
3456.4228124999	0.7016829848
3458.3516198729	0.6868798137
3460.2804272460	0.7402785420
3462.2092346190	0.7295948267
3464.1380419921	0.7358963490
3466.0668493651	0.7314376235
3467.9956567381	0.7144840360
3469.9244641112	0.7775692940
3471.8532714842	0.7439114451
3473.7820788573	0.7295073867
3475.7108862303	0.7747157812
3477.6396936034	0.7549825311
3479.5685009764	0.7619853020
3481.4973083495	0.7772153616
3483.4261157225	0.7988176942
3485.3549230956	0.7971872091
3487.2837304686	0.7842609286
3489.2125378417	0.7711957097
3491.1413452147	0.7527901530
3493.0701525878	0.7837996483
3494.9989599608	0.7940329909
3496.9277673338	0.8052006960
3498.8565747069	0.7930496335
3500.7853820799	0.7695660591
3502.7141894530	0.8315916657
3504.6429968260	0.8320800662
3506.5718041991	0.7613286972
3508.5006115721	0.7569898367
3510.4294189452	0.7696650028
3512.3582263182	0.7616741657
3514.2870336913	0.7766084671
3516.2158410643	0.7680813670
3518.1446484374	0.7755162120
3520.0734558104	0.8255023360
3522.0022631835	0.7866011858
3523.9310705565	0.7392460704
3525.8598779295	0.7770382166
3527.7886853026	0.8276016712
3529.7174926756	0.8198754787
3531.6463000487	0.7816064358
3533.5751074217	0.8018190861
3535.5039147948	0.8330315351
3537.4327221678	0.8292081356
3539.3615295409	0.8443226218
3541.2903369139	0.8209702373
3543.2191442870	0.7743856907
3545.1479516600	0.8052806854
3547.0767590331	0.7968897820
3549.0055664061	0.8107099533
3550.9343737792	0.8959051371
3552.8631811522	0.8136000037
3554.7919885252	0.7682945728
3556.7207958983	0.8347684741
3558.6496032713	0.8223418593
3560.5784106444	0.7973510027
3562.5072180174	0.8004882336
3564.4360253905	0.8221911192
3566.3648327635	0.8010477424
3568.2936401366	0.7910931706
3570.2224475096	0.8321456313
3572.1512548827	0.8104339242
3574.0800622557	0.8211407065
3576.0088696288	0.8378807902
3577.9376770018	0.7828621864
3579.8664843749	0.7879227996
3581.7952917479	0.8226653934
3583.7240991210	0.8187307119
3585.6529064940	0.8295328021
3587.5817138670	0.8384076357
3589.5105212401	0.7980719805
3591.4393286131	0.7815452218
3593.3681359862	0.8403168321
3595.2969433592	0.8567710519
3597.2257507323	0.7850828767
3599.1545581053	0.7840778828
3601.0833654784	0.7951492667
3603.0121728514	0.7969062924
3604.9409802245	0.8251768351
3606.8697875975	0.8352273107
3608.7985949706	0.8155725598
3610.7274023436	0.7763163447
3612.6562097167	0.7857082486
3614.5850170897	0.7983082533
3616.5138244627	0.7701596618
3618.4426318358	0.7671707869
3620.3714392088	0.8063578010
3622.3002465819	0.8282264471
3624.2290539549	0.8238378167
3626.1578613280	0.8672751188
3628.0866687010	0.8424260616
3630.0154760741	0.7820875645
3631.9442834471	0.8057703972
3633.8730908202	0.7749017477
3635.8018981932	0.7770791054
3637.7307055663	0.8021278977
3639.6595129393	0.8022873998
3641.5883203124	0.8130779862
3643.5171276854	0.8126869202
3645.4459350584	0.7908450961
3647.3747424315	0.7769359350
3649.3035498045	0.8172405958
3651.2323571776	0.7943975925
3653.1611645506	0.7962660193
3655.0899719237	0.8390802741
3657.0187792967	0.7726956606
3658.9475866698	0.7513978481
3660.8763940428	0.8190807700
3662.8052014159	0.8285315037
3664.7340087889	0.7775923014
3666.6628161620	0.7789205313
3668.5916235350	0.7712131143
3670.5204309081	0.7733258605
3672.4492382811	0.7957456708
3674.3780456541	0.7670492530
3676.3068530272	0.8062770367
3678.2356604002	0.7964841723
3680.1644677733	0.7738378644
3682.0932751463	0.7818148136
3684.0220825194	0.7443109155
3685.9508898924	0.7957175374
3687.8796972655	0.8105649352
3689.8085046385	0.7600950003
3691.7373120116	0.7897230983
3693.6661193846	0.7828325033
3695.5949267577	0.7757039666
3697.5237341307	0.7827523351
3699.4525415038	0.7626665831
3701.3813488768	0.7302336097
3703.3101562499	0.7324982285
3705.2389636229	0.7489122748
3707.1677709959	0.7197471857
3709.0965783690	0.7298922539
3711.0253857420	0.7453125715
3712.9541931151	0.7255550027
3714.8830004881	0.7188054323
3716.8118078612	0.7347491980
3718.7406152342	0.7507660985
3720.6694226073	0.7154582739
3722.5982299803	0.7491753697
3724.5270373534	0.7737345695
3726.4558447264	0.7189862132
3728.3846520995	0.7353954911
3730.3134594725	0.7447717190
3732.2422668456	0.7395899296
3734.1710742186	0.7507933974
3736.0998815916	0.7684559226
3738.0286889647	0.7258281708
3739.9574963377	0.6924759746
3741.8863037108	0.7714357376
3743.8151110838	0.7420293689
3745.7439184569	0.7057661414
3747.6727258299	0.7410100102
3749.6015332030	0.7222851515
3751.5303405760	0.7540797591
3753.4591479491	0.7354268432
3755.3879553221	0.7482861876
3757.3167626952	0.7327859402
3759.2455700682	0.7199735045
3761.1743774413	0.7734968066
3763.1031848143	0.7138391137
3765.0319921873	0.7394886017
3766.9607995604	0.7480355501
3768.8896069334	0.6813909411
3770.8184143065	0.7289890647
3772.7472216795	0.7224082351
3774.6760290526	0.7001045346
3776.6048364256	0.7055011988
3778.5336437987	0.6798504591
3780.4624511717	0.7055345774
3782.3912585448	0.7491750717
3784.3200659178	0.7540457845
3786.2488732909	0.7461633086
3788.1776806639	0.6966743469
3790.1064880370	0.6865366101
3792.0352954100	0.7408067584
3793.9641027830	0.7252169847
3795.8929101561	0.6989561319
3797.8217175291	0.7548870444
3799.7505249022	0.7624062300
3801.6793322752	0.7012875080
3803.6081396483	0.7123700976
3805.5369470213	0.7012942433
3807.4657543944	0.6828486323
3809.3945617674	0.7249897122
3811.3233691405	0.6829130650
3813.2521765135	0.7106715441
3815.1809838866	0.6988664865
3817.1097912596	0.6237244606
3819.0385986327	0.7018895149
3820.9674060057	0.7164107561
3822.8962133787	0.6803738475
3824.8250207518	0.6733800173
3826.7538281248	0.6993252039
3828.6826354979	0.7091373801
3830.6114428709	0.6900020242
3832.5402502440	0.7074853182
3834.4690576170	0.7243981361
3836.3978649901	0.7677261829
3838.3266723631	0.7234234214
3840.2554797362	0.7135052681
3842.1842871092	0.7001326084
3844.1130944823	0.6532359719
3846.0419018553	0.7405691147
3847.9707092284	0.7224718928
3849.8995166014	0.6993761063
3851.8283239745	0.7358552217
3853.7571313475	0.7020785213
3855.6859387205	0.7221574187
3857.6147460936	0.7153484225
3859.5435534666	0.6695940495
3861.4723608397	0.6719132662
3863.4011682127	0.7180349231
3865.3299755858	0.7165627480
3867.2587829588	0.7083922625
3869.1875903319	0.6772618890
3871.1163977049	0.6484212279
3873.0452050780	0.7070685625
3874.9740124510	0.7051067352
3876.9028198241	0.6478611827
3878.8316271971	0.6361117959
3880.7604345702	0.7068236470
3882.6892419432	0.7001617551
3884.6180493162	0.6490190625
3886.5468566893	0.7062257528
3888.4756640623	0.6967226267
3890.4044714354	0.6708496809
3892.3332788084	0.6560219526
3894.2620861815	0.6798612475
3896.1908935545	0.7383426428
3898.1197009276	0.6716260314
3900.0485083006	0.6356011033
3901.9773156737	0.7162001133
3903.9061230467	0.7206903100
3905.8349304198	0.6429996490
3907.7637377928	0.6851205826
3909.6925451659	0.7363764644
3911.6213525389	0.6956939697
3913.5501599119	0.6887295842
3915.4789672850	0.6920695305
3917.4077746580	0.6913730502
3919.3365820311	0.6830027699
3921.2653894041	0.6979574561
3923.1941967772	0.7057828903
3925.1230041502	0.6975811720
3927.0518115233	0.6826456189
3928.9806188963	0.6674867272
3930.9094262694	0.7448710799
3932.8382336424	0.7363650203
3934.7670410155	0.6550976634
3936.6958483885	0.6629133821
3938.6246557616	0.6723548174
3940.5534631346	0.6926712990
3942.4822705076	0.7216417789
3944.4110778807	0.6817412376
3946.3398852537	0.6840721965
3948.2686926268	0.7146941423
3950.1974999998	0.6445450187
3952.1263073729	0.6899389029
3954.0551147459	0.7548722625
3955.9839221190	0.6863923669
3957.9127294920	0.7006647587
3959.8415368651	0.7072821259
3961.7703442381	0.6962475181
3963.6991516112	0.7199543118
3965.6279589842	0.7199968100
3967.5567663573	0.6904117465
3969.4855737303	0.6717562675
3971.4143811034	0.6768903136
3973.3431884764	0.6827783585
3975.2719958494	0.7308483720
3977.2008032225	0.6754395366
3979.1296105955	0.6586965322
3981.0584179686	0.7034231424
3982.9872253416	0.6219378114
3984.9160327147	0.6519092321
3986.8448400877	0.6714617014
3988.7736474608	0.6429748535
3990.7024548338	0.6880449653
3992.6312622069	0.6564724445
3994.5600695799	0.6910657883
3996.4888769530	0.7045829892
3998.4176843260	0.6599841714
4000.3464916991	0.7078138590
4002.2752990721	0.6884585023
4004.2041064451	0.6562313437
4006.1329138182	0.6852681041
4008.0617211912	0.6712898016
4009.9905285643	0.6400786638
4011.9193359373	0.6476687193
4013.8481433104	0.6683076620
4015.7769506834	0.6686283946
4017.7057580565	0.7044345737
4019.6345654295	0.7139438391
4021.5633728026	0.6374501586
4023.4921801756	0.6072825789
4025.4209875487	0.6535326838
4027.3497949217	0.7023062706
4029.2786022948	0.7079544663
4031.2074096678	0.6956721544
4033.1362170408	0.6613286734
4035.0650244139	0.6489743590
4036.9938317869	0.6888133883
4038.9226391600	0.6701216102
4040.8514465330	0.6653314233
4042.7802539061	0.6909428239
4044.7090612791	0.6847056746
4046.6378686522	0.6716109514
4048.5666760252	0.6373878121
4050.4954833983	0.6480631828
4052.4242907713	0.6716446280
4054.3530981444	0.6535155773
4056.2819055174	0.6812812090
4058.2107128905	0.7057765722
4060.1395202635	0.6135584116
4062.0683276365	0.6395249367
4063.9971350096	0.7550237775
4065.9259423826	0.6688253880
4067.8547497557	0.6718091369
4069.7835571287	0.6957491040
4071.7123645018	0.6366219521
4073.6411718748	0.6728603244
4075.5699792479	0.6684093475
4077.4987866209	0.6618317962
4079.4275939940	0.6855119467
4081.3564013670	0.6730797291
4083.2852087401	0.6489632130
4085.2140161131	0.6452984214
4087.1428234862	0.6910888553
4089.0716308592	0.6703622937
4091.0004382323	0.6106381416
4092.9292456053	0.6477807760
4094.8580529783	0.6828711629
4096.7868603514	0.6789056063
4098.7156677244	0.6916873455
4100.6444750975	0.6298695207
4102.5732824705	0.6653323174
4104.5020898436	0.7515496612
4106.4308972166	0.6695493460
4108.3597045897	0.6629917026
4110.2885119627	0.6635066867
4112.2173193358	0.6298773289
4114.1461267088	0.6368034482
4116.0749340819	0.6727467179
4118.0037414549	0.7020713687
4119.9325488280	0.6380449533
4121.8613562010	0.6290376782
4123.7901635740	0.6529162526
4125.7189709471	0.6398861408
4127.6477783201	0.6185269356
4129.5765856932	0.6237165332
4131.5053930662	0.6208474040
4133.4342004393	0.6117507815
4135.3630078123	0.6635360718
4137.2918151854	0.6736208200
4139.2206225584	0.6898834109
4141.1494299315	0.6621448994
4143.0782373045	0.6280785203
4145.0070446776	0.6732843518
4146.9358520506	0.6425958872
4148.8646594237	0.6512434483
4150.7934667967	0.6727458835
4152.7222741697	0.6600601673
4154.6510815428	0.7049431205
4156.5798889158	0.6955815554
4158.5086962889	0.6392685175
4160.4375036619	0.6448455453
4162.3663110350	0.6534419656
4164.2951184080	0.6594393849
4166.2239257811	0.7210598588
4168.1527331541	0.6987670660
4170.0815405272	0.6248296499
4172.0103479002	0.6243820190
4173.9391552733	0.6778650880
4175.8679626463	0.6517693996
4177.7967700194	0.6372951269
4179.7255773924	0.6704076529
4181.6543847654	0.6452579498
4183.5831921385	0.6877681017
4185.5119995115	0.6455466747
4187.4408068846	0.6749070883
4189.3696142576	0.6960946321
4191.2984216307	0.5706632137
4193.2272290037	0.6814221144
4195.1560363768	0.6958925128
4197.0848437498	0.6663818359
4199.0136511229	0.7016890645
4200.9424584959	0.6902859807
4202.8712658690	0.7579446435
4204.8000732420	0.6628295183
4206.7288806151	0.6235574484
4208.6576879881	0.6374618411
4210.5864953611	0.6556690335
4212.5153027342	0.6847805381
4214.4441101072	0.6031514406
4216.3729174803	0.6811624765
4218.3017248533	0.7182230949
4220.2305322264	0.6776306629
4222.1593395994	0.7195506692
4224.0881469725	0.6444312930
4226.0169543455	0.6283922791
4227.9457617186	0.7184445262
4229.8745690916	0.6821330786
4231.8033764647	0.6479214430
4233.7321838377	0.6802098751
4235.6609912108	0.7088271379
4237.5897985838	0.6784674525
4239.5186059569	0.6452981830
4241.4474133299	0.6933125257
4243.3762207029	0.6589417458
4245.3050280760	0.6768659353
4247.2338354490	0.6972143054
4249.1626428221	0.6375174522
4251.0914501951	0.6956306696
4253.0202575682	0.6661578417
4254.9490649412	0.6417019367
4256.8778723143	0.6548086405
4258.8066796873	0.6820118427
4260.7354870604	0.6906508207
4262.6642944334	0.6109876037
4264.5931018065	0.6515114307
4266.5219091795	0.6365637183
4268.4507165526	0.6311023831
4270.3795239256	0.6559929848
4272.3083312986	0.6214666963
4274.2371386717	0.6760529280
4276.1659460447	0.6557685733
4278.0947534178	0.6383680701
4280.0235607908	0.6776748896
4281.9523681639	0.6342241764
4283.8811755369	0.6063344479
4285.8099829100	0.6559003592
4287.7387902830	0.6654337645
4289.6675976561	0.6872505546
4291.5964050291	0.6991310716
4293.5252124022	0.5946549773
4295.4540197752	0.6268239617
4297.3828271483	0.6762083173
4299.3116345213	0.6542507410
4301.2404418943	0.7124319077
4303.1692492674	0.6725255251
4305.0980566404	0.6387510896
4307.0268640135	0.7247946262
4308.9556713865	0.7043438554
4310.8844787596	0.6171903610
4312.8132861326	0.6820635200
4314.7420935057	0.6737731695
4316.6709008787	0.6269484758
4318.5997082518	0.7033707500
4320.5285156248	0.6603791118
4322.4573229979	0.6359801888
4324.3861303709	0.6936591864
4326.3149377440	0.6847984791
4328.2437451170	0.6587907672
4330.1725524900	0.6329019666
4332.1013598631	0.6654242873
4334.0301672361	0.7265654206
4335.9589746092	0.6803902388
4337.8877819822	0.6802268624
4339.8165893553	0.7050595284
4341.7453967283	0.6232062578
4343.6742041014	0.6431851983
4345.6030114744	0.6745661497
4347.5318188475	0.6356230974
4349.4606262205	0.6238586307
4351.3894335936	0.6630433202
4353.3182409666	0.6978525519
4355.2470483397	0.6497200131
4357.1758557127	0.6609089971
4359.1046630858	0.6075028777
4361.0334704588	0.7008857131
4362.9622778318	0.8041967154
4364.8910852049	0.6293305159
4366.8198925779	0.6903089881
4368.7486999510	0.6772098541
4370.6775073240	0.6357808709
4372.6063146971	0.6936758757
4374.5351220701	0.6592459083
4376.4639294432	0.7176190019
4378.3927368162	0.6955484152
4380.3215441893	0.6750113368
4382.2503515623	0.6443210244
4384.1791589354	0.6126645207
4386.1079663084	0.6817459464
4388.0367736815	0.7267829776
4389.9655810545	0.6903741956
4391.8943884275	0.6068622470
4393.8231958006	0.6928339005
4395.7520031736	0.6725257635
4397.6808105467	0.5804110169
4399.6096179197	0.6650439501
4401.5384252928	0.6034147143
4403.4672326658	0.5800935030
4405.3960400389	0.6439295411
4407.3248474119	0.5976402760
4409.2536547850	0.5992464423
4411.1824621580	0.6377583146
4413.1112695311	0.6565142274
4415.0400769041	0.6493716836
4416.9688842772	0.6496495008
4418.8976916502	0.7345379591
4420.8264990232	0.6753796339
4422.7553063963	0.5891599059
4424.6841137693	0.6540738940
4426.6129211424	0.6928087473
4428.5417285154	0.6974130273
4430.4705358885	0.6870469451
4432.3993432615	0.6844877601
4434.3281506346	0.6819233894
4436.2569580076	0.6706997752
4438.1857653807	0.6859512925
4440.1145727537	0.6185981631
4442.0433801268	0.6377264857
4443.9721874998	0.6900988221
4445.9009948729	0.6784533858
4447.8298022459	0.6734230518
4449.7586096189	0.6304009557
4451.6874169920	0.6425312757
4453.6162243650	0.6622553468
4455.5450317381	0.7159945369
4457.4738391111	0.7041220665
4459.4026464842	0.6695751548
4461.3314538572	0.7039332986
4463.2602612303	0.6196679473
4465.1890686033	0.6954599619
4467.1178759764	0.7567751408
4469.0466833494	0.6772097945
4470.9754907225	0.6988416910
4472.9042980955	0.6832767129
4474.8331054686	0.7082514763
4476.7619128416	0.6522257924
4478.6907202147	0.6482930779
4480.6195275877	0.6742979884
4482.5483349607	0.6174644232
4484.4771423338	0.7248989344
4486.4059497068	0.6493613124
4488.3347570799	0.5973868370
4490.2635644529	0.7086802721
4492.1923718260	0.6358038783
4494.1211791990	0.6738002896
4496.0499865721	0.7235673070
4497.9787939451	0.6750584841
4499.9076013182	0.6063800454
4501.8364086912	0.5402312875
4503.7652160643	0.6402808428
4505.6940234373	0.6597046256
4507.6228308104	0.6182533503
4509.5516381834	0.6786242723
4511.4804455564	0.6400039792
4513.4092529295	0.5953172445
4515.3380603025	0.6144665480
4517.2668676756	0.6345344186
4519.1956750486	0.6669867039
4521.1244824217	0.6511598825
4523.0532897947	0.6403921843
4524.9820971678	0.6928737164
4526.9109045408	0.6270787120
4528.8397119139	0.5741991997
4530.7685192869	0.6285647750
4532.6973266600	0.6143535376
4534.6261340330	0.6435504556
4536.5549414061	0.6944826245
4538.4837487791	0.6477155685
4540.4125561521	0.6653118134
4542.3413635252	0.6883216500
4544.2701708982	0.6236139536
4546.1989782713	0.6983658075
4548.1277856443	0.7097507715
4550.0565930174	0.5810575485
4551.9854003904	0.7125363350
4553.9142077635	0.7210020423
4555.8430151365	0.6154749990
4557.7718225096	0.6741412878
4559.7006298826	0.6388444304
4561.6294372557	0.6621752381
4563.5582446287	0.6909755468
4565.4870520018	0.6755930781
4567.4158593748	0.7285395861
4569.3446667478	0.6678735614
4571.2734741209	0.6340798736
4573.2022814939	0.6327389479
4575.1310888670	0.6205320954
4577.0598962400	0.6543940306
4578.9887036131	0.6089246273
4580.9175109861	0.6108452678
4582.8463183592	0.7085954547
4584.7751257322	0.6986650825
4586.7039331053	0.6325996518
4588.6327404783	0.6349346042
4590.5615478514	0.6329016685
4592.4903552244	0.6236112714
4594.4191625975	0.6813168526
4596.3479699705	0.6575064063
4598.2767773435	0.6863043904
4600.2055847166	0.6911366582
4602.1343920896	0.5955901742
4604.0631994627	0.7099949718
4605.9920068357	0.6882801056
4607.9208142088	0.5997904539
4609.8496215818	0.6940203905
4611.7784289549	0.6888527870
4613.7072363279	0.6574369073
4615.6360437010	0.5789051056
4617.5648510740	0.6382188797
4619.4936584471	0.6917405725
4621.4224658201	0.6005414128
4623.3512731932	0.6266531348
4625.2800805662	0.5683743358
4627.2088879393	0.6101554632
4629.1376953123	0.6519396305
4631.0665026853	0.6760071516
4632.9953100584	0.7635397315
4634.9241174314	0.6437594891
4636.8529248045	0.6617354155
4638.7817321775	0.6565352082
4640.7105395506	0.6532346606
4642.6393469236	0.7707780600
4644.5681542967	0.6789918542
4646.4969616697	0.6393043399
4648.4257690428	0.6776008606
4650.3545764158	0.6381965280
4652.2833837889	0.6180801988
4654.2121911619	0.6307666898
4656.1409985350	0.6470779777
4658.0698059080	0.6957286000
4659.9986132810	0.6961318254
4661.9274206541	0.5764303803
4663.8562280271	0.5703584552
4665.7850354002	0.7067514062
4667.7138427732	0.6995996833
4669.6426501463	0.6437005997
4671.5714575193	0.7242162228
4673.5002648924	0.6921549439
4675.4290722654	0.6574735045
4677.3578796385	0.6978065968
4679.2866870115	0.7206161618
4681.2154943846	0.6889423728
4683.1443017576	0.6036118865
4685.0731091307	0.6993989944
4687.0019165037	0.6464201808
4688.9307238767	0.5973055363
4690.8595312498	0.7494136095
4692.7883386228	0.7016810775
4694.7171459959	0.6270866394
4696.6459533689	0.6368161440
4698.5747607420	0.6530792117
4700.5035681150	0.5641835332
4702.4323754881	0.5823396444
4704.3611828611	0.6310877800
4706.2899902342	0.6377460361
4708.2187976072	0.8207542300
4710.1476049803	0.7204404473
4712.0764123533	0.6143694520
4714.0052197264	0.6912076473
4715.9340270994	0.6471298337
4717.8628344724	0.6583891511
4719.7916418455	0.7035413384
4721.7204492185	0.5729750395
4723.6492565916	0.5678808093
4725.5780639646	0.7376640439
4727.5068713377	0.6149702668
4729.4356787107	0.6542515755
4731.3644860838	0.7702830434
4733.2932934568	0.6294820905
4735.2221008299	0.6564362049
4737.1509082029	0.5760772824
4739.0797155760	0.6123804450
4741.0085229490	0.7193420529
4742.9373303221	0.6282330155
4744.8661376951	0.6848884225
4746.7949450682	0.7679032087
4748.7237524412	0.6907851696
4750.6525598142	0.6830126047
4752.5813671873	0.7399565578
4754.5101745603	0.5563917756
4756.4389819334	0.5104135275
4758.3677893064	0.6168758273
4760.2965966795	0.7544693947
4762.2254040525	0.7757418752
4764.1542114256	0.5682973862
4766.0830187986	0.6431738734
4768.0118261717	0.6979569793
4769.9406335447	0.6761640310
4771.8694409178	0.7174935341
4773.7982482908	0.7159917355
4775.7270556639	0.7104141116
4777.6558630369	0.6105952263
4779.5846704099	0.6431519389
4781.5134777830	0.6742009521
4783.4422851560	0.7175039649
4785.3710925291	0.6663948894
4787.2998999021	0.6514837146
4789.2287072752	0.7157019973
4791.1575146482	0.6364774704
4793.0863220213	0.6750752926
4795.0151293943	0.5537427664
4796.9439367674	0.5989439487
4798.8727441404	0.6451229453
4800.8015515135	0.6138410568
4802.7303588865	0.7941635251
4804.6591662596	0.6110307574
4806.5879736326	0.6204822063
4808.5167810056	0.6767607927
4810.4455883787	0.6146816015
4812.3743957517	0.7736681700
4814.3032031248	0.6764926910
4816.2320104978	0.6450523138
4818.1608178709	0.7640258670
4820.0896252439	0.6593265533
4822.0184326170	0.5976998210
4823.9472399900	0.7007429004
4825.8760473631	0.6578180790
4827.8048547361	0.6551237702
4829.7336621092	0.6699742675
4831.6624694822	0.6605571508
4833.5912768553	0.7185661197
4835.5200842283	0.5264530182
4837.4488916013	0.5957616568
4839.3776989744	0.6921345592
4841.3065063474	0.6212853789
4843.2353137205	0.7399328947
4845.1641210935	0.6967238784
4847.0929284666	0.6458685398
4849.0217358396	0.6420837641
4850.9505432127	0.6762198806
4852.8793505857	0.7070783973
4854.8081579588	0.6180653572
4856.7369653318	0.6573405266
4858.6657727049	0.6266929507
4860.5945800779	0.5814226866
4862.5233874510	0.6944342256
4864.4521948240	0.6278370619
4866.3810021971	0.5507386923
4868.3098095701	0.6496882439
4870.2386169431	0.6392285228
4872.1674243162	0.6135799885
4874.0962316892	0.6021305323
4876.0250390623	0.6771379113
4877.9538464353	0.7379945517
4879.8826538084	0.5943995118
4881.8114611814	0.7593050599
4883.7402685545	0.6604498625
4885.6690759275	0.5228189826
4887.5978833006	0.6660100818
4889.5266906736	0.6361764073
4891.4554980467	0.6976232529
4893.3843054197	0.6527435780
4895.3131127928	0.7097085118
4897.2419201658	0.7722453475
4899.1707275388	0.6819638014
4901.0995349119	0.6685456038
4903.0283422849	0.6364516020
4904.9571496580	0.7551346421
4906.8859570310	0.5954723954
4908.8147644041	0.5315880179
4910.7435717771	0.7563557625
4912.6723791502	0.7109959722
4914.6011865232	0.6351829767
4916.5299938963	0.5802255869
4918.4588012693	0.6189000607
4920.3876086424	0.7133652568
4922.3164160154	0.6505408883
4924.2452233885	0.5917601585
4926.1740307615	0.6415667534
4928.1028381345	0.6438699365
4930.0316455076	0.6033239365
4931.9604528806	0.6184716821
4933.8892602537	0.6485486627
4935.8180676267	0.6850096583
4937.7468749998	0.5968244076
4939.6756823728	0.6556379795
4941.6044897459	0.7234290838
4943.5332971189	0.6718838811
4945.4621044920	0.7515650988
4947.3909118650	0.6754558682
4949.3197192381	0.6257569194
4951.2485266111	0.6414889693
4953.1773339842	0.7360108495
4955.1061413572	0.7143629789
4957.0349487302	0.5076119900
4958.9637561033	0.6455351710
4960.8925634763	0.7391899228
4962.8213708494	0.6943306923
4964.7501782224	0.7537944317
4966.6789855955	0.7219278216
4968.6077929685	0.6968877912
4970.5366003416	0.6998095512
4972.4654077146	0.7047393918
4974.3942150877	0.6252092719
4976.3230224607	0.6164825559
4978.2518298338	0.6625161171
4980.1806372068	0.6446688771
4982.1094445799	0.6141498685
4984.0382519529	0.6347750425
4985.9670593259	0.6766439080
4987.8958666990	0.6820905209
4989.8246740720	0.6830909252
4991.7534814451	0.5644562840
4993.6822888181	0.6058596969
4995.6110961912	0.6718452573
4997.5399035642	0.5406968594
4999.4687109373	0.5841411948
5001.3975183103	0.6020030975
5003.3263256834	0.6120477319
5005.2551330564	0.6702828407
5007.1839404295	0.6885151267
5009.1127478025	0.6401886344
5011.0415551756	0.6039735675
5012.9703625486	0.7136147022
5014.8991699217	0.5707052946
5016.8279772947	0.5750828981
5018.7567846677	0.6828491092
5020.6855920408	0.5614646673
5022.6143994138	0.7539687753
5024.5432067869	0.8409551978
5026.4720141599	0.6547217369
5028.4008215330	0.7257588506
5030.3296289060	0.6956762671
5032.2584362791	0.5813040733
5034.1872436521	0.6659016609
5036.1160510252	0.6849014759
5038.0448583982	0.6576843858
5039.9736657713	0.6875439882
5041.9024731443	0.5752269626
5043.8312805174	0.6459006071
5045.7600878904	0.6677101254
5047.6888952634	0.5351063013
5049.6177026365	0.5874264240
5051.5465100095	0.5735315084
5053.4753173826	0.5746394396
5055.4041247556	0.5636519790
5057.3329321287	0.6040853262
5059.2617395017	0.6080356836
5061.1905468748	0.6167910695
5063.1193542478	0.7544934750
5065.0481616209	0.5672852397
5066.9769689939	0.6661419868
5068.9057763670	0.7604235411
5070.8345837400	0.6188436151
5072.7633911131	0.7968399525
5074.6921984861	0.6929048300
5076.6210058591	0.5763273835
5078.5498132322	0.5164840221
5080.4786206052	0.6441057920
5082.4074279783	0.6248689294
5084.3362353513	0.4885346293
5086.2650427244	0.7427363992
5088.1938500974	0.6324257255
5090.1226574705	0.6206483841
5092.0514648435	0.5637344718
5093.9802722166	0.5076406598
5095.9090795896	0.6853779554
5097.8378869627	0.5558462143
5099.7666943357	0.5940790176
5101.6955017088	0.5499767661
5103.6243090818	0.5790553689
5105.5531164548	0.8287863135
5107.4819238279	0.6675693989
5109.4107312009	0.5893085003
5111.3395385740	0.6787454486
5113.2683459470	0.7866922617
5115.1971533201	0.8118481636
5117.1259606931	0.7652429342
5119.0547680662	0.5670708418
5120.9835754392	0.5739009380
5122.9123828123	0.6551727653
5124.8411901853	0.6264871955
5126.7699975584	0.6902955770
5128.6988049314	0.5597132444
5130.6276123045	0.6185364723
5132.5564196775	0.5864822268
5134.4852270506	0.5404862165
5136.4140344236	0.6868591905
5138.3428417966	0.6503174305
5140.2716491697	0.6280047894
5142.2004565427	0.6064713001
5144.1292639158	0.8486559987
5146.0580712888	0.7618804574
5147.9868786619	0.6498337984
5149.9156860349	0.8141471148
5151.8444934080	0.5698772669
5153.7733007810	0.5512327552
5155.7021081541	0.5590234399
5157.6309155271	0.6813185215
5159.5597229002	0.6546047330
5161.4885302732	0.5037131906
5163.4173376463	0.6452194452
5165.3461450193	0.7058603764
5167.2749523923	0.8209087253
5169.2037597654	0.6267767549
5171.1325671384	0.7159466743
5173.0613745115	0.8373274207
5174.9901818845	0.5624771118
5176.9189892576	0.6153817773
5178.8477966306	0.5673224926
5180.7766040037	0.7711524963
5182.7054113767	0.8167786598
5184.6342187498	0.5706594586
5186.5630261228	0.7017869949
5188.4918334959	0.6559735537
5190.4206408689	0.7419745922
5192.3494482420	0.6527365446
5194.2782556150	0.5568351150
5196.2070629880	0.6855226755
5198.1358703611	0.6059603691
5200.0646777341	0.7505875230
5201.9934851072	0.8391022682
5203.9222924802	0.7434266210
5205.8510998533	0.7127296925
5207.7799072263	0.5757754445
5209.7087145994	0.6679695845
5211.6375219724	0.7816079259
5213.5663293455	0.7325293422
5215.4951367185	0.6543715000
5217.4239440916	0.6307003498
5219.3527514646	0.6538620591
5221.2815588377	0.5758300424
5223.2103662107	0.6126530170
5225.1391735837	0.6571166515
5227.0679809568	0.6617727876
5228.9967883298	0.6755554080
5230.9255957029	0.6734366417
5232.8544030759	0.7318760753
5234.7832104490	0.5772773027
5236.7120178220	0.6373437047
5238.6408251951	0.9180845022
5240.5696325681	0.8777555823
5242.4984399412	0.7498990893
5244.4272473142	0.6144937277
5246.3560546873	0.5640854836
5248.2848620603	0.5968070626
5250.2136694334	0.6338429451
5252.1424768064	0.7936634421
5254.0712841795	0.7445719242
5256.0000915525	0.5393919945
5257.9288989255	0.6959278584
5259.8577062986	0.7663019300
5261.7865136716	0.4923848510
5263.7153210447	0.6049905419
5265.6441284177	0.7758846879
5267.5729357908	0.6407524347
5269.5017431638	0.7160169482
5271.4305505369	0.7196603417
5273.3593579099	0.6335178018
5275.2881652830	0.6711058021
5277.2169726560	0.6915938258
5279.1457800291	0.6160057783
5281.0745874021	0.5621230006
5283.0033947752	0.5707665086
5284.9322021482	0.6347960830
5286.8610095212	0.7926892638
5288.7898168943	0.7845830917
5290.7186242673	0.6235509515
5292.6474316404	0.5955905318
5294.5762390134	0.7201282382
5296.5050463865	0.7203933597
5298.4338537595	0.5891205668
5300.3626611326	0.6225894690
5302.2914685056	0.6822424531
5304.2202758787	0.6100886464
5306.1490832517	0.6173437834
5308.0778906248	0.7217652202
5310.0066979978	0.6719477773
5311.9355053709	0.7193709612
5313.8643127439	0.6885786057
5315.7931201169	0.5628775358
5317.7219274900	0.6734509468
5319.6507348630	0.5599796772
5321.5795422361	0.5058955550
5323.5083496091	0.6622698903
5325.4371569822	0.6592541933
5327.3659643552	0.6510354280
5329.2947717283	0.8050829172
5331.2235791013	0.7021300197
5333.1523864744	0.6070836782
5335.0811938474	0.7874894142
5337.0100012205	0.6269139647
5338.9388085935	0.6241365075
5340.8676159666	0.7901505232
5342.7964233396	0.7655907869
5344.7252307126	0.8454282284
5346.6540380857	0.5759960413
5348.5828454587	0.7288215756
5350.5116528318	0.7981990576
5352.4404602048	0.5288416147
5354.3692675779	0.7119264007
5356.2980749509	0.8009215593
5358.2268823240	0.7299490571
5360.1556896970	0.6188765764
5362.0844970701	0.6959151626
5364.0133044431	0.7096571922
5365.9421118162	0.7011533976
5367.8709191892	0.8543727398
5369.7997265623	0.6289020181
5371.7285339353	0.6854944229
5373.6573413083	0.7254177332
5375.5861486814	0.6717046499
5377.5149560544	0.6895454526
5379.4437634275	0.6245383024
5381.3725708005	0.7095173597
5383.3013781736	0.6940316558
5385.2301855466	0.7813661098
5387.1589929197	0.6166622639
5389.0878002927	0.6228073239
5391.0166076658	0.8144659400
5392.9454150388	0.6154554486
5394.8742224119	0.5763947964
5396.8030297849	0.5189718604
5398.7318371580	0.6026225090
5400.6606445310	0.7532143593
5402.5894519041	0.7292571664
5404.5182592771	0.5429385900
5406.4470666501	0.5781710148
5408.3758740232	0.7116430998
5410.3046813962	0.3524447381
5412.2334887693	0.4908020496
5414.1622961423	0.7342709303
5416.0911035154	0.5878031850
5418.0199108884	0.6823724508
5419.9487182615	0.7171649933
5421.8775256345	0.6406707764
5423.8063330076	0.7437577248
5425.7351403806	0.6401848793
5427.6639477537	0.3987154663
5429.5927551267	0.7624580264
5431.5215624998	0.7347691059
5433.4503698728	0.6003427505
5435.3791772458	0.8891699314
5437.3079846189	0.6397337317
5439.2367919919	0.5982709527
5441.1655993650	0.5783935189
5443.0944067380	0.5372250676
5445.0232141111	0.4060152173
5446.9520214841	0.4474096000
5448.8808288572	0.7676943541
5450.8096362302	0.6036238074
5452.7384436033	0.6226305366
5454.6672509763	0.4501307011
5456.5960583494	0.4997075200
5458.5248657224	0.6052188873
5460.4536730955	0.3895680010
5462.3824804685	0.5141755342
5464.3112878415	0.5442028046
5466.2400952146	0.6855681539
5468.1689025876	0.6586652398
5470.0977099607	0.7345420122
5472.0265173337	0.7426893115
5473.9553247068	0.6555685997
5475.8841320798	0.8688389063
5477.8129394529	0.5272324085
5479.7417468259	0.6760423183
5481.6705541990	0.6245241165
5483.5993615720	0.5904562473
5485.5281689451	0.6333947182
5487.4569763181	0.5025862455
5489.3857836912	0.8667894006
5491.3145910642	0.6380738616
5493.2433984372	0.5057249069
5495.1722058103	0.5152116418
5497.1010131833	0.6329689622
5499.0298205564	0.6709539294
5500.9586279294	0.5832709074
5502.8874353025	0.9326096773
5504.8162426755	0.6653791666
5506.7450500486	0.6524920464
5508.6738574216	0.4683084488
5510.6026647947	0.4600072503
5512.5314721677	0.8348731995
5514.4602795408	0.7661468387
5516.3890869138	0.6739354730
5518.3178942869	0.4262540936
5520.2467016599	0.6733716130
5522.1755090330	0.6469910145
5524.1043164060	0.6013886929
5526.0331237790	0.7464141250
5527.9619311521	0.5561397076
5529.8907385251	0.5777699947
5531.8195458982	0.4313639998
5533.7483532712	0.8490834832
5535.6771606443	0.8841409683
5537.6059680173	0.7629830241
5539.5347753904	1.0227537155
5541.4635827634	0.6085866094
5543.3923901365	0.7658220530
5545.3211975095	0.6987239718
5547.2500048826	0.8882157803
5549.1788122556	0.9489911795
5551.1076196287	0.5348998904
5553.0364270017	0.8159409165
5554.9652343747	0.7794042826
5556.8940417478	0.5553115010
5558.8228491208	0.5745612979
5560.7516564939	0.6421692967
5562.6804638669	0.7267736197
5564.6092712400	0.7492364049
5566.5380786130	0.7265688777
5568.4668859861	0.5884310007
5570.3956933591	0.8163191676
5572.3245007322	0.7793862820
5574.2533081052	0.6268715858
5576.1821154783	0.8620545864
5578.1109228513	0.7290807962
5580.0397302244	0.5501704216
5581.9685375974	0.6943543553
5583.8973449704	0.7169660330
5585.8261523435	0.8027562499
5587.7549597165	0.7592017055
5589.6837670896	0.5857413411
5591.6125744626	0.8699265122
5593.5413818357	0.7049818039
5595.4701892087	0.5987426639
5597.3989965818	0.9299721718
5599.3278039548	0.5642244220
5601.2566113279	0.7456901670
5603.1854187009	1.1783972979
5605.1142260740	0.6357128024
5607.0430334470	0.8661198616
5608.9718408201	0.8625525236
5610.9006481931	0.6179223061
5612.8294555661	0.9427696466
5614.7582629392	0.7415521145
5616.6870703122	0.5490040779
5618.6158776853	0.8201444149
5620.5446850583	0.7691767216
5622.4734924314	0.5781378150
5624.4022998044	0.5237400532
5626.3311071775	0.6911509037
5628.2599145505	0.8411048055
5630.1887219236	0.9808338881
5632.1175292966	0.7044432759
5634.0463366697	0.4801537097
5635.9751440427	0.6444488168
5637.9039514158	0.7096456289
5639.8327587888	0.6922332048
5641.7615661619	0.5242154598
5643.6903735349	0.6108952761
5645.6191809079	0.6842193604
5647.5479882810	0.4233884811
5649.4767956540	0.6512238383
5651.4056030271	0.5990404487
5653.3344104001	0.7038516402
5655.2632177732	0.8784239292
5657.1920251462	0.3807435036
5659.1208325193	0.4051228166
5661.0496398923	0.9154216647
5662.9784472654	0.6938703060
5664.9072546384	0.3707249761
5666.8360620115	0.7274520397
5668.7648693845	0.6724945903
5670.6936767576	0.7940004468
5672.6224841306	0.6640724540
5674.5512915036	0.4970070124
5676.4800988767	0.9526136518
5678.4089062497	0.4651257992
5680.3377136228	0.4417487085
5682.2665209958	0.5602415800
5684.1953283689	0.7326394916
5686.1241357419	0.6673964858
5688.0529431150	0.5513257384
5689.9817504880	0.7917171717
5691.9105578611	0.6022053361
5693.8393652341	0.9429321885
5695.7681726072	0.6277349591
5697.6969799802	0.6256943941
5699.6257873533	0.9484561682
5701.5545947263	0.5217982531
5703.4834020993	0.8423802257
5705.4122094724	0.6603770256
5707.3410168454	0.8648847938
5709.2698242185	0.9436727166
5711.1986315915	0.5028901100
5713.1274389646	0.6226586699
5715.0562463376	0.3817098737
5716.9850537107	0.7077168822
5718.9138610837	0.8686197400
5720.8426684568	0.5661915541
5722.7714758298	0.5905632377
5724.7002832029	0.5962015390
5726.6290905759	0.6695172191
5728.5578979490	0.6414272189
5730.4867053220	0.7640748024
5732.4155126950	0.7014679909
5734.3443200681	0.7939836979
5736.2731274411	0.8374353051
5738.2019348142	0.9008136988
5740.1307421872	0.8876372576
5742.0595495603	0.5536220670
5743.9883569333	0.7740785480
5745.9171643064	0.8061922193
5747.8459716794	0.8159869909
5749.7747790525	0.8612891436
5751.7035864255	0.6226999164
5753.6323937986	0.6976973414
5755.5612011716	0.4930689931
5757.4900085447	0.7914054394
5759.4188159177	1.0278960466
5761.3476232907	0.7128775120
5763.2764306638	0.7314780354
5765.2052380368	0.7022106647
5767.1340454099	0.4521205425
5769.0628527829	0.5493234992
5770.9916601560	0.7345574498
5772.9204675290	0.6023619771
5774.8492749021	0.8414629102
5776.7780822751	0.5445452929
5778.7068896482	0.4240449667
5780.6356970212	0.7510882020
5782.5645043943	0.4661950469
5784.4933117673	0.7103227973
5786.4221191404	0.7460445762
5788.3509265134	0.5218273401
5790.2797338865	0.6339127421
5792.2085412595	0.6968801618
5794.1373486325	0.9431288838
5796.0661560056	0.6085264087
5797.9949633786	0.5841001272
5799.9237707517	0.8115284443
5801.8525781247	0.5860687494
5803.7813854978	0.6155872941
5805.7101928708	0.5305526257
5807.6390002439	0.4542766213
5809.5678076169	0.8074012995
5811.4966149900	0.8252135515
5813.4254223630	0.6703170538
5815.3542297361	0.6880422235
5817.2830371091	0.8012051582
5819.2118444822	0.9221386313
5821.1406518552	0.7160925269
5823.0694592282	0.4673148096
5824.9982666013	0.4687748849
5826.9270739743	0.7082127929
5828.8558813474	0.6332531571
5830.7846887204	0.8215622306
5832.7134960935	0.9183738828
5834.6423034665	0.6660467982
5836.5711108396	0.7299687266
5838.4999182126	0.7689440250
5840.4287255857	0.7814283371
5842.3575329587	0.7102640867
5844.2863403318	0.6945879459
5846.2151477048	1.0184789896
5848.1439550779	0.8206899762
5850.0727624509	0.8417347670
5852.0015698239	0.9194006324
5853.9303771970	0.7820748091
5855.8591845700	0.7912880778
5857.7879919431	0.9779605865
5859.7167993161	1.1153777838
5861.6456066892	0.5742682815
5863.5744140622	0.7702223063
5865.5032214353	0.8544490933
5867.4320288083	0.5540014505
5869.3608361814	0.6498739123
5871.2896435544	0.5349870324
5873.2184509275	0.6250293255
5875.1472583005	0.5114642382
5877.0760656736	0.6140956283
5879.0048730466	0.5404890180
5880.9336804196	0.3017026782
5882.8624877927	1.0504039526
5884.7912951657	1.0785424709
5886.7201025388	0.9579306841
5888.6489099118	0.9371307492
5890.5777172849	0.7685126662
5892.5065246579	0.7363590002
5894.4353320310	0.4733437598
5896.3641394040	0.8127661347
5898.2929467771	0.7102835774
5900.2217541501	0.7423515916
5902.1505615232	1.0576543808
5904.0793688962	0.2583354115
5906.0081762693	0.5881406069
5907.9369836423	0.9073430300
5909.8657910154	0.5191302299
5911.7945983884	0.6771652102
5913.7234057614	0.9373467565
5915.6522131345	0.9283676744
5917.5810205075	0.6469678283
5919.5098278806	0.7486127019
5921.4386352536	0.7012442946
5923.3674426267	0.4342840910
5925.2962499997	0.7571353316
5927.2250573728	0.6815173030
5929.1538647458	0.3852724731
5931.0826721189	0.7662515640
5933.0114794919	0.8215240240
5934.9402868650	0.7043688893
5936.8690942380	0.7737236619
5938.7979016111	0.6228573918
5940.7267089841	0.5198603868
5942.6555163571	0.5285266042
5944.5843237302	0.5091790557
5946.5131311032	0.5767484307
5948.4419384763	0.5084788799
5950.3707458493	0.5354855061
5952.2995532224	0.6774885654
5954.2283605954	0.6707155108
5956.1571679685	0.7560676932
5958.0859753415	0.6634678841
5960.0147827146	0.7831829190
5961.9435900876	1.3970243931
5963.8723974607	0.5330389142
5965.8012048337	0.2561592162
5967.7300122068	0.4187481105
5969.6588195798	0.6709191203
5971.5876269528	0.9297173023
5973.5164343259	0.5788556933
5975.4452416989	0.3838286400
5977.3740490720	0.6617061496
5979.3028564450	0.7892259359
5981.2316638181	0.5506086349
5983.1604711911	0.4871890545
5985.0892785642	0.7416216135
5987.0180859372	0.8457106352
5988.9468933103	0.6907538176
5990.8757006833	0.6615945101
5992.8045080564	0.5475806594
5994.7333154294	0.8282061815
5996.6621228025	1.5449951887
5998.5909301755	0.5842902660
6000.5197375485	0.4151075482
