399.2631262207	0.0005705694
401.1919335938	0.0004377875
403.1207409668	0.0006201927
405.0495483398	0.0002427998
406.9783557129	0.0002111675
408.9071630859	0.0003398195
410.8359704590	0.0005326204
412.7647778320	0.0004641094
414.6935852051	0.0000690519
416.6223925781	0.0007190137
418.5511999512	0.0007270445
420.4800073242	0.0004700511
422.4088146973	0.0007690717
424.3376220703	0.0004462034
426.2664294434	0.0006494515
428.1952368164	0.0007547275
430.1240441895	0.0003256041
432.0528515625	0.0003800204
433.9816589355	0.0004299701
435.9104663086	0.0002679253
437.8392736816	0.0002281307
439.7680810547	0.0004359378
441.6968884277	0.0003554598
443.6256958008	0.0002144923
445.5545031738	0.0004415822
447.4833105469	0.0004319387
449.4121179199	0.0003486705
451.3409252930	0.0005340473
453.2697326660	0.0003877812
455.1985400391	0.0002559402
457.1273474121	0.0005988361
459.0561547852	0.0002300918
460.9849621582	-0.0000416675
462.9137695313	0.0003308748
464.8425769043	0.0002179203
466.7713842773	0.0002434931
468.7001916504	0.0004011535
470.6289990234	0.0002017818
472.5578063965	0.0002814243
474.4866137695	0.0005482669
476.4154211426	0.0002106018
478.3442285156	0.0000618702
480.2730358887	0.0002271890
482.2018432617	0.0001794575
484.1306506348	0.0003413916
486.0594580078	0.0002702378
487.9882653809	0.0003079359
489.9170727539	0.0001419882
491.8458801270	-0.0002403686
493.7746875000	0.0002150960
495.7034948730	0.0003064306
497.6323022461	0.0001706940
499.5611096191	0.0002380939
501.4899169922	0.0000658661
503.4187243652	0.0003612181
505.3475317383	0.0003763298
507.2763391113	-0.0001755527
509.2051464844	-0.0000932541
511.1339538574	0.0001726688
513.0627612305	0.0000451491
514.9915686035	0.0001774766
516.9203759766	0.0002518729
518.8491833496	0.0003418919
520.7779907227	0.0003952288
522.7067980957	-0.0000982635
524.6356054688	0.0001560301
526.5644128418	0.0003867249
528.4932202148	0.0000847419
530.4220275879	0.0000680973
532.3508349609	-0.0000033503
534.2796423340	0.0001802467
536.2084497070	0.0001904801
538.1372570801	0.0002811091
540.0660644531	0.0002805108
541.9948718262	-0.0000341581
543.9236791992	0.0001118216
545.8524865723	0.0003147973
547.7812939453	0.0004481258
549.7101013184	0.0002712532
551.6389086914	0.0001124059
553.5677160645	0.0000888521
555.4965234375	-0.0000296785
557.4253308105	0.0002509452
559.3541381836	0.0004978718
561.2829455566	0.0004236928
563.2117529297	0.0004031431
565.1405603027	0.0003454819
567.0693676758	0.0001258812
568.9981750488	0.0004131655
570.9269824219	0.0006722169
572.8557897949	0.0003070961
574.7845971680	0.0000899967
576.7134045410	0.0001125704
578.6422119141	0.0002551958
580.5710192871	0.0002810009
582.4998266602	0.0003521100
584.4286340332	0.0002298370
586.3574414063	0.0002046104
588.2862487793	0.0001993423
590.2150561523	-0.0000985001
592.1438635254	0.0002603561
594.0726708984	0.0002111298
596.0014782715	0.0002197677
597.9302856445	0.0003478705
599.8590930176	-0.0000090154
601.7879003906	0.0002361618
603.7167077637	0.0002024738
605.6455151367	0.0002927436
607.5743225098	0.0001980550
609.5031298828	0.0000980244
611.4319372559	0.0004830768
613.3607446289	0.0002144998
615.2895520020	0.0004373632
617.2183593750	0.0001783895
619.1471667480	-0.0001895482
621.0759741211	0.0002821403
623.0047814941	-0.0000759221
624.9335888672	-0.0000300059
626.8623962402	0.0003101040
628.7912036133	0.0003540242
630.7200109863	0.0005275912
632.6488183594	0.0004433316
634.5776257324	0.0006078393
636.5064331055	0.0007188153
638.4352404785	0.0006274823
640.3640478516	0.0006081632
642.2928552246	0.0004885797
644.2216625977	0.0006253005
646.1504699707	0.0007919609
648.0792773438	0.0005801026
650.0080847168	0.0006687995
651.9368920898	0.0009529975
653.8656994629	0.0008216487
655.7945068359	0.0007810430
657.7233142090	0.0010395003
659.6521215820	0.0010265126
661.5809289551	0.0006963736
663.5097363281	0.0010386771
665.4385437012	0.0012298605
667.3673510742	0.0007473683
669.2961584473	0.0008685905
671.2249658203	0.0010775989
673.1537731934	0.0011360882
675.0825805664	0.0011615861
677.0113879395	0.0015512740
678.9401953125	0.0017142764
680.8690026855	0.0012011222
682.7978100586	0.0015989216
684.7266174316	0.0014952238
686.6554248047	0.0010259683
688.5842321777	0.0011147123
690.5130395508	0.0011531487
692.4418469238	0.0017279317
694.3706542969	0.0015595944
696.2994616699	0.0014902689
698.2282690430	0.0020110896
700.1570764160	0.0020415278
702.0858837891	0.0022156965
704.0146911621	0.0019798751
705.9434985352	0.0017604972
707.8723059082	0.0017385468
709.8011132813	0.0012954613
711.7299206543	0.0009073751
713.6587280273	0.0006628897
715.5875354004	0.0003938113
717.5163427734	0.0002183647
719.4451501465	0.0001955916
721.3739575195	0.0003422116
723.3027648926	0.0003754855
725.2315722656	0.0001605397
727.1603796387	0.0003659919
729.0891870117	0.0004685038
731.0179943848	0.0003249649
732.9468017578	0.0003278947
734.8756091309	0.0002856874
736.8044165039	0.0003543950
738.7332238770	0.0003371062
740.6620312500	0.0002417968
742.5908386230	0.0000727030
744.5196459961	0.0000612108
746.4484533691	0.0003685953
748.3772607422	0.0003131426
750.3060681152	0.0001415623
752.2348754883	0.0003211790
754.1636828613	0.0002682013
756.0924902344	0.0003460464
758.0212976074	0.0002192151
759.9501049805	0.0002055681
761.8789123535	0.0004029860
763.8077197266	0.0001206947
765.7365270996	0.0004372609
767.6653344727	0.0004268388
769.5941418457	0.0002141895
771.5229492188	0.0003609004
773.4517565918	0.0003665581
775.3805639648	0.0005952650
777.3093713379	0.0003555732
779.2381787109	0.0002855873
781.1669860840	0.0004990402
783.0957934570	0.0002427959
785.0246008301	0.0003566873
786.9534082031	0.0005421370
788.8822155762	0.0003570008
790.8110229492	0.0002784142
792.7398303223	0.0002368985
794.6686376953	0.0004949775
796.5974450684	0.0006638376
798.5262524414	0.0004723516
800.4550598145	0.0006858981
802.3838671875	0.0004946023
804.3126745605	0.0001978049
806.2414819336	0.0003929573
808.1702893066	0.0003242422
810.0990966797	0.0003952785
812.0279040527	0.0005046886
813.9567114258	0.0005613747
815.8855187988	0.0005392063
817.8143261719	0.0003791644
819.7431335449	0.0002493732
821.6719409180	0.0001701041
823.6007482910	0.0004611501
825.5295556641	0.0003727513
827.4583630371	0.0001659520
829.3871704102	0.0005339410
831.3159777832	0.0005712598
833.2447851563	0.0003243231
835.1735925293	0.0004429079
837.1023999023	0.0006418616
839.0312072754	0.0006116650
840.9600146484	0.0005406921
842.8888220215	0.0005774472
844.8176293945	0.0006197662
846.7464367676	0.0004389029
848.6752441406	0.0003538866
850.6040515137	0.0004290176
852.5328588867	0.0005373704
854.4616662598	0.0006316703
856.3904736328	0.0004249984
858.3192810059	0.0005188016
860.2480883789	0.0005954379
862.1768957520	0.0004016859
864.1057031250	0.0005006067
866.0345104980	0.0004586483
867.9633178711	0.0002960369
869.8921252441	0.0003276760
871.8209326172	0.0005234513
873.7497399902	0.0004556803
875.6785473633	0.0002873962
877.6073547363	0.0002607171
879.5361621094	0.0002738490
881.4649694824	0.0004911066
883.3937768555	0.0005375414
885.3225842285	0.0004241425
887.2513916016	0.0002290991
889.1801989746	0.0003286806
891.1090063477	0.0004316651
893.0378137207	0.0003295571
894.9666210938	0.0004715597
896.8954284668	0.0002996770
898.8242358398	0.0003261616
900.7530432129	0.0003553612
902.6818505859	0.0002559469
904.6106579590	0.0004217071
906.5394653320	0.0004553794
908.4682727051	0.0005662069
910.3970800781	0.0003086037
912.3258874512	0.0003250168
914.2546948242	0.0007279442
916.1835021973	0.0007470045
918.1123095703	0.0006402185
920.0411169434	0.0005146764
921.9699243164	0.0006194560
923.8987316895	0.0003517846
925.8275390625	0.0003586017
927.7563464355	0.0006516360
929.6851538086	0.0005443099
931.6139611816	0.0008526942
933.5427685547	0.0008514260
935.4715759277	0.0008339108
937.4003833008	0.0009660335
939.3291906738	0.0008712726
941.2579980469	0.0009720549
943.1868054199	0.0009460382
945.1156127930	0.0010307719
947.0444201660	0.0010191373
948.9732275391	0.0010229601
950.9020349121	0.0009877204
952.8308422852	0.0009413267
954.7596496582	0.0009416337
956.6884570313	0.0007664224
958.6172644043	0.0011085172
960.5460717773	0.0008956895
962.4748791504	0.0006319766
964.4036865234	0.0009509845
966.3324938965	0.0009445170
968.2613012695	0.0010752834
970.1901086426	0.0009959377
972.1189160156	0.0010659155
974.0477233887	0.0010156117
975.9765307617	0.0009205933
977.9053381348	0.0012245220
979.8341455078	0.0012811625
981.7629528809	0.0014928358
983.6917602539	0.0012872010
985.6205676270	0.0013828146
987.5493750000	0.0018316304
989.4781823730	0.0018037003
991.4069897461	0.0022104951
993.3357971191	0.0023202198
995.2646044922	0.0024063131
997.1934118652	0.0028168638
999.1222192383	0.0028701206
1001.0510266113	0.0030357295
1002.9798339844	0.0032348761
1004.9086413574	0.0035031463
1006.8374487305	0.0038244883
1008.7662561035	0.0038447687
1010.6950634766	0.0039076712
1012.6238708496	0.0041927039
1014.5526782227	0.0045258859
1016.4814855957	0.0048690927
1018.4102929688	0.0048837345
1020.3391003418	0.0047973907
1022.2679077148	0.0050940951
1024.1967150879	0.0051602619
1026.1255224609	0.0052839424
1028.0543298340	0.0056466986
1029.9831372070	0.0057241982
1031.9119445801	0.0059415158
1033.8407519531	0.0060687661
1035.7695593262	0.0061827279
1037.6983666992	0.0062056240
1039.6271740723	0.0060705058
1041.5559814453	0.0063701863
1043.4847888184	0.0062616272
1045.4135961914	0.0062510185
1047.3424035645	0.0062380712
1049.2712109375	0.0057234289
1051.2000183105	0.0058418261
1053.1288256836	0.0057891095
1055.0576330566	0.0057064807
1056.9864404297	0.0054858420
1058.9152478027	0.0051622512
1060.8440551758	0.0053463615
1062.7728625488	0.0050250357
1064.7016699219	0.0050502894
1066.6304772949	0.0046820305
1068.5592846680	0.0042113825
1070.4880920410	0.0045066564
1072.4168994141	0.0040017315
1074.3457067871	0.0039358493
1076.2745141602	0.0038719603
1078.2033215332	0.0035665291
1080.1321289062	0.0036818450
1082.0609362793	0.0032593403
1083.9897436523	0.0033337804
1085.9185510254	0.0032431025
1087.8473583984	0.0028255144
1089.7761657715	0.0030593476
1091.7049731445	0.0028564245
1093.6337805176	0.0026010009
1095.5625878906	0.0025591911
1097.4913952637	0.0023718283
1099.4202026367	0.0024276895
1101.3490100098	0.0024386458
1103.2778173828	0.0024877051
1105.2066247559	0.0024658046
1107.1354321289	0.0022537583
1109.0642395019	0.0021846052
1110.9930468750	0.0020483374
1112.9218542480	0.0021954637
1114.8506616211	0.0022565480
1116.7794689941	0.0021890001
1118.7082763672	0.0023862505
1120.6370837402	0.0022639893
1122.5658911133	0.0024724230
1124.4946984863	0.0025636407
1126.4235058594	0.0023331386
1128.3523132324	0.0024126936
1130.2811206055	0.0022295192
1132.2099279785	0.0023660734
1134.1387353516	0.0024909736
1136.0675427246	0.0024755821
1137.9963500977	0.0026626326
1139.9251574707	0.0026291518
1141.8539648437	0.0029652079
1143.7827722168	0.0032970994
1145.7115795898	0.0032834616
1147.6403869629	0.0034124677
1149.5691943359	0.0036987131
1151.4980017090	0.0037576240
1153.4268090820	0.0038593214
1155.3556164551	0.0041122120
1157.2844238281	0.0040828222
1159.2132312012	0.0043561468
1161.1420385742	0.0044351248
1163.0708459473	0.0045049791
1164.9996533203	0.0049493872
1166.9284606934	0.0049843774
1168.8572680664	0.0052020168
1170.7860754394	0.0053265039
1172.7148828125	0.0054020705
1174.6436901855	0.0057341466
1176.5724975586	0.0059240712
1178.5013049316	0.0062021846
1180.4301123047	0.0061628744
1182.3589196777	0.0063631437
1184.2877270508	0.0069526853
1186.2165344238	0.0071028410
1188.1453417969	0.0073871855
1190.0741491699	0.0077859559
1192.0029565430	0.0079451837
1193.9317639160	0.0083478838
1195.8605712891	0.0089332722
1197.7893786621	0.0091514233
1199.7181860351	0.0092916768
1201.6469934082	0.0098814238
1203.5758007812	0.0104235616
1205.5046081543	0.0106791528
1207.4334155273	0.0108350571
1209.3622229004	0.0110727465
1211.2910302734	0.0117069408
1213.2198376465	0.0122117400
1215.1486450195	0.0124070821
1217.0774523926	0.0125758983
1219.0062597656	0.0126406513
1220.9350671387	0.0129509997
1222.8638745117	0.0131577170
1224.7926818848	0.0130568873
1226.7214892578	0.0132719046
1228.6502966308	0.0133631481
1230.5791040039	0.0132864378
1232.5079113769	0.0134410532
1234.4367187500	0.0134442635
1236.3655261230	0.0134631358
1238.2943334961	0.0134188347
1240.2231408691	0.0132530816
1242.1519482422	0.0133565385
1244.0807556152	0.0132701676
1246.0095629883	0.0130819604
1247.9383703613	0.0131468475
1249.8671777344	0.0131169651
1251.7959851074	0.0129095744
1253.7247924805	0.0126920789
1255.6535998535	0.0125576612
1257.5824072266	0.0124727730
1259.5112145996	0.0123354979
1261.4400219726	0.0121736005
1263.3688293457	0.0120631345
1265.2976367187	0.0118248258
1267.2264440918	0.0116706938
1269.1552514648	0.0114837214
1271.0840588379	0.0111432187
1273.0128662109	0.0112263933
1274.9416735840	0.0112057468
1276.8704809570	0.0108325426
1278.7992883301	0.0104846517
1280.7280957031	0.0103445910
1282.6569030762	0.0102348495
1284.5857104492	0.0098870322
1286.5145178223	0.0098080821
1288.4433251953	0.0096248817
1290.3721325683	0.0094173495
1292.3009399414	0.0094386516
1294.2297473144	0.0093184132
1296.1585546875	0.0092238365
1298.0873620605	0.0090506505
1300.0161694336	0.0092825014
1301.9449768066	0.0094503714
1303.8737841797	0.0091650626
1305.8025915527	0.0093827490
1307.7313989258	0.0096513759
1309.6602062988	0.0097288387
1311.5890136719	0.0100133549
1313.5178210449	0.0101550594
1315.4466284180	0.0102269072
1317.3754357910	0.0105007067
1319.3042431640	0.0106466450
1321.2330505371	0.0109176636
1323.1618579101	0.0114843128
1325.0906652832	0.0118603259
1327.0194726562	0.0121099148
1328.9482800293	0.0123437662
1330.8770874023	0.0126328636
1332.8058947754	0.0130049009
1334.7347021484	0.0132490797
1336.6635095215	0.0131935012
1338.5923168945	0.0130612049
1340.5211242676	0.0133520793
1342.4499316406	0.0139402710
1344.3787390137	0.0140997116
1346.3075463867	0.0138899665
1348.2363537597	0.0139064435
1350.1651611328	0.0138985813
1352.0939685058	0.0137985162
1354.0227758789	0.0136099588
1355.9515832519	0.0135096144
1357.8803906250	0.0135561675
1359.8091979980	0.0132561149
1361.7380053711	0.0127841942
1363.6668127441	0.0126659703
1365.5956201172	0.0130268410
1367.5244274902	0.0128249563
1369.4532348633	0.0127401631
1371.3820422363	0.0128654642
1373.3108496094	0.0122176819
1375.2396569824	0.0123394541
1377.1684643555	0.0125175435
1379.0972717285	0.0124710323
1381.0260791015	0.0126380865
1382.9548864746	0.0124256220
1384.8836938476	0.0124466587
1386.8125012207	0.0121370181
1388.7413085937	0.0121027883
1390.6701159668	0.0129432119
1392.5989233398	0.0129335178
1394.5277307129	0.0122099500
1396.4565380859	0.0126578100
1398.3853454590	0.0126864426
1400.3141528320	0.0125554325
1402.2429602051	0.0133679351
1404.1717675781	0.0126016540
1406.1005749512	0.0126911514
1408.0293823242	0.0131786400
1409.9581896972	0.0127259642
1411.8869970703	0.0128596388
1413.8158044433	0.0124744000
1415.7446118164	0.0128027573
1417.6734191894	0.0116740400
1419.6022265625	0.0108079473
1421.5310339355	0.0120920874
1423.4598413086	0.0116762966
1425.3886486816	0.0114459973
1427.3174560547	0.0114126466
1429.2462634277	0.0107283760
1431.1750708008	0.0102618355
1433.1038781738	0.0103916824
1435.0326855469	0.0097060194
1436.9614929199	0.0083592515
1438.8903002929	0.0094336122
1440.8191076660	0.0093339011
1442.7479150390	0.0085902521
1444.6767224121	0.0091265561
1446.6055297851	0.0085512465
1448.5343371582	0.0086526368
1450.4631445312	0.0088714361
1452.3919519043	0.0090650572
1454.3207592773	0.0092408611
1456.2495666504	0.0079984600
1458.1783740234	0.0085327365
1460.1071813965	0.0107660610
1462.0359887695	0.0112063624
1463.9647961426	0.0111859487
1465.8936035156	0.0117765004
1467.8224108886	0.0129100922
1469.7512182617	0.0137853390
1471.6800256347	0.0128223514
1473.6088330078	0.0134580974
1475.5376403808	0.0150949229
1477.4664477539	0.0160490125
1479.3952551269	0.0174568929
1481.3240625000	0.0175498929
1483.2528698730	0.0183982980
1485.1816772461	0.0192408171
1487.1104846191	0.0191352572
1489.0392919922	0.0192347318
1490.9680993652	0.0193786621
1492.8969067383	0.0216866173
1494.8257141113	0.0213348921
1496.7545214843	0.0198898464
1498.6833288574	0.0220860727
1500.6121362304	0.0225411039
1502.5409436035	0.0237715710
1504.4697509765	0.0225899108
1506.3985583496	0.0178557429
1508.3273657226	0.0210033134
1510.2561730957	0.0236054081
1512.1849804687	0.0230759420
1514.1137878418	0.0245329794
1516.0425952148	0.0225820802
1517.9714025879	0.0235465206
1519.9002099609	0.0228010640
1521.8290173340	0.0205064714
1523.7578247070	0.0239704382
1525.6866320801	0.0234084260
1527.6154394531	0.0232335553
1529.5442468261	0.0252542924
1531.4730541992	0.0245233215
1533.4018615722	0.0229194984
1535.3306689453	0.0240368359
1537.2594763183	0.0250065625
1539.1882836914	0.0192192141
1541.1170910644	0.0201092809
1543.0458984375	0.0231911987
1544.9747058105	0.0225864202
1546.9035131836	0.0255531184
1548.8323205566	0.0242179632
1550.7611279297	0.0247810744
1552.6899353027	0.0243780352
1554.6187426758	0.0227252990
1556.5475500488	0.0238014571
1558.4763574218	0.0181812532
1560.4051647949	0.0194460284
1562.3339721679	0.0254507437
1564.2627795410	0.0244147144
1566.1915869140	0.0248461310
1568.1203942871	0.0245515630
1570.0492016601	0.0224513188
1571.9780090332	0.0249980036
1573.9068164062	0.0250383019
1575.8356237793	0.0208876375
1577.7644311523	0.0230574496
1579.6932385254	0.0252747089
1581.6220458984	0.0244192928
1583.5508532715	0.0248850733
1585.4796606445	0.0246488638
1587.4084680175	0.0249021165
1589.3372753906	0.0244310182
1591.2660827636	0.0243761186
1593.1948901367	0.0242899545
1595.1236975097	0.0242129713
1597.0525048828	0.0247468799
1598.9813122558	0.0243032593
1600.9101196289	0.0243919566
1602.8389270019	0.0240791291
1604.7677343750	0.0244947299
1606.6965417480	0.0242279321
1608.6253491211	0.0240878854
1610.5541564941	0.0240395963
1612.4829638672	0.0241720453
1614.4117712402	0.0245099775
1616.3405786132	0.0207003765
1618.2693859863	0.0223181248
1620.1981933593	0.0253365897
1622.1270007324	0.0229063854
1624.0558081054	0.0232302919
1625.9846154785	0.0242914930
1627.9134228515	0.0243589338
1629.8422302246	0.0242537055
1631.7710375976	0.0256706029
1633.6998449707	0.0240539536
1635.6286523437	0.0209032558
1637.5574597168	0.0237850472
1639.4862670898	0.0256279372
1641.4150744629	0.0254238527
1643.3438818359	0.0260735042
1645.2726892090	0.0241046175
1647.2014965820	0.0220980421
1649.1303039550	0.0265072510
1651.0591113281	0.0251562968
1652.9879187011	0.0180351697
1654.9167260742	0.0232750252
1656.8455334472	0.0275348239
1658.7743408203	0.0267552566
1660.7031481933	0.0275856704
1662.6319555664	0.0256365295
1664.5607629394	0.0270344410
1666.4895703125	0.0283724032
1668.4183776855	0.0257703736
1670.3471850586	0.0254134368
1672.2759924316	0.0278432034
1674.2047998047	0.0262047127
1676.1336071777	0.0254152790
1678.0624145507	0.0283798557
1679.9912219238	0.0276308656
1681.9200292968	0.0275468268
1683.8488366699	0.0231779702
1685.7776440429	0.0231757574
1687.7064514160	0.0298753083
1689.6352587890	0.0265349410
1691.5640661621	0.0287006311
1693.4928735351	0.0287817232
1695.4216809082	0.0225648209
1697.3504882812	0.0267453548
1699.2792956543	0.0240084101
1701.2081030273	0.0224028751
1703.1369104004	0.0283700190
1705.0657177734	0.0263354704
1706.9945251464	0.0265450589
1708.9233325195	0.0281393342
1710.8521398925	0.0271512549
1712.7809472656	0.0275713466
1714.7097546386	0.0258603133
1716.6385620117	0.0236798264
1718.5673693847	0.0235421844
1720.4961767578	0.0268831309
1722.4249841308	0.0272546187
1724.3537915039	0.0256932639
1726.2825988769	0.0275917277
1728.2114062500	0.0257437825
1730.1402136230	0.0260706358
1732.0690209961	0.0251302291
1733.9978283691	0.0202734657
1735.9266357421	0.0242822953
1737.8554431152	0.0260033645
1739.7842504882	0.0237914957
1741.7130578613	0.0253353026
1743.6418652343	0.0255038440
1745.5706726074	0.0258026235
1747.4994799804	0.0258471593
1749.4282873535	0.0248603784
1751.3570947265	0.0240873229
1753.2859020996	0.0260397680
1755.2147094726	0.0269081034
1757.1435168457	0.0250835009
1759.0723242187	0.0269299485
1761.0011315918	0.0255902894
1762.9299389648	0.0250689369
1764.8587463379	0.0277519096
1766.7875537109	0.0254310966
1768.7163610839	0.0256842300
1770.6451684570	0.0255769193
1772.5739758300	0.0234715994
1774.5027832031	0.0254890937
1776.4315905761	0.0266131684
1778.3603979492	0.0262822136
1780.2892053222	0.0259875581
1782.2180126953	0.0260126851
1784.1468200683	0.0260372963
1786.0756274414	0.0256491825
1788.0044348144	0.0265551265
1789.9332421875	0.0259955693
1791.8620495605	0.0239645690
1793.7908569336	0.0248818807
1795.7196643066	0.0262201969
1797.6484716796	0.0258054323
1799.5772790527	0.0257614683
1801.5060864257	0.0253492631
1803.4348937988	0.0258120485
1805.3637011718	0.0263207592
1807.2925085449	0.0259637311
1809.2213159179	0.0259690341
1811.1501232910	0.0255515445
1813.0789306640	0.0262486786
1815.0077380371	0.0261082482
1816.9365454101	0.0257281661
1818.8653527832	0.0259548426
1820.7941601562	0.0258472227
1822.7229675293	0.0261785574
1824.6517749023	0.0249733478
1826.5805822753	0.0256063864
1828.5093896484	0.0253480691
1830.4381970214	0.0242102277
1832.3670043945	0.0259190872
1834.2958117675	0.0255824812
1836.2246191406	0.0256075542
1838.1534265136	0.0255310796
1840.0822338867	0.0256023686
1842.0110412597	0.0255118832
1843.9398486328	0.0233695470
1845.8686560058	0.0245765857
1847.7974633789	0.0253475308
1849.7262707519	0.0251413323
1851.6550781250	0.0256090350
1853.5838854980	0.0250635073
1855.5126928710	0.0254915021
1857.4415002441	0.0251807403
1859.3703076171	0.0249944739
1861.2991149902	0.0251494125
1863.2279223632	0.0249232575
1865.1567297363	0.0251907706
1867.0855371093	0.0245111585
1869.0143444824	0.0236681607
1870.9431518554	0.0242897198
1872.8719592285	0.0250985250
1874.8007666015	0.0247028563
1876.7295739746	0.0246456750
1878.6583813476	0.0247279257
1880.5871887207	0.0247186497
1882.5159960937	0.0248362143
1884.4448034667	0.0243889373
1886.3736108398	0.0246209539
1888.3024182128	0.0242676120
1890.2312255859	0.0238853376
1892.1600329589	0.0245008916
1894.0888403320	0.0240942314
1896.0176477050	0.0239749756
1897.9464550781	0.0242814440
1899.8752624511	0.0241250433
1901.8040698242	0.0242243204
1903.7328771972	0.0241656229
1905.6616845703	0.0240703933
1907.5904919433	0.0238849372
1909.5192993164	0.0237298515
1911.4481066894	0.0237630941
1913.3769140625	0.0237987265
1915.3057214355	0.0239104442
1917.2345288085	0.0231679659
1919.1633361816	0.0232010782
1921.0921435546	0.0238689352
1923.0209509277	0.0232210830
1924.9497583007	0.0234076194
1926.8785656738	0.0237371102
1928.8073730468	0.0235751197
1930.7361804199	0.0236269962
1932.6649877929	0.0233272426
1934.5937951660	0.0234392807
1936.5226025390	0.0233482830
1938.4514099121	0.0235014874
1940.3802172851	0.0233750939
1942.3090246582	0.0227566324
1944.2378320312	0.0232487209
1946.1666394042	0.0233433452
1948.0954467773	0.0231844299
1950.0242541503	0.0232946947
1951.9530615234	0.0231805593
1953.8818688964	0.0232942663
1955.8106762695	0.0232730582
1957.7394836425	0.0232342742
1959.6682910156	0.0230884291
1961.5970983886	0.0229654312
1963.5259057617	0.0231857616
1965.4547131347	0.0230659321
1967.3835205078	0.0227827393
1969.3123278808	0.0229208358
1971.2411352539	0.0230729394
1973.1699426269	0.0230053328
1975.0987499999	0.0228990801
1977.0275573730	0.0228155330
1978.9563647460	0.0228012875
1980.8851721191	0.0226472244
1982.8139794921	0.0226069354
1984.7427868652	0.0227209702
1986.6715942382	0.0226244777
1988.6004016113	0.0226110518
1990.5292089843	0.0224210490
1992.4580163574	0.0221915767
1994.3868237304	0.0224814042
1996.3156311035	0.0224543475
1998.2444384765	0.0222343877
2000.1732458496	0.0223551914
2002.1020532226	0.0222566873
2004.0308605956	0.0222665183
2005.9596679687	0.0222993419
2007.8884753417	0.0221341904
2009.8172827148	0.0221202467
2011.7460900878	0.0220615789
2013.6748974609	0.0220521744
2015.6037048339	0.0219338350
2017.5325122070	0.0217654072
2019.4613195800	0.0217079613
2021.3901269531	0.0216424242
2023.3189343261	0.0217362493
2025.2477416992	0.0216629542
2027.1765490722	0.0215357058
2029.1053564453	0.0215718746
2031.0341638183	0.0215260871
2032.9629711914	0.0214528777
2034.8917785644	0.0213186108
2036.8205859374	0.0212001670
2038.7493933105	0.0212744698
2040.6782006835	0.0213000104
2042.6070080566	0.0211306475
2044.5358154296	0.0210550949
2046.4646228027	0.0210443959
2048.3934301757	0.0209686868
2050.3222375488	0.0210319385
2052.2510449218	0.0210520737
2054.1798522949	0.0209389850
2056.1086596679	0.0209519509
2058.0374670410	0.0207378846
2059.9662744140	0.0205978528
2061.8950817871	0.0208035111
2063.8238891601	0.0206453577
2065.7526965331	0.0205983054
2067.6815039062	0.0206807218
2069.6103112792	0.0205118470
2071.5391186523	0.0204977244
2073.4679260253	0.0205529500
2075.3967333984	0.0205589216
2077.3255407714	0.0203747340
2079.2543481445	0.0202616565
2081.1831555175	0.0202709213
2083.1119628906	0.0203435123
2085.0407702636	0.0203794464
2086.9695776367	0.0201603100
2088.8983850097	0.0202065948
2090.8271923828	0.0201585926
2092.7559997558	0.0200115852
2094.6848071288	0.0200863853
2096.6136145019	0.0199896954
2098.5424218749	0.0199104436
2100.4712292480	0.0198610984
2102.4000366210	0.0197791904
2104.3288439941	0.0198693462
2106.2576513671	0.0200021695
2108.1864587402	0.0198698044
2110.1152661132	0.0197650008
2112.0440734863	0.0197092965
2113.9728808593	0.0196084231
2115.9016882324	0.0196445175
2117.8304956054	0.0195514783
2119.7593029785	0.0195645243
2121.6881103515	0.0195879694
2123.6169177245	0.0195348226
2125.5457250976	0.0195612796
2127.4745324706	0.0195215382
2129.4033398437	0.0195464455
2131.3321472167	0.0194948055
2133.2609545898	0.0194347985
2135.1897619628	0.0193026271
2137.1185693359	0.0191923268
2139.0473767089	0.0193424430
2140.9761840820	0.0193303768
2142.9049914550	0.0192240253
2144.8337988281	0.0193043537
2146.7626062011	0.0192884598
2148.6914135742	0.0192199312
2150.6202209472	0.0192194860
2152.5490283203	0.0190038420
2154.4778356933	0.0189972799
2156.4066430663	0.0190754086
2158.3354504394	0.0189705007
2160.2642578124	0.0190296937
2162.1930651855	0.0189769492
2164.1218725585	0.0189687144
2166.0506799316	0.0189203396
2167.9794873046	0.0188428704
2169.9082946777	0.0189157911
2171.8371020507	0.0188558344
2173.7659094238	0.0188189298
2175.6947167968	0.0187733807
2177.6235241699	0.0187759511
2179.5523315429	0.0188498329
2181.4811389160	0.0188069306
2183.4099462890	0.0186542720
2185.3387536620	0.0186722130
2187.2675610351	0.0187134054
2189.1963684081	0.0185782071
2191.1251757812	0.0186251700
2193.0539831542	0.0185931325
2194.9827905273	0.0185040534
2196.9115979003	0.0184413195
2198.8404052734	0.0183493383
2200.7692126464	0.0183926467
2202.6980200195	0.0184702314
2204.6268273925	0.0185542945
2206.5556347656	0.0185194053
2208.4844421386	0.0184969269
2210.4132495117	0.0184074398
2212.3420568847	0.0183175951
2214.2708642577	0.0183554962
2216.1996716308	0.0182994083
2218.1284790038	0.0182782151
2220.0572863769	0.0182498544
2221.9860937499	0.0181531608
2223.9149011230	0.0181174167
2225.8437084960	0.0181595385
2227.7725158691	0.0180186406
2229.7013232421	0.0180058554
2231.6301306152	0.0181097090
2233.5589379882	0.0180657450
2235.4877453613	0.0181156397
2237.4165527343	0.0179391988
2239.3453601074	0.0179464296
2241.2741674804	0.0179038495
2243.2029748534	0.0177479442
2245.1317822265	0.0179511923
2247.0605895995	0.0177578330
2248.9893969726	0.0176516287
2250.9182043456	0.0176923759
2252.8470117187	0.0175776072
2254.7758190917	0.0176522210
2256.7046264648	0.0176361445
2258.6334338378	0.0176378898
2260.5622412109	0.0176346321
2262.4910485839	0.0174512379
2264.4198559570	0.0173883624
2266.3486633300	0.0175346825
2268.2774707031	0.0174521543
2270.2062780761	0.0173881575
2272.1350854491	0.0174543224
2274.0638928222	0.0173961632
2275.9927001952	0.0174431391
2277.9215075683	0.0173491966
2279.8503149413	0.0172787048
2281.7791223144	0.0172275510
2283.7079296874	0.0172273852
2285.6367370605	0.0172820911
2287.5655444335	0.0170415640
2289.4943518066	0.0170984138
2291.4231591796	0.0171131082
2293.3519665527	0.0169407725
2295.2807739257	0.0169494860
2297.2095812988	0.0168284867
2299.1383886718	0.0168274529
2301.0671960449	0.0168798305
2302.9960034179	0.0167994779
2304.9248107909	0.0166080035
2306.8536181640	0.0165224168
2308.7824255370	0.0165243112
2310.7112329101	0.0162609294
2312.6400402831	0.0160714425
2314.5688476562	0.0159346126
2316.4976550292	0.0157999080
2318.4264624023	0.0155940875
2320.3552697753	0.0152186751
2322.2840771484	0.0150996922
2324.2128845214	0.0149174538
2326.1416918945	0.0147261098
2328.0704992675	0.0146355079
2329.9993066406	0.0143418564
2331.9281140136	0.0142900441
2333.8569213866	0.0142828906
2335.7857287597	0.0140947662
2337.7145361327	0.0141073307
2339.6433435058	0.0141011178
2341.5721508788	0.0140489228
2343.5009582519	0.0143173551
2345.4297656249	0.0146144722
2347.3585729980	0.0151762916
2349.2873803710	0.0157924816
2351.2161877441	0.0151939793
2353.1449951171	0.0143487304
2355.0738024902	0.0138966031
2357.0026098632	0.0134290010
2358.9314172363	0.0132341627
2360.8602246093	0.0129846409
2362.7890319823	0.0129866265
2364.7178393554	0.0131207174
2366.6466467284	0.0132744703
2368.5754541015	0.0135286245
2370.5042614745	0.0136791002
2372.4330688476	0.0141850282
2374.3618762206	0.0146761350
2376.2906835937	0.0149923321
2378.2194909667	0.0151866600
2380.1482983398	0.0154620036
2382.0771057128	0.0156529825
2384.0059130859	0.0155839827
2385.9347204589	0.0158428214
2387.8635278320	0.0158357732
2389.7923352050	0.0157545600
2391.7211425780	0.0157671385
2393.6499499511	0.0157263502
2395.5787573241	0.0157878175
2397.5075646972	0.0156467408
2399.4363720702	0.0156884622
2401.3651794433	0.0156264007
2403.2939868163	0.0155722154
2405.2227941894	0.0156077566
2407.1516015624	0.0154943094
2409.0804089355	0.0155539997
2411.0092163085	0.0155154373
2412.9380236816	0.0154466946
2414.8668310546	0.0154098962
2416.7956384277	0.0154390838
2418.7244458007	0.0154417669
2420.6532531738	0.0154121723
2422.5820605468	0.0153476624
2424.5108679198	0.0152639374
2426.4396752929	0.0153876571
2428.3684826659	0.0153338518
2430.2972900390	0.0153480750
2432.2260974120	0.0152006596
2434.1549047851	0.0150570106
2436.0837121581	0.0153162405
2438.0125195312	0.0152323348
2439.9413269042	0.0151375290
2441.8701342773	0.0151356794
2443.7989416503	0.0152284838
2445.7277490234	0.0152343987
2447.6565563964	0.0149317188
2449.5853637695	0.0149860121
2451.5141711425	0.0150426701
2453.4429785155	0.0148916878
2455.3717858886	0.0148218740
2457.3005932616	0.0148634259
2459.2294006347	0.0149070192
2461.1582080077	0.0148342177
2463.0870153808	0.0148294857
2465.0158227538	0.0148007311
2466.9446301269	0.0147995297
2468.8734374999	0.0148247145
2470.8022448730	0.0146960877
2472.7310522460	0.0146594085
2474.6598596191	0.0146857649
2476.5886669921	0.0145930275
2478.5174743652	0.0146443862
2480.4462817382	0.0147200562
2482.3750891112	0.0146098183
2484.3038964843	0.0145960525
2486.2327038573	0.0145817706
2488.1615112304	0.0144498535
2490.0903186034	0.0144422594
2492.0191259765	0.0145235471
2493.9479333495	0.0144659095
2495.8767407226	0.0144033711
2497.8055480956	0.0143907461
2499.7343554687	0.0142422831
2501.6631628417	0.0142559716
2503.5919702148	0.0144211892
2505.5207775878	0.0144018605
2507.4495849609	0.0143034309
2509.3783923339	0.0142196994
2511.3071997069	0.0141885206
2513.2360070800	0.0141771669
2515.1648144530	0.0141854007
2517.0936218261	0.0141955782
2519.0224291991	0.0140927434
2520.9512365722	0.0140845701
2522.8800439452	0.0141233876
2524.8088513183	0.0140640531
2526.7376586913	0.0140327169
2528.6664660644	0.0139522636
2530.5952734374	0.0139428610
2532.5240808105	0.0139573328
2534.4528881835	0.0139210364
2536.3816955566	0.0139045212
2538.3105029296	0.0138361668
2540.2393103027	0.0139077455
2542.1681176757	0.0138673158
2544.0969250487	0.0137639465
2546.0257324218	0.0138014471
2547.9545397948	0.0137205748
2549.8833471679	0.0137544917
2551.8121545409	0.0138096884
2553.7409619140	0.0137368022
2555.6697692870	0.0135878278
2557.5985766601	0.0135817220
2559.5273840331	0.0137619190
2561.4561914062	0.0136241838
2563.3849987792	0.0135474745
2565.3138061523	0.0136454869
2567.2426135253	0.0135934828
2569.1714208984	0.0135127185
2571.1002282714	0.0134141846
2573.0290356444	0.0134644415
2574.9578430175	0.0134204756
2576.8866503905	0.0133823780
2578.8154577636	0.0135200061
2580.7442651366	0.0134069547
2582.6730725097	0.0133810900
2584.6018798827	0.0133815967
2586.5306872558	0.0133016147
2588.4594946288	0.0133938137
2590.3883020019	0.0133138383
2592.3171093749	0.0132378740
2594.2459167480	0.0131951347
2596.1747241210	0.0131837949
2598.1035314941	0.0131950174
2600.0323388671	0.0130639635
2601.9611462401	0.0131288394
2603.8899536132	0.0130909868
2605.8187609862	0.0130772721
2607.7475683593	0.0131450715
2609.6763757323	0.0129816346
2611.6051831054	0.0129830502
2613.5339904784	0.0130648799
2615.4627978515	0.0130512379
2617.3916052245	0.0129316282
2619.3204125976	0.0129390061
2621.2492199706	0.0129233822
2623.1780273437	0.0128750009
2625.1068347167	0.0129249543
2627.0356420898	0.0127317514
2628.9644494628	0.0128792319
2630.8932568358	0.0128667606
2632.8220642089	0.0126053095
2634.7508715819	0.0127399722
2636.6796789550	0.0126244929
2638.6084863280	0.0125652216
2640.5372937011	0.0125816511
2642.4661010741	0.0125946673
2644.3949084472	0.0126766106
2646.3237158202	0.0125524439
2648.2525231933	0.0124985473
2650.1813305663	0.0124016237
2652.1101379394	0.0124604348
2654.0389453124	0.0125463111
2655.9677526855	0.0124232443
2657.8965600585	0.0124472529
2659.8253674315	0.0123983342
2661.7541748046	0.0123808123
2663.6829821776	0.0124364682
2665.6117895507	0.0122693013
2667.5405969237	0.0121657122
2669.4694042968	0.0122331120
2671.3982116698	0.0123102218
2673.3270190429	0.0122997984
2675.2558264159	0.0122774001
2677.1846337890	0.0123304036
2679.1134411620	0.0122091528
2681.0422485351	0.0122064808
2682.9710559081	0.0123215681
2684.8998632812	0.0121948421
2686.8286706542	0.0121374233
2688.7574780273	0.0120590674
2690.6862854003	0.0120543763
2692.6150927733	0.0121027110
2694.5439001464	0.0119709792
2696.4727075194	0.0120146777
2698.4015148925	0.0120217875
2700.3303222655	0.0118851177
2702.2591296386	0.0119622853
2704.1879370116	0.0119939642
2706.1167443847	0.0118115749
2708.0455517577	0.0118733803
2709.9743591308	0.0119500887
2711.9031665038	0.0118184518
2713.8319738769	0.0117872274
2715.7607812499	0.0117589179
2717.6895886230	0.0117370691
2719.6183959960	0.0116403168
2721.5472033690	0.0115941949
2723.4760107421	0.0115931556
2725.4048181151	0.0116703743
2727.3336254882	0.0117586805
2729.2624328612	0.0114553012
2731.1912402343	0.0114507638
2733.1200476073	0.0115712583
2735.0488549804	0.0114513971
2736.9776623534	0.0114627928
2738.9064697265	0.0114817005
2740.8352770995	0.0114943916
2742.7640844726	0.0113782734
2744.6928918456	0.0114192739
2746.6216992187	0.0114450548
2748.5505065917	0.0113668153
2750.4793139647	0.0113642458
2752.4081213378	0.0111935474
2754.3369287108	0.0112553788
2756.2657360839	0.0112362187
2758.1945434569	0.0111935418
2760.1233508300	0.0112985335
2762.0521582030	0.0111120827
2763.9809655761	0.0111694559
2765.9097729491	0.0112259090
2767.8385803222	0.0110994028
2769.7673876952	0.0111654848
2771.6961950683	0.0110876039
2773.6250024413	0.0110295247
2775.5538098144	0.0110275643
2777.4826171874	0.0109312013
2779.4114245604	0.0109232226
2781.3402319335	0.0108651593
2783.2690393065	0.0108390264
2785.1978466796	0.0108889602
2787.1266540526	0.0108919535
2789.0554614257	0.0108224582
2790.9842687987	0.0107931066
2792.9130761718	0.0108461631
2794.8418835448	0.0106603578
2796.7706909179	0.0106427148
2798.6994982909	0.0107675474
2800.6283056640	0.0107125342
2802.5571130370	0.0108012063
2804.4859204101	0.0106249806
2806.4147277831	0.0104528610
2808.3435351562	0.0106154326
2810.2723425292	0.0106411064
2812.2011499022	0.0106283948
2814.1299572753	0.0105492100
2816.0587646483	0.0104186349
2817.9875720214	0.0104343062
2819.9163793944	0.0104212761
2821.8451867675	0.0103851296
2823.7739941405	0.0104635302
2825.7028015136	0.0103934752
2827.6316088866	0.0102451835
2829.5604162597	0.0102149127
2831.4892236327	0.0101896403
2833.4180310058	0.0102108251
2835.3468383788	0.0101599749
2837.2756457519	0.0100490237
2839.2044531249	0.0100149885
2841.1332604979	0.0100805284
2843.0620678710	0.0100176111
2844.9908752440	0.0099066338
2846.9196826171	0.0099673904
2848.8484899901	0.0098169744
2850.7772973632	0.0097491294
2852.7061047362	0.0098878602
2854.6349121093	0.0098300241
2856.5637194823	0.0097461343
2858.4925268554	0.0098267309
2860.4213342284	0.0098266453
2862.3501416015	0.0096859373
2864.2789489745	0.0097738206
2866.2077563476	0.0097779818
2868.1365637206	0.0097073000
2870.0653710936	0.0097020902
2871.9941784667	0.0096111763
2873.9229858397	0.0096469931
2875.8517932128	0.0095348787
2877.7806005858	0.0094766337
2879.7094079589	0.0095283203
2881.6382153319	0.0094843153
2883.5670227050	0.0095221661
2885.4958300780	0.0094629303
2887.4246374511	0.0094017349
2889.3534448241	0.0093708262
2891.2822521972	0.0093945749
2893.2110595702	0.0093774600
2895.1398669433	0.0091984263
2897.0686743163	0.0091567459
2898.9974816893	0.0092389304
2900.9262890624	0.0092463782
2902.8550964354	0.0091111548
2904.7839038085	0.0091078896
2906.7127111815	0.0091291331
2908.6415185546	0.0089870021
2910.5703259276	0.0089986688
2912.4991333007	0.0089814868
2914.4279406737	0.0089284237
2916.3567480468	0.0089230789
2918.2855554198	0.0088059949
2920.2143627929	0.0087643350
2922.1431701659	0.0087538343
2924.0719775390	0.0087707601
2926.0007849120	0.0087822508
2927.9295922851	0.0087000402
2929.8583996581	0.0087608229
2931.7872070311	0.0088096969
2933.7160144042	0.0087888893
2935.6448217772	0.0087947268
2937.5736291503	0.0087376274
2939.5024365233	0.0087498333
2941.4312438964	0.0087847346
2943.3600512694	0.0086914394
2945.2888586425	0.0086068744
2947.2176660155	0.0086973533
2949.1464733886	0.0087441616
2951.0752807616	0.0086579965
2953.0040881347	0.0085555352
2954.9328955077	0.0085128900
2956.8617028808	0.0085742716
2958.7905102538	0.0084835272
2960.7193176268	0.0084555689
2962.6481249999	0.0084939711
2964.5769323729	0.0083651785
2966.5057397460	0.0083553679
2968.4345471190	0.0084011145
2970.3633544921	0.0084185470
2972.2921618651	0.0084014945
2974.2209692382	0.0084307790
2976.1497766112	0.0084160538
2978.0785839843	0.0082826912
2980.0073913573	0.0083656926
2981.9361987304	0.0084439218
2983.8650061034	0.0084083453
2985.7938134765	0.0083665159
2987.7226208495	0.0082566533
2989.6514282225	0.0082906112
2991.5802355956	0.0083096679
2993.5090429686	0.0081944894
2995.4378503417	0.0082279723
2997.3666577147	0.0081675854
2999.2954650878	0.0081018265
3001.2242724608	0.0082603768
3003.1530798339	0.0081961695
3005.0818872069	0.0080767795
3007.0106945800	0.0080913715
3008.9395019530	0.0081015546
3010.8683093261	0.0080051702
3012.7971166991	0.0079095606
3014.7259240722	0.0080341874
3016.6547314452	0.0079866629
3018.5835388182	0.0079026781
3020.5123461913	0.0079372358
3022.4411535643	0.0079439152
3024.3699609374	0.0078958608
3026.2987683104	0.0078015737
3028.2275756835	0.0078592869
3030.1563830565	0.0077777235
3032.0851904296	0.0076940181
3034.0139978026	0.0077364445
3035.9428051757	0.0076905536
3037.8716125487	0.0076531414
3039.8004199218	0.0076603340
3041.7292272948	0.0076084803
3043.6580346679	0.0075559961
3045.5868420409	0.0076746326
3047.5156494139	0.0075376052
3049.4444567870	0.0074798064
3051.3732641600	0.0075994702
3053.3020715331	0.0075461622
3055.2308789061	0.0075680017
3057.1596862792	0.0074194670
3059.0884936522	0.0074989535
3061.0173010253	0.0075321961
3062.9461083983	0.0073236013
3064.8749157714	0.0073967488
3066.8037231444	0.0073371958
3068.7325305175	0.0073404890
3070.6613378905	0.0073628556
3072.5901452636	0.0072380789
3074.5189526366	0.0072628018
3076.4477600097	0.0072742044
3078.3765673827	0.0072021158
3080.3053747557	0.0072512524
3082.2341821288	0.0072342549
3084.1629895018	0.0071126642
3086.0917968749	0.0071874512
3088.0206042479	0.0071354969
3089.9494116210	0.0071085757
3091.8782189940	0.0071173375
3093.8070263671	0.0070310431
3095.7358337401	0.0070690913
3097.6646411132	0.0070563285
3099.5934484862	0.0071121976
3101.5222558593	0.0070236269
3103.4510632323	0.0069429632
3105.3798706054	0.0069772801
3107.3086779784	0.0068741702
3109.2374853514	0.0068704402
3111.1662927245	0.0069365585
3113.0951000975	0.0069978917
3115.0239074706	0.0068712360
3116.9527148436	0.0067952345
3118.8815222167	0.0068110549
3120.8103295897	0.0067294538
3122.7391369628	0.0067036226
3124.6679443358	0.0066510858
3126.5967517089	0.0066748681
3128.5255590819	0.0066685500
3130.4543664550	0.0066448026
3132.3831738280	0.0066919303
3134.3119812011	0.0067407833
3136.2407885741	0.0067114076
3138.1695959471	0.0066213212
3140.0984033202	0.0066120233
3142.0272106932	0.0065290406
3143.9560180663	0.0065174345
3145.8848254393	0.0066057127
3147.8136328124	0.0065933764
3149.7424401854	0.0064037712
3151.6712475585	0.0063461792
3153.6000549315	0.0064900219
3155.5288623046	0.0065044640
3157.4576696776	0.0064889584
3159.3864770507	0.0063606473
3161.3152844237	0.0063855196
3163.2440917968	0.0064243199
3165.1728991698	0.0063195918
3167.1017065428	0.0063173836
3169.0305139159	0.0062553133
3170.9593212889	0.0063619828
3172.8881286620	0.0063388599
3174.8169360350	0.0062415665
3176.7457434081	0.0062764660
3178.6745507811	0.0062878458
3180.6033581542	0.0063427640
3182.5321655272	0.0062973881
3184.4609729003	0.0062941127
3186.3897802733	0.0062027927
3188.3185876464	0.0062187985
3190.2473950194	0.0062129619
3192.1762023925	0.0061504408
3194.1050097655	0.0062817773
3196.0338171386	0.0061406470
3197.9626245116	0.0061938167
3199.8914318846	0.0062695714
3201.8202392577	0.0061820196
3203.7490466307	0.0062390249
3205.6778540038	0.0061362735
3207.6066613768	0.0061384067
3209.5354687499	0.0061634369
3211.4642761229	0.0061690183
3213.3930834960	0.0061778091
3215.3218908690	0.0060812635
3217.2506982421	0.0060970308
3219.1795056151	0.0061744377
3221.1083129882	0.0061761439
3223.0371203612	0.0061412556
3224.9659277343	0.0061785216
3226.8947351073	0.0061258804
3228.8235424803	0.0060897227
3230.7523498534	0.0061946800
3232.6811572264	0.0062077763
3234.6099645995	0.0060587437
3236.5387719725	0.0060512479
3238.4675793456	0.0061815809
3240.3963867186	0.0061140079
3242.3251940917	0.0061637275
3244.2540014647	0.0061890441
3246.1828088378	0.0061680218
3248.1116162108	0.0062292293
3250.0404235839	0.0061852429
3251.9692309569	0.0062643094
3253.8980383300	0.0061909370
3255.8268457030	0.0062051425
3257.7556530760	0.0063008619
3259.6844604491	0.0062091025
3261.6132678221	0.0062109036
3263.5420751952	0.0062136799
3265.4708825682	0.0063336538
3267.3996899413	0.0062963935
3269.3284973143	0.0062698270
3271.2573046874	0.0062759765
3273.1861120604	0.0061846897
3275.1149194335	0.0062778937
3277.0437268065	0.0061283293
3278.9725341796	0.0062125027
3280.9013415526	0.0063318340
3282.8301489257	0.0062240548
3284.7589562987	0.0063111149
3286.6877636717	0.0061957240
3288.6165710448	0.0062755728
3290.5453784178	0.0063019888
3292.4741857909	0.0061853714
3294.4029931639	0.0062938984
3296.3318005370	0.0062460317
3298.2606079100	0.0063197920
3300.1894152831	0.0063701654
3302.1182226561	0.0063749519
3304.0470300292	0.0064340089
3305.9758374022	0.0062646205
3307.9046447753	0.0062441994
3309.8334521483	0.0063219285
3311.7622595214	0.0063040340
3313.6910668944	0.0063483631
3315.6198742675	0.0063509084
3317.5486816405	0.0063674254
3319.4774890135	0.0063895015
3321.4062963866	0.0063896189
3323.3351037596	0.0064716707
3325.2639111327	0.0063446718
3327.1927185057	0.0062526613
3329.1215258788	0.0064451196
3331.0503332518	0.0064871078
3332.9791406249	0.0064327312
3334.9079479979	0.0063739168
3336.8367553710	0.0064238291
3338.7655627440	0.0064943582
3340.6943701171	0.0064346353
3342.6231774901	0.0064738551
3344.5519848632	0.0063976883
3346.4807922362	0.0063778572
3348.4095996092	0.0064723054
3350.3384069823	0.0064485725
3352.2672143553	0.0064912606
3354.1960217284	0.0064543192
3356.1248291014	0.0064945687
3358.0536364745	0.0066061057
3359.9824438475	0.0065715108
3361.9112512206	0.0066551249
3363.8400585936	0.0066279722
3365.7688659667	0.0065357480
3367.6976733397	0.0066481913
3369.6264807128	0.0066553294
3371.5552880858	0.0066249548
3373.4840954589	0.0066077495
3375.4129028319	0.0065747788
3377.3417102049	0.0066776751
3379.2705175780	0.0067404020
3381.1993249510	0.0066777151
3383.1281323241	0.0066362121
3385.0569396971	0.0067195063
3386.9857470702	0.0067552985
3388.9145544432	0.0067622708
3390.8433618163	0.0068321731
3392.7721691893	0.0067781862
3394.7009765624	0.0066811023
3396.6297839354	0.0067287027
3398.5585913085	0.0068941200
3400.4873986815	0.0068354588
3402.4162060546	0.0068161869
3404.3450134276	0.0069439732
3406.2738208006	0.0068444228
3408.2026281737	0.0068468018
3410.1314355467	0.0068872627
3412.0602429198	0.0069348020
3413.9890502928	0.0069236727
3415.9178576659	0.0069068521
3417.8466650389	0.0070509049
3419.7754724120	0.0069737202
3421.7042797850	0.0070120082
3423.6330871581	0.0070692492
3425.5618945311	0.0070939963
3427.4907019042	0.0071357056
3429.4195092772	0.0069744084
3431.3483166503	0.0070762355
3433.2771240233	0.0071234656
3435.2059313963	0.0070230062
3437.1347387694	0.0070352117
3439.0635461424	0.0070761484
3440.9923535155	0.0071009528
3442.9211608885	0.0070563201
3444.8499682616	0.0071444884
3446.7787756346	0.0071440386
3448.7075830077	0.0071254950
3450.6363903807	0.0072277603
3452.5651977538	0.0072189560
3454.4940051268	0.0071904729
3456.4228124999	0.0072218245
3458.3516198729	0.0072576604
3460.2804272460	0.0071821725
3462.2092346190	0.0072144931
3464.1380419921	0.0073567936
3466.0668493651	0.0072770193
3467.9956567381	0.0072330879
3469.9244641112	0.0073194643
3471.8532714842	0.0072654830
3473.7820788573	0.0072912662
3475.7108862303	0.0073353439
3477.6396936034	0.0072851805
3479.5685009764	0.0073447730
3481.4973083495	0.0073007690
3483.4261157225	0.0073181354
3485.3549230956	0.0073929317
3487.2837304686	0.0073431875
3489.2125378417	0.0073878057
3491.1413452147	0.0074788183
3493.0701525878	0.0074702208
3494.9989599608	0.0073866248
3496.9277673338	0.0073948754
3498.8565747069	0.0072934809
3500.7853820799	0.0073223622
3502.7141894530	0.0074054562
3504.6429968260	0.0073175821
3506.5718041991	0.0074875886
3508.5006115721	0.0073908605
3510.4294189452	0.0073365802
3512.3582263182	0.0075164475
3514.2870336913	0.0074500805
3516.2158410643	0.0074251639
3518.1446484374	0.0073937736
3520.0734558104	0.0074881385
3522.0022631835	0.0074284943
3523.9310705565	0.0073681567
3525.8598779295	0.0075101526
3527.7886853026	0.0074522234
3529.7174926756	0.0075007156
3531.6463000487	0.0075090621
3533.5751074217	0.0075291162
3535.5039147948	0.0075611137
3537.4327221678	0.0074968534
3539.3615295409	0.0075345533
3541.2903369139	0.0074523077
3543.2191442870	0.0074729319
3545.1479516600	0.0074000508
3547.0767590331	0.0072481274
3549.0055664061	0.0074441475
3550.9343737792	0.0075088609
3552.8631811522	0.0074686818
3554.7919885252	0.0074884370
3556.7207958983	0.0075481529
3558.6496032713	0.0076221535
3560.5784106444	0.0074027404
3562.5072180174	0.0073964065
3564.4360253905	0.0074778618
3566.3648327635	0.0070827128
3568.2936401366	0.0069535989
3570.2224475096	0.0072860448
3572.1512548827	0.0074030124
3574.0800622557	0.0073483638
3576.0088696288	0.0074083293
3577.9376770018	0.0073088366
3579.8664843749	0.0072709620
3581.7952917479	0.0073962528
3583.7240991210	0.0073943203
3585.6529064940	0.0072052008
3587.5817138670	0.0067658527
3589.5105212401	0.0069533102
3591.4393286131	0.0073846010
3593.3681359862	0.0072016595
3595.2969433592	0.0071665812
3597.2257507323	0.0072940723
3599.1545581053	0.0072178873
3601.0833654784	0.0070423800
3603.0121728514	0.0071280058
3604.9409802245	0.0073264046
3606.8697875975	0.0071546244
3608.7985949706	0.0067139785
3610.7274023436	0.0068157422
3612.6562097167	0.0070882803
3614.5850170897	0.0069488292
3616.5138244627	0.0072120284
3618.4426318358	0.0067651616
3620.3714392088	0.0066078249
3622.3002465819	0.0071582883
3624.2290539549	0.0070016491
3626.1578613280	0.0072970269
3628.0866687010	0.0064041791
3630.0154760741	0.0059968121
3631.9442834471	0.0071250582
3633.8730908202	0.0069550471
3635.8018981932	0.0070603085
3637.7307055663	0.0072668279
3639.6595129393	0.0071774735
3641.5883203124	0.0070891804
3643.5171276854	0.0069824243
3645.4459350584	0.0070416396
3647.3747424315	0.0064781122
3649.3035498045	0.0060900524
3651.2323571776	0.0062572565
3653.1611645506	0.0070887078
3655.0899719237	0.0068380688
3657.0187792967	0.0063746572
3658.9475866698	0.0071213190
3660.8763940428	0.0068968362
3662.8052014159	0.0070356117
3664.7340087889	0.0070202164
3666.6628161620	0.0068691345
3668.5916235350	0.0066457707
3670.5204309081	0.0058325287
3672.4492382811	0.0066953953
3674.3780456541	0.0062396573
3676.3068530272	0.0055738017
3678.2356604002	0.0066091167
3680.1644677733	0.0065494413
3682.0932751463	0.0065776007
3684.0220825194	0.0067037167
3685.9508898924	0.0065742610
3687.8796972655	0.0059481813
3689.8085046385	0.0056491978
3691.7373120116	0.0063154027
3693.6661193846	0.0063486081
3695.5949267577	0.0065038251
3697.5237341307	0.0064293710
3699.4525415038	0.0064374842
3701.3813488768	0.0063053677
3703.3101562499	0.0059799468
3705.2389636229	0.0065276385
3707.1677709959	0.0062523680
3709.0965783690	0.0060737799
3711.0253857420	0.0057760105
3712.9541931151	0.0055626691
3714.8830004881	0.0062404466
3716.8118078612	0.0060958853
3718.7406152342	0.0062079197
3720.6694226073	0.0060330322
3722.5982299803	0.0059235347
3724.5270373534	0.0060182316
3726.4558447264	0.0055445544
3728.3846520995	0.0060078115
3730.3134594725	0.0059526591
3732.2422668456	0.0055169417
3734.1710742186	0.0053901849
3736.0998815916	0.0052601420
3738.0286889647	0.0054581165
3739.9574963377	0.0058378140
3741.8863037108	0.0060709077
3743.8151110838	0.0048849257
3745.7439184569	0.0046917042
3747.6727258299	0.0056546675
3749.6015332030	0.0050501288
3751.5303405760	0.0047551282
3753.4591479491	0.0053145848
3755.3879553221	0.0056612915
3757.3167626952	0.0057295552
3759.2455700682	0.0054792799
3761.1743774413	0.0055926340
3763.1031848143	0.0057614380
3765.0319921873	0.0053866869
3766.9607995604	0.0055295760
3768.8896069334	0.0055539384
3770.8184143065	0.0052441517
3772.7472216795	0.0056791361
3774.6760290526	0.0057064425
3776.6048364256	0.0056809313
3778.5336437987	0.0055399979
3780.4624511717	0.0053023472
3782.3912585448	0.0056120907
3784.3200659178	0.0054388768
3786.2488732909	0.0054435544
3788.1776806639	0.0055926670
3790.1064880370	0.0055293264
3792.0352954100	0.0054710405
3793.9641027830	0.0054843733
3795.8929101561	0.0052222945
3797.8217175291	0.0052052340
3799.7505249022	0.0053601647
3801.6793322752	0.0044378471
3803.6081396483	0.0050813882
3805.5369470213	0.0053968569
3807.4657543944	0.0046355929
3809.3945617674	0.0053867064
3811.3233691405	0.0053018630
3813.2521765135	0.0054356139
3815.1809838866	0.0049714111
3817.1097912596	0.0045452630
3819.0385986327	0.0053017251
3820.9674060057	0.0044927415
3822.8962133787	0.0047603254
3824.8250207518	0.0053400472
3826.7538281248	0.0049499748
3828.6826354979	0.0050953450
3830.6114428709	0.0049968958
3832.5402502440	0.0049404167
3834.4690576170	0.0049058860
3836.3978649901	0.0046766484
3838.3266723631	0.0043354286
3840.2554797362	0.0046689431
3842.1842871092	0.0048889387
3844.1130944823	0.0047318661
3846.0419018553	0.0050732559
3847.9707092284	0.0049099596
3849.8995166014	0.0049892031
3851.8283239745	0.0045750681
3853.7571313475	0.0035939012
3855.6859387205	0.0042809499
3857.6147460936	0.0050420184
3859.5435534666	0.0048083225
3861.4723608397	0.0048521711
3863.4011682127	0.0046756295
3865.3299755858	0.0044832067
3867.2587829588	0.0049133729
3869.1875903319	0.0044936072
3871.1163977049	0.0043491428
3873.0452050780	0.0048907027
3874.9740124510	0.0045371354
3876.9028198241	0.0047824555
3878.8316271971	0.0048599769
3880.7604345702	0.0043529524
3882.6892419432	0.0047323848
3884.6180493162	0.0045114742
3886.5468566893	0.0042239614
3888.4756640623	0.0047571878
3890.4044714354	0.0045564929
3892.3332788084	0.0043385774
3894.2620861815	0.0046929689
3896.1908935545	0.0046761781
3898.1197009276	0.0045397268
3900.0485083006	0.0043386184
3901.9773156737	0.0042661419
3903.9061230467	0.0043896986
3905.8349304198	0.0043872572
3907.7637377928	0.0045869574
3909.6925451659	0.0046314336
3911.6213525389	0.0046027987
3913.5501599119	0.0046489192
3915.4789672850	0.0044722483
3917.4077746580	0.0043871459
3919.3365820311	0.0044515515
3921.2653894041	0.0045805010
3923.1941967772	0.0044972599
3925.1230041502	0.0043517542
3927.0518115233	0.0044568218
3928.9806188963	0.0045313705
3930.9094262694	0.0043891482
3932.8382336424	0.0042704865
3934.7670410155	0.0044583809
3936.6958483885	0.0044962838
3938.6246557616	0.0044242716
3940.5534631346	0.0044288323
3942.4822705076	0.0042975289
3944.4110778807	0.0043395809
3946.3398852537	0.0043779644
3948.2686926268	0.0042866035
3950.1974999998	0.0042505674
3952.1263073729	0.0043007918
3954.0551147459	0.0044142688
3955.9839221190	0.0043314467
3957.9127294920	0.0042608283
3959.8415368651	0.0043039699
3961.7703442381	0.0042718640
3963.6991516112	0.0043177316
3965.6279589842	0.0043349396
3967.5567663573	0.0042342767
3969.4855737303	0.0042274822
3971.4143811034	0.0042550517
3973.3431884764	0.0042360695
3975.2719958494	0.0042281514
3977.2008032225	0.0042011747
3979.1296105955	0.0041917562
3981.0584179686	0.0041918196
3982.9872253416	0.0041914387
3984.9160327147	0.0042109205
3986.8448400877	0.0041953833
3988.7736474608	0.0041443044
3990.7024548338	0.0041168160
3992.6312622069	0.0041442877
3994.5600695799	0.0041474868
3996.4888769530	0.0041518728
3998.4176843260	0.0040908325
4000.3464916991	0.0040152706
4002.2752990721	0.0040769735
4004.2041064451	0.0040822164
4006.1329138182	0.0040591848
4008.0617211912	0.0039953496
4009.9905285643	0.0040181074
4011.9193359373	0.0040718475
4013.8481433104	0.0039263777
4015.7769506834	0.0039879368
4017.7057580565	0.0040511759
4019.6345654295	0.0040288828
4021.5633728026	0.0040585771
4023.4921801756	0.0039998656
4025.4209875487	0.0039884560
4027.3497949217	0.0039307317
4029.2786022948	0.0040120748
4031.2074096678	0.0039913007
4033.1362170408	0.0038742125
4035.0650244139	0.0039939536
4036.9938317869	0.0039021566
4038.9226391600	0.0038664462
4040.8514465330	0.0039416598
4042.7802539061	0.0038736751
4044.7090612791	0.0038471012
4046.6378686522	0.0038068991
4048.5666760252	0.0037897192
4050.4954833983	0.0037857406
4052.4242907713	0.0038089787
4054.3530981444	0.0038312436
4056.2819055174	0.0037683607
4058.2107128905	0.0037862645
4060.1395202635	0.0038779364
4062.0683276365	0.0038018757
4063.9971350096	0.0037390357
4065.9259423826	0.0037945355
4067.8547497557	0.0037411475
4069.7835571287	0.0037031439
4071.7123645018	0.0036917035
4073.6411718748	0.0037183412
4075.5699792479	0.0036964426
4077.4987866209	0.0036398983
4079.4275939940	0.0037212851
4081.3564013670	0.0036681425
4083.2852087401	0.0036107465
4085.2140161131	0.0036245049
4087.1428234862	0.0036586158
4089.0716308592	0.0036982759
4091.0004382323	0.0035778312
4092.9292456053	0.0035892157
4094.8580529783	0.0036400473
4096.7868603514	0.0035181793
4098.7156677244	0.0035101785
4100.6444750975	0.0036024889
4102.5732824705	0.0035449180
4104.5020898436	0.0035090256
4106.4308972166	0.0035890380
4108.3597045897	0.0035241756
4110.2885119627	0.0034545613
4112.2173193358	0.0034705726
4114.1461267088	0.0034439834
4116.0749340819	0.0034481573
4118.0037414549	0.0034393896
4119.9325488280	0.0034107796
4121.8613562010	0.0034858733
4123.7901635740	0.0035243197
4125.7189709471	0.0034685975
4127.6477783201	0.0034251865
4129.5765856932	0.0034120311
4131.5053930662	0.0034774817
4133.4342004393	0.0034737668
4135.3630078123	0.0034027086
4137.2918151854	0.0033804225
4139.2206225584	0.0034288981
4141.1494299315	0.0034449003
4143.0782373045	0.0033879937
4145.0070446776	0.0034415796
4146.9358520506	0.0033807443
4148.8646594237	0.0033602857
4150.7934667967	0.0033791121
4152.7222741697	0.0032721162
4154.6510815428	0.0033474467
4156.5798889158	0.0032972000
4158.5086962889	0.0032668209
4160.4375036619	0.0033668100
4162.3663110350	0.0033588167
4164.2951184080	0.0033343369
4166.2239257811	0.0032231919
4168.1527331541	0.0032953732
4170.0815405272	0.0033672075
4172.0103479002	0.0032555405
4173.9391552733	0.0032803738
4175.8679626463	0.0033056145
4177.7967700194	0.0032477228
4179.7255773924	0.0031677836
4181.6543847654	0.0031539774
4183.5831921385	0.0032271366
4185.5119995115	0.0031695608
4187.4408068846	0.0031290175
4189.3696142576	0.0032435108
4191.2984216307	0.0032190066
4193.2272290037	0.0031592564
4195.1560363768	0.0031791474
4197.0848437498	0.0031169467
4199.0136511229	0.0030475259
4200.9424584959	0.0030733270
4202.8712658690	0.0031086830
4204.8000732420	0.0031013275
4206.7288806151	0.0031315349
4208.6576879881	0.0030763033
4210.5864953611	0.0030801061
4212.5153027342	0.0030967330
4214.4441101072	0.0030196693
4216.3729174803	0.0030890943
4218.3017248533	0.0031160233
4220.2305322264	0.0031395894
4222.1593395994	0.0030348813
4224.0881469725	0.0029746913
4226.0169543455	0.0031053801
4227.9457617186	0.0030231541
4229.8745690916	0.0029833985
4231.8033764647	0.0029525300
4233.7321838377	0.0029955930
4235.6609912108	0.0030255113
4237.5897985838	0.0029405148
4239.5186059569	0.0029965118
4241.4474133299	0.0029318416
4243.3762207029	0.0029262525
4245.3050280760	0.0029521924
4247.2338354490	0.0028709229
4249.1626428221	0.0028775642
4251.0914501951	0.0029403693
4253.0202575682	0.0029304810
4254.9490649412	0.0029153721
4256.8778723143	0.0029506865
4258.8066796873	0.0028828834
4260.7354870604	0.0029377849
4262.6642944334	0.0028978777
4264.5931018065	0.0028352225
4266.5219091795	0.0029261715
4268.4507165526	0.0028503989
4270.3795239256	0.0028560001
4272.3083312986	0.0028768121
4274.2371386717	0.0028692277
4276.1659460447	0.0028409748
4278.0947534178	0.0028234324
4280.0235607908	0.0028128303
4281.9523681639	0.0027655682
4283.8811755369	0.0028196950
4285.8099829100	0.0027442039
4287.7387902830	0.0027839160
4289.6675976561	0.0027857826
4291.5964050291	0.0027087727
4293.5252124022	0.0027995631
4295.4540197752	0.0027416588
4297.3828271483	0.0027510903
4299.3116345213	0.0027747413
4301.2404418943	0.0027386080
4303.1692492674	0.0027270173
4305.0980566404	0.0026918915
4307.0268640135	0.0027021724
4308.9556713865	0.0027427068
4310.8844787596	0.0027309824
4312.8132861326	0.0026253439
4314.7420935057	0.0026831920
4316.6709008787	0.0027245926
4318.5997082518	0.0026738490
4320.5285156248	0.0027017072
4322.4573229979	0.0027712719
4324.3861303709	0.0027663661
4326.3149377440	0.0026595853
4328.2437451170	0.0027071913
4330.1725524900	0.0026346170
4332.1013598631	0.0026037027
4334.0301672361	0.0027172195
4335.9589746092	0.0026224395
4337.8877819822	0.0025962493
4339.8165893553	0.0026031432
4341.7453967283	0.0025365418
4343.6742041014	0.0025061602
4345.6030114744	0.0025292460
4347.5318188475	0.0025198206
4349.4606262205	0.0025862334
4351.3894335936	0.0025781614
4353.3182409666	0.0024873575
4355.2470483397	0.0026746695
4357.1758557127	0.0026395004
4359.1046630858	0.0025491626
4361.0334704588	0.0025759821
4362.9622778318	0.0024896264
4364.8910852049	0.0024930777
4366.8198925779	0.0024768352
4368.7486999510	0.0026228228
4370.6775073240	0.0026030862
4372.6063146971	0.0024830331
4374.5351220701	0.0025733507
4376.4639294432	0.0024657836
4378.3927368162	0.0023692376
4380.3215441893	0.0023997100
4382.2503515623	0.0024905973
4384.1791589354	0.0024612476
4386.1079663084	0.0023783962
4388.0367736815	0.0024149544
4389.9655810545	0.0024232320
4391.8943884275	0.0024515071
4393.8231958006	0.0024240669
4395.7520031736	0.0024416547
4397.6808105467	0.0023568659
4399.6096179197	0.0023724081
4401.5384252928	0.0025186136
4403.4672326658	0.0023475287
4405.3960400389	0.0023411145
4407.3248474119	0.0023247437
4409.2536547850	0.0022963043
4411.1824621580	0.0024442105
4413.1112695311	0.0023487029
4415.0400769041	0.0023258999
4416.9688842772	0.0023498205
4418.8976916502	0.0023241621
4420.8264990232	0.0023027950
4422.7553063963	0.0022642855
4424.6841137693	0.0023174591
4426.6129211424	0.0022904780
4428.5417285154	0.0022856509
4430.4705358885	0.0023112348
4432.3993432615	0.0023050988
4434.3281506346	0.0022835159
4436.2569580076	0.0022375891
4438.1857653807	0.0022613136
4440.1145727537	0.0022582803
4442.0433801268	0.0022504188
4443.9721874998	0.0022700196
4445.9009948729	0.0022867147
4447.8298022459	0.0022371854
4449.7586096189	0.0021763933
4451.6874169920	0.0022251676
4453.6162243650	0.0022121971
4455.5450317381	0.0021912341
4457.4738391111	0.0022179428
4459.4026464842	0.0021888399
4461.3314538572	0.0021730415
4463.2602612303	0.0021579633
4465.1890686033	0.0021374060
4467.1178759764	0.0021844213
4469.0466833494	0.0022072506
4470.9754907225	0.0021413898
4472.9042980955	0.0020963997
4474.8331054686	0.0021054395
4476.7619128416	0.0021625464
4478.6907202147	0.0021863224
4480.6195275877	0.0021554008
4482.5483349607	0.0021992244
4484.4771423338	0.0022244062
4486.4059497068	0.0021254192
4488.3347570799	0.0021010851
4490.2635644529	0.0021325706
4492.1923718260	0.0020865831
4494.1211791990	0.0021997474
4496.0499865721	0.0021963487
4497.9787939451	0.0020013519
4499.9076013182	0.0020568771
4501.8364086912	0.0020801835
4503.7652160643	0.0021107262
4505.6940234373	0.0021320917
4507.6228308104	0.0019920303
4509.5516381834	0.0020951382
4511.4804455564	0.0021088766
4513.4092529295	0.0020025545
4515.3380603025	0.0020775599
4517.2668676756	0.0020093247
4519.1956750486	0.0020243549
4521.1244824217	0.0021185172
4523.0532897947	0.0020185383
4524.9820971678	0.0020257954
4526.9109045408	0.0020184377
4528.8397119139	0.0019306079
4530.7685192869	0.0019451170
4532.6973266600	0.0020054798
4534.6261340330	0.0020508075
4536.5549414061	0.0020073422
4538.4837487791	0.0020197318
4540.4125561521	0.0019848256
4542.3413635252	0.0019232731
4544.2701708982	0.0019760262
4546.1989782713	0.0019750986
4548.1277856443	0.0019639970
4550.0565930174	0.0018910507
4551.9854003904	0.0019099959
4553.9142077635	0.0019484668
4555.8430151365	0.0019542279
4557.7718225096	0.0020289505
4559.7006298826	0.0018785930
4561.6294372557	0.0018604617
4563.5582446287	0.0019326168
4565.4870520018	0.0018612631
4567.4158593748	0.0019216194
4569.3446667478	0.0019384818
4571.2734741209	0.0018545059
4573.2022814939	0.0018650750
4575.1310888670	0.0019738288
4577.0598962400	0.0019482390
4578.9887036131	0.0018953097
4580.9175109861	0.0019179709
4582.8463183592	0.0018879515
4584.7751257322	0.0018561840
4586.7039331053	0.0018570153
4588.6327404783	0.0018960896
4590.5615478514	0.0018699458
4592.4903552244	0.0019013819
4594.4191625975	0.0018768572
4596.3479699705	0.0018109925
4598.2767773435	0.0018536556
4600.2055847166	0.0017766306
4602.1343920896	0.0018306281
4604.0631994627	0.0018426817
4605.9920068357	0.0017572083
4607.9208142088	0.0018461698
4609.8496215818	0.0017951236
4611.7784289549	0.0017555224
4613.7072363279	0.0018396812
4615.6360437010	0.0018017105
4617.5648510740	0.0017551923
4619.4936584471	0.0018058210
4621.4224658201	0.0017854798
4623.3512731932	0.0017322961
4625.2800805662	0.0017566432
4627.2088879393	0.0017911149
4629.1376953123	0.0017620935
4631.0665026853	0.0017070601
4632.9953100584	0.0017434609
4634.9241174314	0.0016933666
4636.8529248045	0.0016730041
4638.7817321775	0.0016994121
4640.7105395506	0.0016054444
4642.6393469236	0.0017006265
4644.5681542967	0.0017834665
4646.4969616697	0.0017039559
4648.4257690428	0.0016954995
4650.3545764158	0.0016967008
4652.2833837889	0.0016509669
4654.2121911619	0.0016263704
4656.1409985350	0.0016853935
4658.0698059080	0.0017463663
4659.9986132810	0.0017179172
4661.9274206541	0.0016574787
4663.8562280271	0.0016942625
4665.7850354002	0.0017040942
4667.7138427732	0.0016430370
4669.6426501463	0.0016279325
4671.5714575193	0.0016042860
4673.5002648924	0.0016272687
4675.4290722654	0.0016649717
4677.3578796385	0.0016394220
4679.2866870115	0.0016294760
4681.2154943846	0.0016947982
4683.1443017576	0.0016614262
4685.0731091307	0.0015885294
4687.0019165037	0.0016640092
4688.9307238767	0.0016055687
4690.8595312498	0.0015466653
4692.7883386228	0.0016231628
4694.7171459959	0.0016490055
4696.6459533689	0.0016447369
4698.5747607420	0.0015316198
4700.5035681150	0.0015259038
4702.4323754881	0.0016191623
4704.3611828611	0.0015720144
4706.2899902342	0.0015685241
4708.2187976072	0.0015630726
4710.1476049803	0.0015734377
4712.0764123533	0.0016280538
4714.0052197264	0.0015655498
4715.9340270994	0.0016152184
4717.8628344724	0.0016395019
4719.7916418455	0.0015103137
4721.7204492185	0.0015574341
4723.6492565916	0.0015541139
4725.5780639646	0.0014907725
4727.5068713377	0.0015542058
4729.4356787107	0.0015447815
4731.3644860838	0.0015246246
4733.2932934568	0.0015154872
4735.2221008299	0.0015162491
4737.1509082029	0.0015097226
4739.0797155760	0.0014397015
4741.0085229490	0.0014879545
4742.9373303221	0.0015111895
4744.8661376951	0.0014224438
4746.7949450682	0.0014421568
4748.7237524412	0.0014945336
4750.6525598142	0.0014777663
4752.5813671873	0.0014413017
4754.5101745603	0.0014602080
4756.4389819334	0.0014967505
4758.3677893064	0.0014961846
4760.2965966795	0.0014528278
4762.2254040525	0.0014023071
4764.1542114256	0.0014379065
4766.0830187986	0.0014212802
4768.0118261717	0.0014391106
4769.9406335447	0.0014046847
4771.8694409178	0.0013236832
4773.7982482908	0.0015210062
4775.7270556639	0.0014946143
4777.6558630369	0.0014021666
4779.5846704099	0.0014797638
4781.5134777830	0.0013893985
4783.4422851560	0.0014007986
4785.3710925291	0.0014050188
4787.2998999021	0.0014332009
4789.2287072752	0.0014570837
4791.1575146482	0.0013758135
4793.0863220213	0.0014032654
4795.0151293943	0.0014201526
4796.9439367674	0.0014359450
4798.8727441404	0.0013374598
4800.8015515135	0.0013121434
4802.7303588865	0.0014000514
4804.6591662596	0.0013502548
4806.5879736326	0.0013679920
4808.5167810056	0.0014054738
4810.4455883787	0.0014053427
4812.3743957517	0.0013624985
4814.3032031248	0.0013740775
4816.2320104978	0.0013827002
4818.1608178709	0.0013002767
4820.0896252439	0.0013671310
4822.0184326170	0.0013422081
4823.9472399900	0.0012900985
4825.8760473631	0.0013854099
4827.8048547361	0.0013334025
4829.7336621092	0.0013013181
4831.6624694822	0.0013273775
4833.5912768553	0.0012867081
4835.5200842283	0.0013336852
4837.4488916013	0.0013656800
4839.3776989744	0.0012898629
4841.3065063474	0.0011954671
4843.2353137205	0.0012558381
4845.1641210935	0.0013342015
4847.0929284666	0.0012739513
4849.0217358396	0.0012956006
4850.9505432127	0.0012328483
4852.8793505857	0.0012517010
4854.8081579588	0.0013152851
4856.7369653318	0.0011804256
4858.6657727049	0.0012427606
4860.5945800779	0.0012989538
4862.5233874510	0.0013011545
4864.4521948240	0.0012747847
4866.3810021971	0.0012208823
4868.3098095701	0.0012806007
4870.2386169431	0.0012398708
4872.1674243162	0.0012804661
4874.0962316892	0.0012714637
4876.0250390623	0.0011954515
4877.9538464353	0.0012145585
4879.8826538084	0.0012233688
4881.8114611814	0.0012254666
4883.7402685545	0.0012062482
4885.6690759275	0.0012512030
4887.5978833006	0.0011975770
4889.5266906736	0.0012006671
4891.4554980467	0.0012046346
4893.3843054197	0.0011519536
4895.3131127928	0.0012493797
4897.2419201658	0.0011697386
4899.1707275388	0.0012130779
4901.0995349119	0.0012924969
4903.0283422849	0.0011099314
4904.9571496580	0.0011705986
4906.8859570310	0.0012551690
4908.8147644041	0.0011353740
4910.7435717771	0.0011649036
4912.6723791502	0.0012181208
4914.6011865232	0.0011833366
4916.5299938963	0.0011434181
4918.4588012693	0.0011064357
4920.3876086424	0.0011891305
4922.3164160154	0.0011496171
4924.2452233885	0.0011272772
4926.1740307615	0.0011842609
4928.1028381345	0.0011295814
4930.0316455076	0.0011465687
4931.9604528806	0.0010348588
4933.8892602537	0.0010974264
4935.8180676267	0.0011707898
4937.7468749998	0.0010848404
4939.6756823728	0.0012072619
4941.6044897459	0.0010778534
4943.5332971189	0.0010441536
4945.4621044920	0.0012025523
4947.3909118650	0.0011371896
4949.3197192381	0.0010568042
4951.2485266111	0.0010463470
4953.1773339842	0.0011113936
4955.1061413572	0.0011065775
4957.0349487302	0.0011114846
4958.9637561033	0.0010993655
4960.8925634763	0.0010354968
4962.8213708494	0.0010695003
4964.7501782224	0.0011136425
4966.6789855955	0.0011090853
4968.6077929685	0.0010847826
4970.5366003416	0.0011159126
4972.4654077146	0.0011492810
4974.3942150877	0.0011427822
4976.3230224607	0.0010803685
4978.2518298338	0.0010608824
4980.1806372068	0.0010768250
4982.1094445799	0.0010578426
4984.0382519529	0.0010620286
4985.9670593259	0.0010514115
4987.8958666990	0.0010814581
4989.8246740720	0.0010269827
4991.7534814451	0.0010406239
4993.6822888181	0.0010952454
4995.6110961912	0.0009970253
4997.5399035642	0.0010316636
4999.4687109373	0.0010237328
5001.3975183103	0.0009981876
5003.3263256834	0.0010391811
5005.2551330564	0.0009809125
5007.1839404295	0.0009859328
5009.1127478025	0.0010308799
5011.0415551756	0.0010035262
5012.9703625486	0.0009763933
5014.8991699217	0.0009875440
5016.8279772947	0.0009468880
5018.7567846677	0.0010032569
5020.6855920408	0.0010656219
5022.6143994138	0.0009508014
5024.5432067869	0.0009820224
5026.4720141599	0.0010277336
5028.4008215330	0.0009295852
5030.3296289060	0.0009772932
5032.2584362791	0.0010558658
5034.1872436521	0.0009864753
5036.1160510252	0.0008971622
5038.0448583982	0.0009257880
5039.9736657713	0.0010441075
5041.9024731443	0.0010022707
5043.8312805174	0.0009488581
5045.7600878904	0.0010255587
5047.6888952634	0.0009972932
5049.6177026365	0.0009998075
5051.5465100095	0.0009749141
5053.4753173826	0.0009124100
5055.4041247556	0.0009613119
5057.3329321287	0.0009171015
5059.2617395017	0.0008757274
5061.1905468748	0.0009260756
5063.1193542478	0.0009180266
5065.0481616209	0.0009288227
5066.9769689939	0.0009931846
5068.9057763670	0.0009248770
5070.8345837400	0.0009203888
5072.7633911131	0.0009674438
5074.6921984861	0.0008839781
5076.6210058591	0.0009338964
5078.5498132322	0.0009240748
5080.4786206052	0.0008934982
5082.4074279783	0.0009267239
5084.3362353513	0.0008773825
5086.2650427244	0.0009246084
5088.1938500974	0.0009243123
5090.1226574705	0.0008804423
5092.0514648435	0.0008562820
5093.9802722166	0.0009073872
5095.9090795896	0.0009515065
5097.8378869627	0.0008314930
5099.7666943357	0.0008420087
5101.6955017088	0.0008851215
5103.6243090818	0.0008541625
5105.5531164548	0.0008869882
5107.4819238279	0.0009109924
5109.4107312009	0.0009208863
5111.3395385740	0.0009467467
5113.2683459470	0.0008834699
5115.1971533201	0.0008069862
5117.1259606931	0.0008776443
5119.0547680662	0.0008759795
5120.9835754392	0.0008438075
5122.9123828123	0.0008668005
5124.8411901853	0.0008254674
5126.7699975584	0.0008054113
5128.6988049314	0.0007846234
5130.6276123045	0.0008112977
5132.5564196775	0.0008660566
5134.4852270506	0.0008384387
5136.4140344236	0.0008194436
5138.3428417966	0.0008139958
5140.2716491697	0.0007959028
5142.2004565427	0.0007894128
5144.1292639158	0.0007716845
5146.0580712888	0.0008512122
5147.9868786619	0.0008920149
5149.9156860349	0.0007479312
5151.8444934080	0.0007774655
5153.7733007810	0.0008407830
5155.7021081541	0.0008001617
5157.6309155271	0.0008343135
5159.5597229002	0.0008116888
5161.4885302732	0.0008067453
5163.4173376463	0.0007725238
5165.3461450193	0.0008055773
5167.2749523923	0.0008887759
5169.2037597654	0.0007701355
5171.1325671384	0.0007416578
5173.0613745115	0.0007871358
5174.9901818845	0.0007880693
5176.9189892576	0.0008151585
5178.8477966306	0.0007893801
5180.7766040037	0.0007808576
5182.7054113767	0.0008208166
5184.6342187498	0.0008255105
5186.5630261228	0.0007793461
5188.4918334959	0.0008214181
5190.4206408689	0.0008769457
5192.3494482420	0.0008031061
5194.2782556150	0.0007803078
5196.2070629880	0.0008086030
5198.1358703611	0.0007588920
5200.0646777341	0.0007329991
5201.9934851072	0.0007749751
5203.9222924802	0.0007675949
5205.8510998533	0.0007092835
5207.7799072263	0.0006829476
5209.7087145994	0.0007419896
5211.6375219724	0.0007666894
5213.5663293455	0.0007112090
5215.4951367185	0.0007857690
5217.4239440916	0.0008001525
5219.3527514646	0.0006922653
5221.2815588377	0.0007290023
5223.2103662107	0.0007737943
5225.1391735837	0.0007932424
5227.0679809568	0.0007847596
5228.9967883298	0.0006985884
5230.9255957029	0.0007115466
5232.8544030759	0.0007294271
5234.7832104490	0.0006761993
5236.7120178220	0.0007025317
5238.6408251951	0.0007407980
5240.5696325681	0.0007396194
5242.4984399412	0.0007508504
5244.4272473142	0.0007336235
5246.3560546873	0.0007516129
5248.2848620603	0.0007390738
5250.2136694334	0.0006164137
5252.1424768064	0.0006165467
5254.0712841795	0.0006929224
5256.0000915525	0.0006891246
5257.9288989255	0.0006756866
5259.8577062986	0.0007169470
5261.7865136716	0.0007591406
5263.7153210447	0.0006650547
5265.6441284177	0.0006444262
5267.5729357908	0.0007107237
5269.5017431638	0.0006825570
5271.4305505369	0.0007225741
5273.3593579099	0.0007249830
5275.2881652830	0.0006961296
5277.2169726560	0.0006928249
5279.1457800291	0.0006450472
5281.0745874021	0.0006994514
5283.0033947752	0.0006894353
5284.9322021482	0.0006606756
5286.8610095212	0.0007007266
5288.7898168943	0.0006792925
5290.7186242673	0.0007092354
5292.6474316404	0.0006625779
5294.5762390134	0.0006392028
5296.5050463865	0.0006828295
5298.4338537595	0.0006612923
5300.3626611326	0.0007088808
5302.2914685056	0.0006591259
5304.2202758787	0.0006283955
5306.1490832517	0.0006711110
5308.0778906248	0.0006566712
5310.0066979978	0.0006928473
5311.9355053709	0.0006464797
5313.8643127439	0.0006503339
5315.7931201169	0.0006828991
5317.7219274900	0.0006188048
5319.6507348630	0.0006478783
5321.5795422361	0.0006423678
5323.5083496091	0.0005796072
5325.4371569822	0.0006116104
5327.3659643552	0.0006575251
5329.2947717283	0.0005906125
5331.2235791013	0.0005449298
5333.1523864744	0.0006667028
5335.0811938474	0.0007086382
5337.0100012205	0.0005917959
5338.9388085935	0.0006260640
5340.8676159666	0.0007014790
5342.7964233396	0.0006390660
5344.7252307126	0.0006342398
5346.6540380857	0.0006077866
5348.5828454587	0.0005973738
5350.5116528318	0.0006256740
5352.4404602048	0.0005566452
5354.3692675779	0.0005354774
5356.2980749509	0.0005598046
5358.2268823240	0.0005842975
5360.1556896970	0.0005729165
5362.0844970701	0.0005691577
5364.0133044431	0.0005814047
5365.9421118162	0.0005450846
5367.8709191892	0.0005295942
5369.7997265623	0.0005496843
5371.7285339353	0.0005960952
5373.6573413083	0.0005926064
5375.5861486814	0.0006231677
5377.5149560544	0.0005863936
5379.4437634275	0.0005582867
5381.3725708005	0.0006564021
5383.3013781736	0.0005628164
5385.2301855466	0.0005313314
5387.1589929197	0.0005971267
5389.0878002927	0.0006007925
5391.0166076658	0.0005634917
5392.9454150388	0.0005064420
5394.8742224119	0.0005710192
5396.8030297849	0.0005457196
5398.7318371580	0.0005361853
5400.6606445310	0.0006053926
5402.5894519041	0.0005848437
5404.5182592771	0.0005189800
5406.4470666501	0.0005469815
5408.3758740232	0.0005897692
5410.3046813962	0.0004908164
5412.2334887693	0.0005264514
5414.1622961423	0.0005207523
5416.0911035154	0.0004907888
5418.0199108884	0.0005612603
5419.9487182615	0.0005051267
5421.8775256345	0.0005325489
5423.8063330076	0.0005582016
5425.7351403806	0.0005287736
5427.6639477537	0.0005325977
5429.5927551267	0.0005287483
5431.5215624998	0.0005486065
5433.4503698728	0.0005324812
5435.3791772458	0.0004923203
5437.3079846189	0.0005163559
5439.2367919919	0.0005393508
5441.1655993650	0.0004757869
5443.0944067380	0.0004914397
5445.0232141111	0.0004999815
5446.9520214841	0.0004869412
5448.8808288572	0.0004772637
5450.8096362302	0.0004777337
5452.7384436033	0.0005800498
5454.6672509763	0.0005009896
5456.5960583494	0.0004463281
5458.5248657224	0.0005264725
5460.4536730955	0.0005679105
5462.3824804685	0.0005540797
5464.3112878415	0.0004471133
5466.2400952146	0.0004313892
5468.1689025876	0.0004236595
5470.0977099607	0.0004270666
5472.0265173337	0.0004556550
5473.9553247068	0.0004911602
5475.8841320798	0.0005311969
5477.8129394529	0.0005171364
5479.7417468259	0.0005122537
5481.6705541990	0.0004501061
5483.5993615720	0.0004852220
5485.5281689451	0.0005141243
5487.4569763181	0.0004973342
5489.3857836912	0.0004976512
5491.3145910642	0.0004429198
5493.2433984372	0.0005275428
5495.1722058103	0.0005353004
5497.1010131833	0.0004705057
5499.0298205564	0.0004660790
5500.9586279294	0.0004484223
5502.8874353025	0.0005021733
5504.8162426755	0.0005357102
5506.7450500486	0.0004923150
5508.6738574216	0.0004537897
5510.6026647947	0.0004881675
5512.5314721677	0.0004950989
5514.4602795408	0.0004980231
5516.3890869138	0.0004694377
5518.3178942869	0.0004138690
5520.2467016599	0.0004791064
5522.1755090330	0.0004668418
5524.1043164060	0.0004692654
5526.0331237790	0.0005198900
5527.9619311521	0.0004651217
5529.8907385251	0.0004451700
5531.8195458982	0.0003825941
5533.7483532712	0.0003547095
5535.6771606443	0.0004431465
5537.6059680173	0.0004292711
5539.5347753904	0.0004057211
5541.4635827634	0.0004362251
5543.3923901365	0.0004440678
5545.3211975095	0.0004454557
5547.2500048826	0.0004225154
5549.1788122556	0.0004519330
5551.1076196287	0.0004860859
5553.0364270017	0.0004798335
5554.9652343747	0.0004543984
5556.8940417478	0.0004580929
5558.8228491208	0.0004809080
5560.7516564939	0.0004108379
5562.6804638669	0.0004213615
5564.6092712400	0.0004347973
5566.5380786130	0.0004661795
5568.4668859861	0.0005221302
5570.3956933591	0.0003998590
5572.3245007322	0.0003677086
5574.2533081052	0.0003722427
5576.1821154783	0.0003837136
5578.1109228513	0.0004282240
5580.0397302244	0.0003960605
5581.9685375974	0.0004022298
5583.8973449704	0.0004064526
5585.8261523435	0.0004490964
5587.7549597165	0.0004538398
5589.6837670896	0.0004383024
5591.6125744626	0.0004341753
5593.5413818357	0.0003997238
5595.4701892087	0.0004397114
5597.3989965818	0.0004162055
5599.3278039548	0.0003850545
5601.2566113279	0.0004256938
5603.1854187009	0.0004163168
5605.1142260740	0.0003922209
5607.0430334470	0.0004206298
5608.9718408201	0.0004225298
5610.9006481931	0.0004024830
5612.8294555661	0.0004195792
5614.7582629392	0.0004298474
5616.6870703122	0.0004125774
5618.6158776853	0.0003895326
5620.5446850583	0.0004417314
5622.4734924314	0.0003505510
5624.4022998044	0.0003013986
5626.3311071775	0.0004464057
5628.2599145505	0.0004086639
5630.1887219236	0.0004097376
5632.1175292966	0.0003979790
5634.0463366697	0.0003959264
5635.9751440427	0.0005093538
5637.9039514158	0.0003874497
5639.8327587888	0.0003041794
5641.7615661619	0.0003720527
5643.6903735349	0.0003631222
5645.6191809079	0.0003973077
5647.5479882810	0.0004318172
5649.4767956540	0.0003281927
5651.4056030271	0.0003791038
5653.3344104001	0.0004458967
5655.2632177732	0.0003490053
5657.1920251462	0.0003956122
5659.1208325193	0.0003131205
5661.0496398923	0.0002913157
5662.9784472654	0.0004463512
5664.9072546384	0.0003512188
5666.8360620115	0.0002757222
5668.7648693845	0.0003405651
5670.6936767576	0.0004003316
5672.6224841306	0.0003871167
5674.5512915036	0.0003868724
5676.4800988767	0.0003796080
5678.4089062497	0.0003148429
5680.3377136228	0.0003408660
5682.2665209958	0.0003098881
5684.1953283689	0.0003172639
5686.1241357419	0.0003892321
5688.0529431150	0.0003719694
5689.9817504880	0.0003883975
5691.9105578611	0.0003762042
5693.8393652341	0.0003763105
5695.7681726072	0.0004246773
5697.6969799802	0.0003850632
5699.6257873533	0.0003852127
5701.5545947263	0.0004185067
5703.4834020993	0.0003695172
5705.4122094724	0.0003448477
5707.3410168454	0.0003386791
5709.2698242185	0.0003511278
5711.1986315915	0.0003319395
5713.1274389646	0.0002774200
5715.0562463376	0.0002922731
5716.9850537107	0.0003214164
5718.9138610837	0.0003827976
5720.8426684568	0.0003645092
5722.7714758298	0.0003356262
5724.7002832029	0.0003283972
5726.6290905759	0.0002447301
5728.5578979490	0.0003510604
5730.4867053220	0.0004020255
5732.4155126950	0.0003018187
5734.3443200681	0.0003152875
5736.2731274411	0.0003198978
5738.2019348142	0.0003531286
5740.1307421872	0.0003473608
5742.0595495603	0.0003004206
5743.9883569333	0.0003282804
5745.9171643064	0.0003308052
5747.8459716794	0.0003256207
5749.7747790525	0.0003314757
5751.7035864255	0.0003700918
5753.6323937986	0.0003712965
5755.5612011716	0.0003498953
5757.4900085447	0.0003610074
5759.4188159177	0.0002353471
5761.3476232907	0.0002336614
5763.2764306638	0.0003777409
5765.2052380368	0.0003138395
5767.1340454099	0.0002911318
5769.0628527829	0.0003440484
5770.9916601560	0.0003160954
5772.9204675290	0.0003093698
5774.8492749021	0.0002673830
5776.7780822751	0.0002484802
5778.7068896482	0.0002761235
5780.6356970212	0.0003141191
5782.5645043943	0.0003492173
5784.4933117673	0.0002955748
5786.4221191404	0.0002882270
5788.3509265134	0.0003279544
5790.2797338865	0.0003635715
5792.2085412595	0.0004025576
5794.1373486325	0.0003539688
5796.0661560056	0.0003087991
5797.9949633786	0.0002875060
5799.9237707517	0.0002969267
5801.8525781247	0.0003187218
5803.7813854978	0.0003170662
5805.7101928708	0.0003136624
5807.6390002439	0.0002852588
5809.5678076169	0.0003434472
5811.4966149900	0.0003473705
5813.4254223630	0.0002955660
5815.3542297361	0.0003088939
5817.2830371091	0.0002861712
5819.2118444822	0.0003292449
5821.1406518552	0.0003165953
5823.0694592282	0.0002802017
5824.9982666013	0.0003029446
5826.9270739743	0.0002590695
5828.8558813474	0.0002606801
5830.7846887204	0.0002307433
5832.7134960935	0.0002721711
5834.6423034665	0.0003535849
5836.5711108396	0.0002798525
5838.4999182126	0.0002923836
5840.4287255857	0.0003143899
5842.3575329587	0.0002580777
5844.2863403318	0.0002181082
5846.2151477048	0.0002156915
5848.1439550779	0.0002828616
5850.0727624509	0.0002470782
5852.0015698239	0.0002273859
5853.9303771970	0.0002887884
5855.8591845700	0.0002366471
5857.7879919431	0.0002742875
5859.7167993161	0.0003183081
5861.6456066892	0.0002332510
5863.5744140622	0.0002424416
5865.5032214353	0.0002220617
5867.4320288083	0.0002078517
5869.3608361814	0.0002774555
5871.2896435544	0.0002808120
5873.2184509275	0.0002997065
5875.1472583005	0.0002843785
5877.0760656736	0.0002452011
5879.0048730466	0.0002832937
5880.9336804196	0.0002756206
5882.8624877927	0.0002506014
5884.7912951657	0.0002737936
5886.7201025388	0.0002636687
5888.6489099118	0.0002621010
5890.5777172849	0.0002938970
5892.5065246579	0.0003165987
5894.4353320310	0.0003243221
5896.3641394040	0.0002895030
5898.2929467771	0.0002680919
5900.2217541501	0.0002158111
5902.1505615232	0.0001969395
5904.0793688962	0.0002421087
5906.0081762693	0.0001954536
5907.9369836423	0.0002071949
5909.8657910154	0.0002453030
5911.7945983884	0.0002489943
5913.7234057614	0.0002608634
5915.6522131345	0.0002268554
5917.5810205075	0.0002351849
5919.5098278806	0.0002612022
5921.4386352536	0.0002710311
5923.3674426267	0.0002316286
5925.2962499997	0.0002101331
5927.2250573728	0.0001953102
5929.1538647458	0.0002260464
5931.0826721189	0.0003258879
5933.0114794919	0.0002388216
5934.9402868650	0.0002523644
5936.8690942380	0.0003034536
5938.7979016111	0.0002077774
5940.7267089841	0.0002153575
5942.6555163571	0.0001933944
5944.5843237302	0.0002535215
5946.5131311032	0.0002788226
5948.4419384763	0.0002082296
5950.3707458493	0.0002590815
5952.2995532224	0.0002192938
5954.2283605954	0.0002144723
5956.1571679685	0.0002490590
5958.0859753415	0.0001776231
5960.0147827146	0.0002052334
5961.9435900876	0.0002594906
5963.8723974607	0.0002520238
5965.8012048337	0.0002615030
5967.7300122068	0.0002483353
5969.6588195798	0.0002332892
5971.5876269528	0.0002331465
5973.5164343259	0.0001969174
5975.4452416989	0.0002124445
5977.3740490720	0.0002749530
5979.3028564450	0.0002447928
5981.2316638181	0.0002135205
5983.1604711911	0.0002051800
5985.0892785642	0.0001636709
5987.0180859372	0.0002254916
5988.9468933103	0.0002627466
5990.8757006833	0.0001755533
5992.8045080564	0.0001595551
5994.7333154294	0.0002400565
5996.6621228025	0.0002589819
5998.5909301755	0.0002108262
6000.5197375485	0.0002283869
