399.2631262207	0.0010033275
401.1919335938	0.0008917628
403.1207409668	0.0014606657
405.0495483398	0.0017707013
406.9783557129	0.0016083552
408.9071630859	0.0016188913
410.8359704590	0.0013989494
412.7647778320	0.0016806333
414.6935852051	0.0018757274
416.6223925781	0.0015946708
418.5511999512	0.0015814807
420.4800073242	0.0013304717
422.4088146973	0.0017654402
424.3376220703	0.0017964902
426.2664294434	0.0010552113
428.1952368164	0.0016261989
430.1240441895	0.0022034761
432.0528515625	0.0017136311
433.9816589355	0.0011629597
435.9104663086	0.0013581305
437.8392736816	0.0016308236
439.7680810547	0.0017009354
441.6968884277	0.0018405796
443.6256958008	0.0019300017
445.5545031738	0.0016643577
447.4833105469	0.0011620502
449.4121179199	0.0015113198
451.3409252930	0.0012947514
453.2697326660	0.0009520499
455.1985400391	0.0011896223
457.1273474121	0.0009668516
459.0561547852	0.0009746490
460.9849621582	0.0009846524
462.9137695313	0.0010868597
464.8425769043	0.0007337945
466.7713842773	0.0011266118
468.7001916504	0.0013573770
470.6289990234	0.0004857962
472.5578063965	0.0006992085
474.4866137695	0.0002754013
476.4154211426	0.0008002503
478.3442285156	0.0010575000
480.2730358887	-0.0000423417
482.2018432617	0.0004470968
484.1306506348	0.0004944705
486.0594580078	0.0004984735
487.9882653809	0.0003592574
489.9170727539	0.0004011702
491.8458801270	0.0007002802
493.7746875000	0.0003392419
495.7034948730	0.0005992659
497.6323022461	0.0002022907
499.5611096191	0.0001512455
501.4899169922	0.0005833774
503.4187243652	0.0003689801
505.3475317383	0.0001849562
507.2763391113	0.0004514129
509.2051464844	0.0006672775
511.1339538574	0.0004503203
513.0627612305	0.0006190631
514.9915686035	0.0004712848
516.9203759766	0.0007171690
518.8491833496	0.0004030548
520.7779907227	-0.0000704874
522.7067980957	0.0006414457
524.6356054688	0.0003493807
526.5644128418	0.0006425694
528.4932202148	0.0008972404
530.4220275879	0.0003523407
532.3508349609	0.0001354640
534.2796423340	0.0001815638
536.2084497070	0.0008960717
538.1372570801	0.0001631448
540.0660644531	-0.0002903662
541.9948718262	0.0005579061
543.9236791992	0.0004977161
545.8524865723	0.0005690085
547.7812939453	0.0003725555
549.7101013184	0.0001290326
551.6389086914	0.0005853105
553.5677160645	0.0005266278
555.4965234375	0.0005529178
557.4253308105	0.0006812146
559.3541381836	0.0004767971
561.2829455566	0.0006598815
563.2117529297	0.0002771944
565.1405603027	-0.0000056354
567.0693676758	0.0004322209
568.9981750488	0.0002682350
570.9269824219	0.0004281388
572.8557897949	0.0004771511
574.7845971680	0.0001286568
576.7134045410	0.0004448638
578.6422119141	0.0004120355
580.5710192871	0.0002428456
582.4998266602	0.0005372883
584.4286340332	0.0004124340
586.3574414063	0.0002244680
588.2862487793	0.0006007788
590.2150561523	0.0006320730
592.1438635254	0.0004397496
594.0726708984	0.0005064756
596.0014782715	0.0005420478
597.9302856445	0.0005986734
599.8590930176	0.0005311862
601.7879003906	0.0005596352
603.7167077637	0.0006277819
605.6455151367	0.0005569540
607.5743225098	0.0003824661
609.5031298828	0.0004443781
611.4319372559	0.0004255153
613.3607446289	0.0002257665
615.2895520020	0.0005767125
617.2183593750	0.0006621263
619.1471667480	0.0005198880
621.0759741211	0.0004123462
623.0047814941	0.0003847807
624.9335888672	0.0005096638
626.8623962402	0.0002165793
628.7912036133	0.0001069589
630.7200109863	0.0003114144
632.6488183594	0.0007907401
634.5776257324	0.0012111161
636.5064331055	0.0013215537
638.4352404785	0.0013495812
640.3640478516	0.0011680108
642.2928552246	0.0014565923
644.2216625977	0.0018871737
646.1504699707	0.0019162956
648.0792773438	0.0020568790
650.0080847168	0.0021775439
651.9368920898	0.0023316508
653.8656994629	0.0023399857
655.7945068359	0.0022286100
657.7233142090	0.0026034620
659.6521215820	0.0028977750
661.5809289551	0.0029275166
663.5097363281	0.0030768630
665.4385437012	0.0029707942
667.3673510742	0.0027135871
669.2961584473	0.0029255440
671.2249658203	0.0030544780
673.1537731934	0.0029767430
675.0825805664	0.0032735132
677.0113879395	0.0034430875
678.9401953125	0.0036538048
680.8690026855	0.0036017990
682.7978100586	0.0033410648
684.7266174316	0.0035505434
686.6554248047	0.0033558151
688.5842321777	0.0036282139
690.5130395508	0.0045077261
692.4418469238	0.0043853326
694.3706542969	0.0042919274
696.2994616699	0.0051285503
698.2282690430	0.0056033595
700.1570764160	0.0056709386
702.0858837891	0.0060463105
704.0146911621	0.0058318498
705.9434985352	0.0049049053
707.8723059082	0.0041747969
709.8011132813	0.0034223525
711.7299206543	0.0022186593
713.6587280273	0.0015632606
715.5875354004	0.0012299572
717.5163427734	0.0006736304
719.4451501465	0.0008515671
721.3739575195	0.0006850671
723.3027648926	0.0004059877
725.2315722656	0.0006424205
727.1603796387	0.0002313283
729.0891870117	0.0002454902
731.0179943848	0.0006058017
732.9468017578	0.0003606113
734.8756091309	0.0002012272
736.8044165039	0.0003325881
738.7332238770	0.0005213937
740.6620312500	0.0003672344
742.5908386230	0.0001709057
744.5196459961	0.0004280048
746.4484533691	0.0003964079
748.3772607422	0.0005052205
750.3060681152	0.0007280296
752.2348754883	0.0003241297
754.1636828613	0.0005379239
756.0924902344	0.0006223953
758.0212976074	0.0004831678
759.9501049805	0.0008847660
761.8789123535	0.0004521841
763.8077197266	0.0002406157
765.7365270996	0.0005075739
767.6653344727	0.0004624572
769.5941418457	0.0003886573
771.5229492188	0.0003065287
773.4517565918	0.0006227234
775.3805639648	0.0006728674
777.3093713379	0.0005348959
779.2381787109	0.0006624057
781.1669860840	0.0006733987
783.0957934570	0.0006933174
785.0246008301	0.0007067274
786.9534082031	0.0004229638
788.8822155762	0.0004337025
790.8110229492	0.0007637353
792.7398303223	0.0006992375
794.6686376953	0.0008293255
796.5974450684	0.0008305293
798.5262524414	0.0007900366
800.4550598145	0.0010556411
802.3838671875	0.0010551501
804.3126745605	0.0008357564
806.2414819336	0.0006868301
808.1702893066	0.0008300991
810.0990966797	0.0005826545
812.0279040527	0.0005963522
813.9567114258	0.0006902994
815.8855187988	0.0005462001
817.8143261719	0.0007933201
819.7431335449	0.0007933797
821.6719409180	0.0008274652
823.6007482910	0.0005176944
825.5295556641	0.0007493864
827.4583630371	0.0010611720
829.3871704102	0.0008802811
831.3159777832	0.0015824257
833.2447851563	0.0014035492
835.1735925293	0.0012579900
837.1023999023	0.0017336712
839.0312072754	0.0014474323
840.9600146484	0.0015195808
842.8888220215	0.0016834084
844.8176293945	0.0013664621
846.7464367676	0.0011366298
848.6752441406	0.0012570214
850.6040515137	0.0014798940
852.5328588867	0.0012752766
854.4616662598	0.0009683359
856.3904736328	0.0010459210
858.3192810059	0.0009793848
860.2480883789	0.0009682408
862.1768957520	0.0008672851
864.1057031250	0.0006221967
866.0345104980	0.0007353782
867.9633178711	0.0006280659
869.8921252441	0.0005226062
871.8209326172	0.0003991873
873.7497399902	0.0005057808
875.6785473633	0.0007201942
877.6073547363	0.0006028988
879.5361621094	0.0004767164
881.4649694824	0.0003954649
883.3937768555	0.0007731044
885.3225842285	0.0007191064
887.2513916016	0.0006447928
889.1801989746	0.0008475119
891.1090063477	0.0007076356
893.0378137207	0.0008403828
894.9666210938	0.0006573414
896.8954284668	0.0007281742
898.8242358398	0.0007859054
900.7530432129	0.0005411010
902.6818505859	0.0006098090
904.6106579590	0.0004187723
906.5394653320	0.0006107668
908.4682727051	0.0008839249
910.3970800781	0.0010429199
912.3258874512	0.0011025326
914.2546948242	0.0009916869
916.1835021973	0.0011184758
918.1123095703	0.0011197635
920.0411169434	0.0012221953
921.9699243164	0.0013596802
923.8987316895	0.0016083672
925.8275390625	0.0018915304
927.7563464355	0.0018627325
929.6851538086	0.0018842092
931.6139611816	0.0019006771
933.5427685547	0.0020532461
935.4715759277	0.0024553356
937.4003833008	0.0024025822
939.3291906738	0.0025608162
941.2579980469	0.0029886714
943.1868054199	0.0026494476
945.1156127930	0.0026196437
947.0444201660	0.0025059073
948.9732275391	0.0024941778
950.9020349121	0.0026888363
952.8308422852	0.0022624354
954.7596496582	0.0026433570
956.6884570313	0.0027371156
958.6172644043	0.0024903913
960.5460717773	0.0026381752
962.4748791504	0.0025875536
964.4036865234	0.0026083733
966.3324938965	0.0025761509
968.2613012695	0.0028184787
970.1901086426	0.0027806824
972.1189160156	0.0030927323
974.0477233887	0.0034689489
975.9765307617	0.0032957329
977.9053381348	0.0038160845
979.8341455078	0.0041797701
981.7629528809	0.0044788411
983.6917602539	0.0050500985
985.6205676270	0.0054954961
987.5493750000	0.0062264563
989.4781823730	0.0069730226
991.4069897461	0.0074211089
993.3357971191	0.0081361057
995.2646044922	0.0090184379
997.1934118652	0.0097404430
999.1222192383	0.0106227882
1001.0510266113	0.0111383582
1002.9798339844	0.0118531827
1004.9086413574	0.0129354745
1006.8374487305	0.0136923408
1008.7662561035	0.0145327058
1010.6950634766	0.0155275417
1012.6238708496	0.0162188876
1014.5526782227	0.0168658905
1016.4814855957	0.0180259664
1018.4102929688	0.0186794903
1020.3391003418	0.0195514038
1022.2679077148	0.0205460377
1024.1967150879	0.0208045002
1026.1255224609	0.0218409263
1028.0543298340	0.0227872245
1029.9831372070	0.0232614744
1031.9119445801	0.0238065459
1033.8407519531	0.0243823528
1035.7695593262	0.0248143133
1037.6983666992	0.0250376277
1039.6271740723	0.0253349990
1041.5559814453	0.0252440739
1043.4847888184	0.0251708776
1045.4135961914	0.0246425420
1047.3424035645	0.0240586549
1049.2712109375	0.0238613188
1051.2000183105	0.0235874206
1053.1288256836	0.0233076960
1055.0576330566	0.0226073638
1056.9864404297	0.0223238207
1058.9152478027	0.0216410719
1060.8440551758	0.0208937507
1062.7728625488	0.0205251910
1064.7016699219	0.0195274204
1066.6304772949	0.0190957990
1068.5592846680	0.0182383154
1070.4880920410	0.0173350275
1072.4168994141	0.0169956833
1074.3457067871	0.0159332044
1076.2745141602	0.0151772164
1078.2033215332	0.0146844666
1080.1321289062	0.0139322672
1082.0609362793	0.0131669184
1083.9897436523	0.0125668012
1085.9185510254	0.0119878799
1087.8473583984	0.0113876183
1089.7761657715	0.0109974351
1091.7049731445	0.0103731928
1093.6337805176	0.0100165848
1095.5625878906	0.0098540010
1097.4913952637	0.0095003052
1099.4202026367	0.0092096711
1101.3490100098	0.0087856427
1103.2778173828	0.0086917598
1105.2066247559	0.0085563790
1107.1354321289	0.0082632676
1109.0642395019	0.0081740990
1110.9930468750	0.0080478238
1112.9218542480	0.0081303027
1114.8506616211	0.0079489285
1116.7794689941	0.0078424141
1118.7082763672	0.0080477297
1120.6370837402	0.0079998262
1122.5658911133	0.0080798874
1124.4946984863	0.0081012053
1126.4235058594	0.0081401877
1128.3523132324	0.0085270070
1130.2811206055	0.0087392759
1132.2099279785	0.0087177642
1134.1387353516	0.0090651512
1136.0675427246	0.0094482675
1137.9963500977	0.0098873805
1139.9251574707	0.0106680682
1141.8539648437	0.0112180617
1143.7827722168	0.0119760688
1145.7115795898	0.0127964700
1147.6403869629	0.0135002304
1149.5691943359	0.0141672920
1151.4980017090	0.0147073641
1153.4268090820	0.0156251602
1155.3556164551	0.0165684354
1157.2844238281	0.0171390064
1159.2132312012	0.0173889287
1161.1420385742	0.0182889737
1163.0708459473	0.0191640779
1164.9996533203	0.0195250064
1166.9284606934	0.0206435248
1168.8572680664	0.0213821474
1170.7860754394	0.0218112618
1172.7148828125	0.0227434561
1174.6436901855	0.0235270448
1176.5724975586	0.0242795013
1178.5013049316	0.0254237689
1180.4301123047	0.0263828263
1182.3589196777	0.0272303931
1184.2877270508	0.0286984462
1186.2165344238	0.0299253631
1188.1453417969	0.0310362205
1190.0741491699	0.0324253812
1192.0029565430	0.0340862460
1193.9317639160	0.0356574208
1195.8605712891	0.0372174159
1197.7893786621	0.0392542481
1199.7181860351	0.0407896228
1201.6469934082	0.0424887203
1203.5758007812	0.0443397574
1205.5046081543	0.0460849777
1207.4334155273	0.0478031002
1209.3622229004	0.0492038429
1211.2910302734	0.0508439504
1213.2198376465	0.0521517359
1215.1486450195	0.0534851030
1217.0774523926	0.0546794273
1219.0062597656	0.0555325598
1220.9350671387	0.0563752316
1222.8638745117	0.0569803938
1224.7926818848	0.0574378595
1226.7214892578	0.0578122884
1228.6502966308	0.0583365262
1230.5791040039	0.0584825650
1232.5079113769	0.0586709306
1234.4367187500	0.0588044450
1236.3655261230	0.0588140637
1238.2943334961	0.0587164722
1240.2231408691	0.0585676357
1242.1519482422	0.0585972629
1244.0807556152	0.0577845722
1246.0095629883	0.0576350428
1247.9383703613	0.0576255806
1249.8671777344	0.0571188219
1251.7959851074	0.0567237884
1253.7247924805	0.0559232421
1255.6535998535	0.0554002635
1257.5824072266	0.0544353500
1259.5112145996	0.0536184162
1261.4400219726	0.0529114716
1263.3688293457	0.0522076786
1265.2976367187	0.0515876189
1267.2264440918	0.0507084727
1269.1552514648	0.0502413139
1271.0840588379	0.0491978675
1273.0128662109	0.0484662801
1274.9416735840	0.0478268489
1276.8704809570	0.0468317345
1278.7992883301	0.0459036827
1280.7280957031	0.0447653569
1282.6569030762	0.0440425575
1284.5857104492	0.0431858897
1286.5145178223	0.0424986556
1288.4433251953	0.0417866670
1290.3721325683	0.0411449522
1292.3009399414	0.0407527834
1294.2297473144	0.0403253660
1296.1585546875	0.0401473492
1298.0873620605	0.0400465056
1300.0161694336	0.0402487926
1301.9449768066	0.0403585732
1303.8737841797	0.0407635868
1305.8025915527	0.0411320888
1307.7313989258	0.0416281074
1309.6602062988	0.0425388739
1311.5890136719	0.0430012941
1313.5178210449	0.0437435582
1315.4466284180	0.0449223742
1317.3754357910	0.0460584611
1319.3042431640	0.0470500253
1321.2330505371	0.0486729741
1323.1618579101	0.0502184927
1325.0906652832	0.0514594838
1327.0194726562	0.0528915599
1328.9482800293	0.0541737452
1330.8770874023	0.0557379909
1332.8058947754	0.0569391139
1334.7347021484	0.0582571775
1336.6635095215	0.0589457229
1338.5923168945	0.0586780272
1340.5211242676	0.0594633892
1342.4499316406	0.0612606257
1344.3787390137	0.0619117990
1346.3075463867	0.0616138317
1348.2363537597	0.0618511513
1350.1651611328	0.0613472164
1352.0939685058	0.0611195043
1354.0227758789	0.0604114421
1355.9515832519	0.0597617179
1357.8803906250	0.0599332526
1359.8091979980	0.0586391091
1361.7380053711	0.0566161573
1363.6668127441	0.0557422340
1365.5956201172	0.0578140616
1367.5244274902	0.0570684671
1369.4532348633	0.0560944006
1371.3820422363	0.0568958670
1373.3108496094	0.0542770252
1375.2396569824	0.0548774488
1377.1684643555	0.0557504743
1379.0972717285	0.0554922409
1381.0260791015	0.0558394156
1382.9548864746	0.0552472360
1384.8836938476	0.0554480031
1386.8125012207	0.0534510240
1388.7413085937	0.0542977750
1390.6701159668	0.0579317585
1392.5989233398	0.0568276085
1394.5277307129	0.0539021716
1396.4565380859	0.0558418557
1398.3853454590	0.0562228411
1400.3141528320	0.0557552315
1402.2429602051	0.0593922585
1404.1717675781	0.0566321984
1406.1005749512	0.0570022091
1408.0293823242	0.0590124168
1409.9581896972	0.0568750352
1411.8869970703	0.0579649992
1413.8158044433	0.0561315529
1415.7446118164	0.0568212792
1417.6734191894	0.0521752499
1419.6022265625	0.0475544482
1421.5310339355	0.0530835241
1423.4598413086	0.0514440835
1425.3886486816	0.0500190817
1427.3174560547	0.0502097830
1429.2462634277	0.0467707552
1431.1750708008	0.0454999134
1433.1038781738	0.0460161455
1435.0326855469	0.0425889194
1436.9614929199	0.0367900468
1438.8903002929	0.0402653962
1440.8191076660	0.0411256477
1442.7479150390	0.0384318754
1444.6767224121	0.0398028791
1446.6055297851	0.0371497720
1448.5343371582	0.0374815166
1450.4631445312	0.0386707932
1452.3919519043	0.0393245742
1454.3207592773	0.0408862755
1456.2495666504	0.0351671092
1458.1783740234	0.0367270038
1460.1071813965	0.0469359085
1462.0359887695	0.0494585522
1463.9647961426	0.0498123243
1465.8936035156	0.0519727692
1467.8224108886	0.0584943257
1469.7512182617	0.0630193502
1471.6800256347	0.0579903126
1473.6088330078	0.0609573834
1475.5376403808	0.0681604519
1477.4664477539	0.0730812922
1479.3952551269	0.0795818269
1481.3240625000	0.0813169703
1483.2528698730	0.0858874246
1485.1816772461	0.0887650549
1487.1104846191	0.0884937346
1489.0392919922	0.0887792706
1490.9680993652	0.0897189230
1492.8969067383	0.1015893593
1494.8257141113	0.1004197299
1496.7545214843	0.0922652036
1498.6833288574	0.1025221944
1500.6121362304	0.1057615280
1502.5409436035	0.1117056906
1504.4697509765	0.1075085700
1506.3985583496	0.0837991089
1508.3273657226	0.0980008170
1510.2561730957	0.1120490283
1512.1849804687	0.1089363620
1514.1137878418	0.1164394319
1516.0425952148	0.1074298918
1517.9714025879	0.1114927381
1519.9002099609	0.1080467254
1521.8290173340	0.0961679369
1523.7578247070	0.1131839007
1525.6866320801	0.1118232906
1527.6154394531	0.1113774925
1529.5442468261	0.1206927449
1531.4730541992	0.1172076911
1533.4018615722	0.1092325002
1535.3306689453	0.1140962988
1537.2594763183	0.1207859293
1539.1882836914	0.0923821777
1541.1170910644	0.0950226709
1543.0458984375	0.1107387394
1544.9747058105	0.1069043577
1546.9035131836	0.1220024973
1548.8323205566	0.1156761795
1550.7611279297	0.1181837469
1552.6899353027	0.1179361641
1554.6187426758	0.1088636369
1556.5475500488	0.1153267920
1558.4763574218	0.0877664983
1560.4051647949	0.0914530754
1562.3339721679	0.1221186444
1564.2627795410	0.1169570684
1566.1915869140	0.1190961003
1568.1203942871	0.1184668690
1570.0492016601	0.1071103364
1571.9780090332	0.1197319776
1573.9068164062	0.1211820394
1575.8356237793	0.0998446941
1577.7644311523	0.1098439246
1579.6932385254	0.1218011230
1581.6220458984	0.1168797165
1583.5508532715	0.1195678860
1585.4796606445	0.1177644879
1587.4084680175	0.1182294488
1589.3372753906	0.1173359975
1591.2660827636	0.1167317033
1593.1948901367	0.1170315444
1595.1236975097	0.1153850406
1597.0525048828	0.1165093333
1598.9813122558	0.1154097170
1600.9101196289	0.1155347228
1602.8389270019	0.1135693938
1604.7677343750	0.1145571619
1606.6965417480	0.1130387336
1608.6253491211	0.1123627573
1610.5541564941	0.1119088754
1612.4829638672	0.1117647290
1614.4117712402	0.1130117476
1616.3405786132	0.0952894762
1618.2693859863	0.1006358564
1620.1981933593	0.1143461615
1622.1270007324	0.1032814831
1624.0558081054	0.1035807431
1625.9846154785	0.1071467027
1627.9134228515	0.1064970344
1629.8422302246	0.1054398715
1631.7710375976	0.1106988937
1633.6998449707	0.1040497050
1635.6286523437	0.0888757855
1637.5574597168	0.1000884622
1639.4862670898	0.1081770360
1641.4150744629	0.1062236577
1643.3438818359	0.1086151674
1645.2726892090	0.0999623686
1647.2014965820	0.0903360620
1649.1303039550	0.1079433411
1651.0591113281	0.1036034077
1652.9879187011	0.0724067688
1654.9167260742	0.0926535428
1656.8455334472	0.1126392782
1658.7743408203	0.1084210128
1660.7031481933	0.1116539910
1662.6319555664	0.1036689281
1664.5607629394	0.1082929224
1666.4895703125	0.1152473614
1668.4183776855	0.1039860845
1670.3471850586	0.1018093228
1672.2759924316	0.1130080074
1674.2047998047	0.1066543311
1676.1336071777	0.1031924412
1678.0624145507	0.1160013005
1679.9912219238	0.1129023582
1681.9200292968	0.1128568053
1683.8488366699	0.0957436860
1685.7776440429	0.0941359475
1687.7064514160	0.1230844557
1689.6352587890	0.1100667343
1691.5640661621	0.1185715795
1693.4928735351	0.1216014922
1695.4216809082	0.0939741582
1697.3504882812	0.1114246249
1699.2792956543	0.1017388701
1701.2081030273	0.0928551853
1703.1369104004	0.1196655259
1705.0657177734	0.1123406813
1706.9945251464	0.1128013730
1708.9233325195	0.1211026311
1710.8521398925	0.1170318127
1712.7809472656	0.1189780310
1714.7097546386	0.1123940051
1716.6385620117	0.1026891619
1718.5673693847	0.1011643261
1720.4961767578	0.1165675968
1722.4249841308	0.1204120815
1724.3537915039	0.1131574437
1726.2825988769	0.1211716756
1728.2114062500	0.1136151850
1730.1402136230	0.1147352457
1732.0690209961	0.1122523993
1733.9978283691	0.0899606496
1735.9266357421	0.1068564653
1737.8554431152	0.1166705266
1739.7842504882	0.1059548110
1741.7130578613	0.1137431413
1743.6418652343	0.1156431437
1745.5706726074	0.1157150418
1747.4994799804	0.1170988083
1749.4282873535	0.1131503880
1751.3570947265	0.1089835465
1753.2859020996	0.1184002087
1755.2147094726	0.1233535707
1757.1435168457	0.1145336479
1759.0723242187	0.1234247535
1761.0011315918	0.1180560440
1762.9299389648	0.1142711118
1764.8587463379	0.1274508536
1766.7875537109	0.1173267066
1768.7163610839	0.1180237383
1770.6451684570	0.1178984568
1772.5739758300	0.1078987569
1774.5027832031	0.1177413613
1776.4315905761	0.1232560575
1778.3603979492	0.1217205971
1780.2892053222	0.1206551343
1782.2180126953	0.1212484986
1784.1468200683	0.1212587208
1786.0756274414	0.1193152517
1788.0044348144	0.1242638752
1789.9332421875	0.1219633371
1791.8620495605	0.1124863997
1793.7908569336	0.1160692275
1795.7196643066	0.1230900139
1797.6484716796	0.1218650639
1799.5772790527	0.1203184426
1801.5060864257	0.1188354418
1803.4348937988	0.1217080504
1805.3637011718	0.1239057779
1807.2925085449	0.1225013584
1809.2213159179	0.1227764934
1811.1501232910	0.1203260571
1813.0789306640	0.1233263686
1815.0077380371	0.1237091124
1816.9365454101	0.1224065125
1818.8653527832	0.1233712733
1820.7941601562	0.1229331046
1822.7229675293	0.1245144904
1824.6517749023	0.1179164574
1826.5805822753	0.1210217625
1828.5093896484	0.1214755177
1830.4381970214	0.1153133959
1832.3670043945	0.1232940108
1834.2958117675	0.1227785200
1836.2246191406	0.1225446239
1838.1534265136	0.1221417934
1840.0822338867	0.1227528304
1842.0110412597	0.1230970398
1843.9398486328	0.1118391380
1845.8686560058	0.1173860729
1847.7974633789	0.1226319373
1849.7262707519	0.1203327477
1851.6550781250	0.1230930835
1853.5838854980	0.1212716922
1855.5126928710	0.1222747862
1857.4415002441	0.1215489581
1859.3703076171	0.1208464205
1861.2991149902	0.1215882599
1863.2279223632	0.1203087717
1865.1567297363	0.1214264035
1867.0855371093	0.1183738261
1869.0143444824	0.1141567007
1870.9431518554	0.1177603975
1872.8719592285	0.1213997230
1874.8007666015	0.1196542755
1876.7295739746	0.1201374382
1878.6583813476	0.1199389994
1880.5871887207	0.1193315014
1882.5159960937	0.1198685914
1884.4448034667	0.1183022708
1886.3736108398	0.1197055951
1888.3024182128	0.1176958531
1890.2312255859	0.1157798320
1892.1600329589	0.1190759614
1894.0888403320	0.1177482754
1896.0176477050	0.1172169745
1897.9464550781	0.1183544993
1899.8752624511	0.1176895350
1901.8040698242	0.1177549213
1903.7328771972	0.1172446311
1905.6616845703	0.1177930832
1907.5904919433	0.1167591512
1909.5192993164	0.1159335375
1911.4481066894	0.1167340875
1913.3769140625	0.1167565882
1915.3057214355	0.1175631136
1917.2345288085	0.1134250760
1919.1633361816	0.1133224070
1921.0921435546	0.1168604642
1923.0209509277	0.1138421968
1924.9497583007	0.1156388223
1926.8785656738	0.1164942831
1928.8073730468	0.1151749119
1930.7361804199	0.1163581386
1932.6649877929	0.1151601672
1934.5937951660	0.1158844531
1936.5226025390	0.1152630374
1938.4514099121	0.1155923158
1940.3802172851	0.1155519560
1942.3090246582	0.1127128601
1944.2378320312	0.1141106337
1946.1666394042	0.1149376333
1948.0954467773	0.1145770699
1950.0242541503	0.1148928329
1951.9530615234	0.1147636622
1953.8818688964	0.1148655862
1955.8106762695	0.1145511195
1957.7394836425	0.1144841164
1959.6682910156	0.1144007295
1961.5970983886	0.1142383814
1963.5259057617	0.1144013703
1965.4547131347	0.1140786111
1967.3835205078	0.1130644307
1969.3123278808	0.1136808842
1971.2411352539	0.1141475067
1973.1699426269	0.1135447100
1975.0987499999	0.1137574539
1977.0275573730	0.1134015694
1978.9563647460	0.1134653538
1980.8851721191	0.1132301018
1982.8139794921	0.1129764766
1984.7427868652	0.1130801812
1986.6715942382	0.1124550849
1988.6004016113	0.1126687825
1990.5292089843	0.1117101759
1992.4580163574	0.1106857285
1994.3868237304	0.1117963493
1996.3156311035	0.1120495126
1998.2444384765	0.1115333587
2000.1732458496	0.1115394533
2002.1020532226	0.1111448258
2004.0308605956	0.1109868884
2005.9596679687	0.1108930930
2007.8884753417	0.1103258878
2009.8172827148	0.1102087796
2011.7460900878	0.1100111008
2013.6748974609	0.1099259853
2015.6037048339	0.1092853248
2017.5325122070	0.1085877717
2019.4613195800	0.1091243476
2021.3901269531	0.1089035422
2023.3189343261	0.1085563228
2025.2477416992	0.1085315198
2027.1765490722	0.1081226170
2029.1053564453	0.1080723256
2031.0341638183	0.1079380289
2032.9629711914	0.1076066941
2034.8917785644	0.1073077992
2036.8205859374	0.1071010157
2038.7493933105	0.1068700850
2040.6782006835	0.1064159423
2042.6070080566	0.1062157452
2044.5358154296	0.1061506718
2046.4646228027	0.1059195995
2048.3934301757	0.1057766378
2050.3222375488	0.1055793092
2052.2510449218	0.1054087281
2054.1798522949	0.1051554680
2056.1086596679	0.1048885435
2058.0374670410	0.1047003269
2059.9662744140	0.1044059768
2061.8950817871	0.1043210849
2063.8238891601	0.1039058268
2065.7526965331	0.1037176996
2067.6815039062	0.1036961824
2069.6103112792	0.1033818796
2071.5391186523	0.1034712791
2073.4679260253	0.1031277776
2075.3967333984	0.1028276533
2077.3255407714	0.1028040498
2079.2543481445	0.1025472879
2081.1831555175	0.1022827327
2083.1119628906	0.1020433158
2085.0407702636	0.1018727869
2086.9695776367	0.1016244888
2088.8983850097	0.1016284004
2090.8271923828	0.1014192179
2092.7559997558	0.1011729985
2094.6848071288	0.1009628847
2096.6136145019	0.1006857306
2098.5424218749	0.1006352901
2100.4712292480	0.1003493816
2102.4000366210	0.1002662480
2104.3288439941	0.1001203209
2106.2576513671	0.0999588072
2108.1864587402	0.0998202264
2110.1152661132	0.0995764360
2112.0440734863	0.0995389670
2113.9728808593	0.0993592590
2115.9016882324	0.0992366374
2117.8304956054	0.0989332050
2119.7593029785	0.0987706184
2121.6881103515	0.0987725109
2123.6169177245	0.0985234752
2125.5457250976	0.0983593464
2127.4745324706	0.0983151570
2129.4033398437	0.0982363001
2131.3321472167	0.0979788601
2133.2609545898	0.0978775024
2135.1897619628	0.0977477506
2137.1185693359	0.0976484716
2139.0473767089	0.0975326151
2140.9761840820	0.0973735005
2142.9049914550	0.0974295139
2144.8337988281	0.0972845256
2146.7626062011	0.0971194804
2148.6914135742	0.0969430059
2150.6202209472	0.0967811346
2152.5490283203	0.0966296196
2154.4778356933	0.0965972915
2156.4066430663	0.0966261402
2158.3354504394	0.0964027345
2160.2642578124	0.0962505341
2162.1930651855	0.0961404145
2164.1218725585	0.0960176513
2166.0506799316	0.0959099084
2167.9794873046	0.0959676653
2169.9082946777	0.0957602784
2171.8371020507	0.0955111980
2173.7659094238	0.0955774188
2175.6947167968	0.0953779593
2177.6235241699	0.0952227563
2179.5523315429	0.0951431841
2181.4811389160	0.0950622112
2183.4099462890	0.0948591828
2185.3387536620	0.0948627144
2187.2675610351	0.0949471444
2189.1963684081	0.0946355462
2191.1251757812	0.0944708437
2193.0539831542	0.0943795964
2194.9827905273	0.0943577662
2196.9115979003	0.0942315012
2198.8404052734	0.0941394866
2200.7692126464	0.0940491706
2202.6980200195	0.0939476490
2204.6268273925	0.0939578339
2206.5556347656	0.0938123614
2208.4844421386	0.0937974304
2210.4132495117	0.0935315788
2212.3420568847	0.0934535563
2214.2708642577	0.0934013203
2216.1996716308	0.0930733681
2218.1284790038	0.0929959118
2220.0572863769	0.0929564536
2221.9860937499	0.0928996056
2223.9149011230	0.0926587135
2225.8437084960	0.0926642567
2227.7725158691	0.0925632343
2229.7013232421	0.0924446881
2231.6301306152	0.0923351794
2233.5589379882	0.0920071602
2235.4877453613	0.0919614732
2237.4165527343	0.0917748809
2239.3453601074	0.0917566866
2241.2741674804	0.0915047526
2243.2029748534	0.0913758054
2245.1317822265	0.0914480686
2247.0605895995	0.0911186337
2248.9893969726	0.0909668505
2250.9182043456	0.0909008682
2252.8470117187	0.0909786448
2254.7758190917	0.0905818790
2256.7046264648	0.0904278308
2258.6334338378	0.0904908255
2260.5622412109	0.0902173445
2262.4910485839	0.0901612043
2264.4198559570	0.0899678022
2266.3486633300	0.0900597572
2268.2774707031	0.0898562372
2270.2062780761	0.0897064507
2272.1350854491	0.0896180570
2274.0638928222	0.0892900079
2275.9927001952	0.0893874168
2277.9215075683	0.0893778503
2279.8503149413	0.0894027650
2281.7791223144	0.0891104564
2283.7079296874	0.0889861286
2285.6367370605	0.0889580101
2287.5655444335	0.0886570662
2289.4943518066	0.0885451809
2291.4231591796	0.0883225799
2293.3519665527	0.0881468728
2295.2807739257	0.0876656175
2297.2095812988	0.0874154270
2299.1383886718	0.0872850865
2301.0671960449	0.0869623423
2302.9960034179	0.0866215974
2304.9248107909	0.0860236064
2306.8536181640	0.0854340270
2308.7824255370	0.0847126991
2310.7112329101	0.0842276961
2312.6400402831	0.0832903162
2314.5688476562	0.0822715014
2316.4976550292	0.0815491006
2318.4264624023	0.0803139210
2320.3552697753	0.0791802555
2322.2840771484	0.0779426545
2324.2128845214	0.0769782215
2326.1416918945	0.0761800036
2328.0704992675	0.0751642734
2329.9993066406	0.0741964877
2331.9281140136	0.0735163391
2333.8569213866	0.0733526796
2335.7857287597	0.0728773773
2337.7145361327	0.0727787316
2339.6433435058	0.0728303492
2341.5721508788	0.0730258226
2343.5009582519	0.0741814971
2345.4297656249	0.0754880160
2347.3585729980	0.0788720921
2349.2873803710	0.0816264078
2351.2161877441	0.0787827373
2353.1449951171	0.0745576620
2355.0738024902	0.0716913044
2357.0026098632	0.0693874955
2358.9314172363	0.0680366606
2360.8602246093	0.0670881197
2362.7890319823	0.0671672374
2364.7178393554	0.0675863773
2366.6466467284	0.0683893785
2368.5754541015	0.0699516237
2370.5042614745	0.0715473294
2372.4330688476	0.0738634765
2374.3618762206	0.0760046840
2376.2906835937	0.0781821907
2378.2194909667	0.0800674707
2380.1482983398	0.0812410712
2382.0771057128	0.0825380385
2384.0059130859	0.0829689577
2385.9347204589	0.0832126364
2387.8635278320	0.0833759308
2389.7923352050	0.0832556784
2391.7211425780	0.0833380446
2393.6499499511	0.0833164603
2395.5787573241	0.0831350759
2397.5075646972	0.0828712881
2399.4363720702	0.0828700215
2401.3651794433	0.0826810300
2403.2939868163	0.0825373381
2405.2227941894	0.0824380517
2407.1516015624	0.0823672786
2409.0804089355	0.0823695064
2411.0092163085	0.0820827782
2412.9380236816	0.0821383893
2414.8668310546	0.0819795132
2416.7956384277	0.0817697495
2418.7244458007	0.0817140639
2420.6532531738	0.0816024989
2422.5820605468	0.0816480145
2424.5108679198	0.0813586861
2426.4396752929	0.0812118948
2428.3684826659	0.0811872706
2430.2972900390	0.0810164809
2432.2260974120	0.0808982849
2434.1549047851	0.0809602588
2436.0837121581	0.0809811205
2438.0125195312	0.0806894451
2439.9413269042	0.0806040466
2441.8701342773	0.0806074291
2443.7989416503	0.0803789720
2445.7277490234	0.0802092627
2447.6565563964	0.0802792683
2449.5853637695	0.0801530257
2451.5141711425	0.0800249279
2453.4429785155	0.0800932795
2455.3717858886	0.0798802078
2457.3005932616	0.0796925873
2459.2294006347	0.0796183348
2461.1582080077	0.0794531479
2463.0870153808	0.0793920085
2465.0158227538	0.0794551820
2466.9446301269	0.0792371631
2468.8734374999	0.0790878311
2470.8022448730	0.0790872276
2472.7310522460	0.0788660645
2474.6598596191	0.0787633657
2476.5886669921	0.0786175728
2478.5174743652	0.0785529390
2480.4462817382	0.0784259290
2482.3750891112	0.0783195421
2484.3038964843	0.0783500820
2486.2327038573	0.0781524181
2488.1615112304	0.0780850947
2490.0903186034	0.0780291408
2492.0191259765	0.0779313147
2493.9479333495	0.0776798725
2495.8767407226	0.0776415914
2497.8055480956	0.0776658878
2499.7343554687	0.0774313137
2501.6631628417	0.0774977058
2503.5919702148	0.0773202330
2505.5207775878	0.0771721303
2507.4495849609	0.0771120489
2509.3783923339	0.0770071372
2511.3071997069	0.0769962817
2513.2360070800	0.0768226832
2515.1648144530	0.0767610222
2517.0936218261	0.0765806288
2519.0224291991	0.0765219182
2520.9512365722	0.0764260963
2522.8800439452	0.0763142332
2524.8088513183	0.0763505399
2526.7376586913	0.0762203261
2528.6664660644	0.0761842579
2530.5952734374	0.0759173334
2532.5240808105	0.0757565647
2534.4528881835	0.0757557899
2536.3816955566	0.0756705701
2538.3105029296	0.0756412297
2540.2393103027	0.0755194575
2542.1681176757	0.0754788145
2544.0969250487	0.0752859861
2546.0257324218	0.0751422197
2547.9545397948	0.0750981122
2549.8833471679	0.0750040859
2551.8121545409	0.0749908984
2553.7409619140	0.0748250186
2555.6697692870	0.0747387260
2557.5985766601	0.0747382194
2559.5273840331	0.0745626986
2561.4561914062	0.0743478835
2563.3849987792	0.0742384046
2565.3138061523	0.0741820186
2567.2426135253	0.0741177052
2569.1714208984	0.0739648342
2571.1002282714	0.0737707764
2573.0290356444	0.0737405717
2574.9578430175	0.0737878829
2576.8866503905	0.0738014504
2578.8154577636	0.0736128986
2580.7442651366	0.0733445436
2582.6730725097	0.0733118206
2584.6018798827	0.0732286870
2586.5306872558	0.0730698705
2588.4594946288	0.0730556399
2590.3883020019	0.0729931593
2592.3171093749	0.0729026347
2594.2459167480	0.0727478713
2596.1747241210	0.0726439357
2598.1035314941	0.0726545900
2600.0323388671	0.0723940283
2601.9611462401	0.0722723007
2603.8899536132	0.0722280443
2605.8187609862	0.0720454678
2607.7475683593	0.0719995871
2609.6763757323	0.0718486458
2611.6051831054	0.0718317479
2613.5339904784	0.0717369765
2615.4627978515	0.0715838894
2617.3916052245	0.0716460347
2619.3204125976	0.0715422705
2621.2492199706	0.0714921951
2623.1780273437	0.0713262483
2625.1068347167	0.0711111575
2627.0356420898	0.0710861385
2628.9644494628	0.0709572434
2630.8932568358	0.0708549768
2632.8220642089	0.0707951188
2634.7508715819	0.0707641318
2636.6796789550	0.0706240684
2638.6084863280	0.0704236701
2640.5372937011	0.0704520196
2642.4661010741	0.0703016818
2644.3949084472	0.0700076669
2646.3237158202	0.0700061023
2648.2525231933	0.0699550658
2650.1813305663	0.0697396845
2652.1101379394	0.0697082430
2654.0389453124	0.0697140023
2655.9677526855	0.0695457011
2657.8965600585	0.0694489926
2659.8253674315	0.0694190636
2661.7541748046	0.0693234056
2663.6829821776	0.0692672506
2665.6117895507	0.0691374615
2667.5405969237	0.0690036565
2669.4694042968	0.0689241439
2671.3982116698	0.0687932000
2673.3270190429	0.0686596781
2675.2558264159	0.0685092732
2677.1846337890	0.0684149265
2679.1134411620	0.0683560371
2681.0422485351	0.0682565123
2682.9710559081	0.0682071000
2684.8998632812	0.0681855530
2686.8286706542	0.0679462999
2688.7574780273	0.0678198189
2690.6862854003	0.0678471029
2692.6150927733	0.0677157789
2694.5439001464	0.0677400529
2696.4727075194	0.0675343648
2698.4015148925	0.0673856735
2700.3303222655	0.0674398467
2702.2591296386	0.0671851486
2704.1879370116	0.0670865923
2706.1167443847	0.0669682324
2708.0455517577	0.0668829978
2709.9743591308	0.0668168366
2711.9031665038	0.0666399747
2713.8319738769	0.0666108727
2715.7607812499	0.0665451437
2717.6895886230	0.0664259046
2719.6183959960	0.0662751272
2721.5472033690	0.0662295148
2723.4760107421	0.0661002472
2725.4048181151	0.0660137013
2727.3336254882	0.0659362674
2729.2624328612	0.0657447577
2731.1912402343	0.0656886473
2733.1200476073	0.0655355975
2735.0488549804	0.0654717982
2736.9776623534	0.0653811842
2738.9064697265	0.0653523952
2740.8352770995	0.0652017742
2742.7640844726	0.0649198145
2744.6928918456	0.0649811327
2746.6216992187	0.0648427755
2748.5505065917	0.0647456348
2750.4793139647	0.0647077560
2752.4081213378	0.0645828396
2754.3369287108	0.0645070374
2756.2657360839	0.0644176304
2758.1945434569	0.0643227845
2760.1233508300	0.0641198829
2762.0521582030	0.0640682429
2763.9809655761	0.0639356449
2765.9097729491	0.0638017207
2767.8385803222	0.0636901259
2769.7673876952	0.0635719895
2771.6961950683	0.0634821504
2773.6250024413	0.0633265525
2775.5538098144	0.0633061305
2777.4826171874	0.0631334037
2779.4114245604	0.0630264953
2781.3402319335	0.0628275424
2783.2690393065	0.0627294108
2785.1978466796	0.0627113730
2787.1266540526	0.0624619946
2789.0554614257	0.0625362843
2790.9842687987	0.0623460785
2792.9130761718	0.0621584132
2794.8418835448	0.0621266551
2796.7706909179	0.0619524196
2798.6994982909	0.0618098006
2800.6283056640	0.0616760254
2802.5571130370	0.0617127866
2804.4859204101	0.0614521801
2806.4147277831	0.0613472164
2808.3435351562	0.0612741113
2810.2723425292	0.0609855503
2812.2011499022	0.0610039756
2814.1299572753	0.0608632155
2816.0587646483	0.0607247874
2817.9875720214	0.0606870726
2819.9163793944	0.0605404712
2821.8451867675	0.0603572950
2823.7739941405	0.0602521375
2825.7028015136	0.0601947606
2827.6316088866	0.0600253046
2829.5604162597	0.0598655306
2831.4892236327	0.0596887730
2833.4180310058	0.0594607852
2835.3468383788	0.0593260936
2837.2756457519	0.0593386590
2839.2044531249	0.0592116565
2841.1332604979	0.0589322932
2843.0620678710	0.0586753711
2844.9908752440	0.0584273636
2846.9196826171	0.0579624623
2848.8484899901	0.0575896017
2850.7772973632	0.0575572476
2852.7061047362	0.0573348291
2854.6349121093	0.0573479980
2856.5637194823	0.0573599041
2858.4925268554	0.0572204888
2860.4213342284	0.0573154427
2862.3501416015	0.0572020896
2864.2789489745	0.0571144968
2866.2077563476	0.0570068695
2868.1365637206	0.0568442456
2870.0653710936	0.0567124858
2871.9941784667	0.0566624403
2873.9229858397	0.0565421209
2875.8517932128	0.0563240871
2877.7806005858	0.0563852675
2879.7094079589	0.0562909395
2881.6382153319	0.0561949611
2883.5670227050	0.0560601316
2885.4958300780	0.0559151024
2887.4246374511	0.0558894649
2889.3534448241	0.0557126142
2891.2822521972	0.0555783845
2893.2110595702	0.0553992838
2895.1398669433	0.0553403124
2897.0686743163	0.0551274493
2898.9974816893	0.0549313203
2900.9262890624	0.0548526570
2902.8550964354	0.0546922907
2904.7839038085	0.0546135604
2906.7127111815	0.0542027950
2908.6415185546	0.0540088043
2910.5703259276	0.0538441017
2912.4991333007	0.0534921736
2914.4279406737	0.0532685071
2916.3567480468	0.0529141203
2918.2855554198	0.0527561530
2920.2143627929	0.0525925308
2922.1431701659	0.0524602458
2924.0719775390	0.0524909049
2926.0007849120	0.0524931699
2927.9295922851	0.0523752533
2929.8583996581	0.0522382259
2931.7872070311	0.0522709712
2933.7160144042	0.0521772206
2935.6448217772	0.0521726534
2937.5736291503	0.0522204004
2939.5024365233	0.0521716699
2941.4312438964	0.0521623306
2943.3600512694	0.0520902127
2945.2888586425	0.0520523638
2947.2176660155	0.0519097559
2949.1464733886	0.0517038330
2951.0752807616	0.0516652316
2953.0040881347	0.0515498146
2954.9328955077	0.0513048247
2956.8617028808	0.0511097349
2958.7905102538	0.0509205759
2960.7193176268	0.0508765280
2962.6481249999	0.0507586077
2964.5769323729	0.0504881367
2966.5057397460	0.0504640192
2968.4345471190	0.0504968092
2970.3633544921	0.0504539534
2972.2921618651	0.0504605100
2974.2209692382	0.0505385846
2976.1497766112	0.0504542403
2978.0785839843	0.0504005216
2980.0073913573	0.0504438207
2981.9361987304	0.0503030121
2983.8650061034	0.0502687767
2985.7938134765	0.0501681045
2987.7226208495	0.0500813127
2989.6514282225	0.0500050709
2991.5802355956	0.0498270094
2993.5090429686	0.0498336554
2995.4378503417	0.0497960001
2997.3666577147	0.0496765897
2999.2954650878	0.0495385453
3001.2242724608	0.0494313985
3003.1530798339	0.0492019802
3005.0818872069	0.0490806773
3007.0106945800	0.0489909612
3008.9395019530	0.0486537963
3010.8683093261	0.0486690700
3012.7971166991	0.0485655293
3014.7259240722	0.0482552573
3016.6547314452	0.0481752381
3018.5835388182	0.0481535345
3020.5123461913	0.0480672047
3022.4411535643	0.0477816612
3024.3699609374	0.0476323888
3026.2987683104	0.0474917516
3028.2275756835	0.0473167971
3030.1563830565	0.0472105443
3032.0851904296	0.0470127687
3034.0139978026	0.0468712226
3035.9428051757	0.0467436686
3037.8716125487	0.0466643050
3039.8004199218	0.0464845411
3041.7292272948	0.0462402143
3043.6580346679	0.0461265706
3045.5868420409	0.0459729284
3047.5156494139	0.0458422117
3049.4444567870	0.0457028709
3051.3732641600	0.0455527529
3053.3020715331	0.0454924926
3055.2308789061	0.0452771485
3057.1596862792	0.0450594015
3059.0884936522	0.0450617000
3061.0173010253	0.0449028164
3062.9461083983	0.0446835198
3064.8749157714	0.0445579737
3066.8037231444	0.0443183593
3068.7325305175	0.0442033261
3070.6613378905	0.0441705920
3072.5901452636	0.0440144055
3074.5189526366	0.0438762531
3076.4477600097	0.0436697453
3078.3765673827	0.0434632078
3080.3053747557	0.0433154777
3082.2341821288	0.0431196950
3084.1629895018	0.0430358723
3086.0917968749	0.0428021029
3088.0206042479	0.0425537303
3089.9494116210	0.0425155237
3091.8782189940	0.0423548296
3093.8070263671	0.0422509685
3095.7358337401	0.0420366786
3097.6646411132	0.0418113843
3099.5934484862	0.0417221412
3101.5222558593	0.0414626300
3103.4510632323	0.0412530266
3105.3798706054	0.0411035717
3107.3086779784	0.0410374328
3109.2374853514	0.0409180373
3111.1662927245	0.0406849161
3113.0951000975	0.0404496193
3115.0239074706	0.0401952937
3116.9527148436	0.0400842875
3118.8815222167	0.0399151519
3120.8103295897	0.0397189297
3122.7391369628	0.0395781472
3124.6679443358	0.0393874794
3126.5967517089	0.0391257145
3128.5255590819	0.0389167182
3130.4543664550	0.0388238728
3132.3831738280	0.0385263637
3134.3119812011	0.0382857546
3136.2407885741	0.0382235423
3138.1695959471	0.0380599499
3140.0984033202	0.0379047655
3142.0272106932	0.0377138257
3143.9560180663	0.0374901257
3145.8848254393	0.0373046026
3147.8136328124	0.0370726138
3149.7424401854	0.0368816331
3151.6712475585	0.0366800725
3153.6000549315	0.0364423133
3155.5288623046	0.0363311321
3157.4576696776	0.0361493900
3159.3864770507	0.0358755700
3161.3152844237	0.0357118621
3163.2440917968	0.0355871953
3165.1728991698	0.0353542939
3167.1017065428	0.0351880938
3169.0305139159	0.0350137204
3170.9593212889	0.0347126685
3172.8881286620	0.0346929692
3174.8169360350	0.0344761312
3176.7457434081	0.0341761708
3178.6745507811	0.0341599882
3180.6033581542	0.0339046419
3182.5321655272	0.0337135047
3184.4609729003	0.0335106403
3186.3897802733	0.0332823843
3188.3185876464	0.0332252309
3190.2473950194	0.0330644958
3192.1762023925	0.0328392833
3194.1050097655	0.0326995738
3196.0338171386	0.0326065384
3197.9626245116	0.0323596969
3199.8914318846	0.0321236886
3201.8202392577	0.0319909528
3203.7490466307	0.0319520757
3205.6778540038	0.0317940339
3207.6066613768	0.0316402614
3209.5354687499	0.0315780044
3211.4642761229	0.0313625410
3213.3930834960	0.0312350318
3215.3218908690	0.0310572870
3217.2506982421	0.0310175605
3219.1795056151	0.0308019053
3221.1083129882	0.0306249801
3223.0371203612	0.0307231210
3224.9659277343	0.0304138027
3226.8947351073	0.0304072201
3228.8235424803	0.0303543583
3230.7523498534	0.0301763415
3232.6811572264	0.0301371682
3234.6099645995	0.0299735181
3236.5387719725	0.0299721994
3238.4675793456	0.0297807716
3240.3963867186	0.0296549387
3242.3251940917	0.0295292214
3244.2540014647	0.0294485297
3246.1828088378	0.0294726416
3248.1116162108	0.0294246711
3250.0404235839	0.0293902494
3251.9692309569	0.0291825049
3253.8980383300	0.0290952399
3255.8268457030	0.0289082844
3257.7556530760	0.0288679078
3259.6844604491	0.0289028976
3261.6132678221	0.0288355742
3263.5420751952	0.0288902931
3265.4708825682	0.0287556536
3267.3996899413	0.0287778154
3269.3284973143	0.0287414603
3271.2573046874	0.0285659339
3273.1861120604	0.0284067262
3275.1149194335	0.0283858608
3277.0437268065	0.0283966921
3278.9725341796	0.0282443687
3280.9013415526	0.0283065327
3282.8301489257	0.0282450002
3284.7589562987	0.0281185862
3286.6877636717	0.0279985163
3288.6165710448	0.0280056596
3290.5453784178	0.0280197933
3292.4741857909	0.0278573353
3294.4029931639	0.0279191751
3296.3318005370	0.0278106518
3298.2606079100	0.0277417600
3300.1894152831	0.0278071817
3302.1182226561	0.0277377572
3304.0470300292	0.0275881328
3305.9758374022	0.0275038909
3307.9046447753	0.0275529623
3309.8334521483	0.0274633206
3311.7622595214	0.0274028704
3313.6910668944	0.0273917727
3315.6198742675	0.0273173712
3317.5486816405	0.0271020159
3319.4774890135	0.0271381177
3321.4062963866	0.0272464864
3323.3351037596	0.0270612165
3325.2639111327	0.0270207264
3327.1927185057	0.0269375704
3329.1215258788	0.0268973820
3331.0503332518	0.0268209632
3332.9791406249	0.0268270243
3334.9079479979	0.0268410258
3336.8367553710	0.0265805926
3338.7655627440	0.0265990943
3340.6943701171	0.0265895613
3342.6231774901	0.0264905207
3344.5519848632	0.0265341867
3346.4807922362	0.0265005417
3348.4095996092	0.0263579525
3350.3384069823	0.0263168048
3352.2672143553	0.0262496267
3354.1960217284	0.0261108577
3356.1248291014	0.0261937715
3358.0536364745	0.0261161774
3359.9824438475	0.0260178111
3361.9112512206	0.0260149166
3363.8400585936	0.0259259455
3365.7688659667	0.0258394983
3367.6976733397	0.0258272588
3369.6264807128	0.0259209257
3371.5552880858	0.0258317702
3373.4840954589	0.0257472433
3375.4129028319	0.0257915072
3377.3417102049	0.0257414542
3379.2705175780	0.0256476961
3381.1993249510	0.0257344637
3383.1281323241	0.0256620012
3385.0569396971	0.0255450755
3386.9857470702	0.0256150253
3388.9145544432	0.0254195444
3390.8433618163	0.0253870860
3392.7721691893	0.0253483169
3394.7009765624	0.0253506824
3396.6297839354	0.0255000442
3398.5585913085	0.0254431665
3400.4873986815	0.0254382994
3402.4162060546	0.0253022723
3404.3450134276	0.0253867283
3406.2738208006	0.0254888199
3408.2026281737	0.0254041515
3410.1314355467	0.0254335143
3412.0602429198	0.0253784247
3413.9890502928	0.0253543220
3415.9178576659	0.0253875647
3417.8466650389	0.0254264176
3419.7754724120	0.0253610872
3421.7042797850	0.0253340881
3423.6330871581	0.0253959093
3425.5618945311	0.0255264491
3427.4907019042	0.0254664123
3429.4195092772	0.0253285374
3431.3483166503	0.0253390335
3433.2771240233	0.0253341794
3435.2059313963	0.0255351644
3437.1347387694	0.0254724901
3439.0635461424	0.0254342146
3440.9923535155	0.0253670923
3442.9211608885	0.0253404621
3444.8499682616	0.0254820138
3446.7787756346	0.0251922999
3448.7075830077	0.0254095010
3450.6363903807	0.0255509689
3452.5651977538	0.0255283043
3454.4940051268	0.0256775282
3456.4228124999	0.0255400911
3458.3516198729	0.0255941451
3460.2804272460	0.0256118886
3462.2092346190	0.0256349742
3464.1380419921	0.0255937576
3466.0668493651	0.0256659072
3467.9956567381	0.0256772116
3469.9244641112	0.0256782286
3471.8532714842	0.0258480459
3473.7820788573	0.0257709865
3475.7108862303	0.0258596651
3477.6396936034	0.0258827750
3479.5685009764	0.0259213690
3481.4973083495	0.0258704461
3483.4261157225	0.0259282589
3485.3549230956	0.0260719135
3487.2837304686	0.0259573851
3489.2125378417	0.0261468366
3491.1413452147	0.0262661800
3493.0701525878	0.0262894630
3494.9989599608	0.0261466950
3496.9277673338	0.0261059403
3498.8565747069	0.0262313802
3500.7853820799	0.0263077728
3502.7141894530	0.0261482093
3504.6429968260	0.0260539874
3506.5718041991	0.0265302677
3508.5006115721	0.0263138860
3510.4294189452	0.0263691805
3512.3582263182	0.0266800169
3514.2870336913	0.0266579501
3516.2158410643	0.0267671421
3518.1446484374	0.0265380703
3520.0734558104	0.0268419981
3522.0022631835	0.0267199390
3523.9310705565	0.0264313407
3525.8598779295	0.0266449973
3527.7886853026	0.0266179331
3529.7174926756	0.0267143659
3531.6463000487	0.0269025043
3533.5751074217	0.0271434039
3535.5039147948	0.0269831158
3537.4327221678	0.0269903317
3539.3615295409	0.0271597076
3541.2903369139	0.0271861330
3543.2191442870	0.0272126310
3545.1479516600	0.0267819352
3547.0767590331	0.0265460219
3549.0055664061	0.0270728208
3550.9343737792	0.0273814686
3552.8631811522	0.0269578118
3554.7919885252	0.0273326598
3556.7207958983	0.0276396349
3558.6496032713	0.0275360867
3560.5784106444	0.0275198743
3562.5072180174	0.0273239557
3564.4360253905	0.0275354534
3566.3648327635	0.0262314994
3568.2936401366	0.0256795436
3570.2224475096	0.0274136253
3572.1512548827	0.0279152207
3574.0800622557	0.0276775919
3576.0088696288	0.0277646612
3577.9376770018	0.0277193282
3579.8664843749	0.0277665276
3581.7952917479	0.0278722178
3583.7240991210	0.0280587785
3585.6529064940	0.0276008472
3587.5817138670	0.0259090587
3589.5105212401	0.0265252031
3591.4393286131	0.0283088535
3593.3681359862	0.0276454259
3595.2969433592	0.0274132155
3597.2257507323	0.0277446210
3599.1545581053	0.0279046372
3601.0833654784	0.0279498585
3603.0121728514	0.0280471109
3604.9409802245	0.0285714790
3606.8697875975	0.0277799983
3608.7985949706	0.0264619589
3610.7274023436	0.0270753168
3612.6562097167	0.0275918283
3614.5850170897	0.0271166451
3616.5138244627	0.0285267588
3618.4426318358	0.0269423015
3620.3714392088	0.0262401290
3622.3002465819	0.0286638662
3624.2290539549	0.0281804651
3626.1578613280	0.0293246210
3628.0866687010	0.0257551856
3630.0154760741	0.0238663815
3631.9442834471	0.0287543088
3633.8730908202	0.0282209255
3635.8018981932	0.0285604391
3637.7307055663	0.0291175433
3639.6595129393	0.0287436210
3641.5883203124	0.0290720630
3643.5171276854	0.0286782365
3645.4459350584	0.0290708616
3647.3747424315	0.0268176738
3649.3035498045	0.0250364393
3651.2323571776	0.0254980922
3653.1611645506	0.0290597454
3655.0899719237	0.0287748501
3657.0187792967	0.0264356509
3658.9475866698	0.0294425879
3660.8763940428	0.0290453043
3662.8052014159	0.0294527113
3664.7340087889	0.0293939225
3666.6628161620	0.0291901156
3668.5916235350	0.0286387634
3670.5204309081	0.0244451556
3672.4492382811	0.0282802004
3674.3780456541	0.0274152122
3676.3068530272	0.0237039831
3678.2356604002	0.0282159243
3680.1644677733	0.0289445259
3682.0932751463	0.0289857704
3684.0220825194	0.0296811182
3685.9508898924	0.0292950720
3687.8796972655	0.0268443227
3689.8085046385	0.0252415426
3691.7373120116	0.0280093625
3693.6661193846	0.0285920464
3695.5949267577	0.0291910209
3697.5237341307	0.0290938020
3699.4525415038	0.0288987160
3701.3813488768	0.0284169279
3703.3101562499	0.0274548046
3705.2389636229	0.0296881590
3707.1677709959	0.0285386276
3709.0965783690	0.0279391482
3711.0253857420	0.0267342571
3712.9541931151	0.0253261756
3714.8830004881	0.0286377743
3716.8118078612	0.0283467248
3718.7406152342	0.0285429806
3720.6694226073	0.0279891118
3722.5982299803	0.0272987522
3724.5270373534	0.0282107051
3726.4558447264	0.0264003761
3728.3846520995	0.0281491857
3730.3134594725	0.0279410668
3732.2422668456	0.0261664204
3734.1710742186	0.0257729404
3736.0998815916	0.0246972218
3738.0286889647	0.0256981850
3739.9574963377	0.0273819976
3741.8863037108	0.0284618363
3743.8151110838	0.0232212096
3745.7439184569	0.0222350135
3747.6727258299	0.0272767581
3749.6015332030	0.0241867378
3751.5303405760	0.0226683635
3753.4591479491	0.0251678657
3755.3879553221	0.0267633460
3757.3167626952	0.0276239086
3759.2455700682	0.0260016304
3761.1743774413	0.0266879611
3763.1031848143	0.0280101262
3765.0319921873	0.0265422352
3766.9607995604	0.0268576294
3768.8896069334	0.0267242864
3770.8184143065	0.0257209092
3772.7472216795	0.0273102801
3774.6760290526	0.0273422692
3776.6048364256	0.0273041688
3778.5336437987	0.0267739929
3780.4624511717	0.0258917511
3782.3912585448	0.0272258855
3784.3200659178	0.0267128944
3786.2488732909	0.0265866518
3788.1776806639	0.0270379744
3790.1064880370	0.0268393829
3792.0352954100	0.0266672969
3793.9641027830	0.0271226037
3795.8929101561	0.0258723833
3797.8217175291	0.0255456362
3799.7505249022	0.0266081020
3801.6793322752	0.0220650360
3803.6081396483	0.0249597840
3805.5369470213	0.0267157108
3807.4657543944	0.0228095762
3809.3945617674	0.0265592374
3811.3233691405	0.0260827430
3813.2521765135	0.0267635565
3815.1809838866	0.0245525502
3817.1097912596	0.0221372601
3819.0385986327	0.0266437102
3820.9674060057	0.0226484705
3822.8962133787	0.0235503092
3824.8250207518	0.0264797993
3826.7538281248	0.0244702138
3828.6826354979	0.0258740559
3830.6114428709	0.0250843465
3832.5402502440	0.0245035402
3834.4690576170	0.0249186978
3836.3978649901	0.0238053519
3838.3266723631	0.0219740868
3840.2554797362	0.0234709643
3842.1842871092	0.0248459876
3844.1130944823	0.0239940062
3846.0419018553	0.0254611336
3847.9707092284	0.0251374468
3849.8995166014	0.0252596922
3851.8283239745	0.0231459402
3853.7571313475	0.0184140317
3855.6859387205	0.0209586527
3857.6147460936	0.0252467450
3859.5435534666	0.0246026237
3861.4723608397	0.0244554318
3863.4011682127	0.0240958985
3865.3299755858	0.0225828569
3867.2587829588	0.0246251412
3869.1875903319	0.0228963196
3871.1163977049	0.0214983262
3873.0452050780	0.0245713219
3874.9740124510	0.0230615474
3876.9028198241	0.0244906284
3878.8316271971	0.0248379856
3880.7604345702	0.0219990723
3882.6892419432	0.0245658401
3884.6180493162	0.0232506283
3886.5468566893	0.0216881521
3888.4756640623	0.0245923679
3890.4044714354	0.0235178098
3892.3332788084	0.0224268157
3894.2620861815	0.0239618458
3896.1908935545	0.0243449099
3898.1197009276	0.0235190336
3900.0485083006	0.0223686025
3901.9773156737	0.0221669637
3903.9061230467	0.0219145082
3905.8349304198	0.0223449375
3907.7637377928	0.0239132158
3909.6925451659	0.0237275697
3911.6213525389	0.0235749297
3913.5501599119	0.0239253193
3915.4789672850	0.0233479850
3917.4077746580	0.0227622632
3919.3365820311	0.0226596911
3921.2653894041	0.0231498703
3923.1941967772	0.0231510997
3925.1230041502	0.0228757747
3927.0518115233	0.0230608024
3928.9806188963	0.0233341716
3930.9094262694	0.0228347071
3932.8382336424	0.0223224554
3934.7670410155	0.0229550004
3936.6958483885	0.0231213011
3938.6246557616	0.0230351612
3940.5534631346	0.0230087973
3942.4822705076	0.0224250257
3944.4110778807	0.0224789754
3946.3398852537	0.0228178725
3948.2686926268	0.0224358104
3950.1974999998	0.0222855676
3952.1263073729	0.0226521697
3954.0551147459	0.0227549076
3955.9839221190	0.0226147454
3957.9127294920	0.0224804431
3959.8415368651	0.0225254744
3961.7703442381	0.0223491341
3963.6991516112	0.0223182701
3965.6279589842	0.0225466304
3967.5567663573	0.0223932117
3969.4855737303	0.0223189313
3971.4143811034	0.0221585575
3973.3431884764	0.0221278202
3975.2719958494	0.0221598446
3977.2008032225	0.0220828615
3979.1296105955	0.0221400969
3981.0584179686	0.0220122505
3982.9872253416	0.0219850559
3984.9160327147	0.0219034478
3986.8448400877	0.0219396260
3988.7736474608	0.0219182558
3990.7024548338	0.0217445344
3992.6312622069	0.0217510536
3994.5600695799	0.0216307491
3996.4888769530	0.0216468312
3998.4176843260	0.0215354450
4000.3464916991	0.0215373915
4002.2752990721	0.0216355920
4004.2041064451	0.0214462951
4006.1329138182	0.0214553624
4008.0617211912	0.0213909335
4009.9905285643	0.0213244818
4011.9193359373	0.0213116221
4013.8481433104	0.0212334059
4015.7769506834	0.0212573893
4017.7057580565	0.0211404637
4019.6345654295	0.0210502949
4021.5633728026	0.0211462677
4023.4921801756	0.0211483091
4025.4209875487	0.0210419465
4027.3497949217	0.0209977664
4029.2786022948	0.0209683515
4031.2074096678	0.0208854768
4033.1362170408	0.0208658278
4035.0650244139	0.0208224766
4036.9938317869	0.0207573324
4038.9226391600	0.0208012350
4040.8514465330	0.0206569619
4042.7802539061	0.0205291323
4044.7090612791	0.0206095111
4046.6378686522	0.0205879137
4048.5666760252	0.0205214676
4050.4954833983	0.0204344653
4052.4242907713	0.0203626826
4054.3530981444	0.0202952977
4056.2819055174	0.0203211121
4058.2107128905	0.0203358680
4060.1395202635	0.0202524178
4062.0683276365	0.0202359147
4063.9971350096	0.0201927312
4065.9259423826	0.0201810990
4067.8547497557	0.0200367458
4069.7835571287	0.0200055018
4071.7123645018	0.0200665984
4073.6411718748	0.0199254155
4075.5699792479	0.0198929906
4077.4987866209	0.0198414847
4079.4275939940	0.0198467635
4081.3564013670	0.0198603701
4083.2852087401	0.0197429582
4085.2140161131	0.0196510218
4087.1428234862	0.0196287557
4089.0716308592	0.0196610875
4091.0004382323	0.0196470432
4092.9292456053	0.0195128266
4094.8580529783	0.0193999559
4096.7868603514	0.0195381343
4098.7156677244	0.0194344297
4100.6444750975	0.0193235651
4102.5732824705	0.0194476359
4104.5020898436	0.0192950889
4106.4308972166	0.0192354955
4108.3597045897	0.0192308649
4110.2885119627	0.0191279128
4112.2173193358	0.0191322844
4114.1461267088	0.0190679673
4116.0749340819	0.0189395808
4118.0037414549	0.0189993214
4119.9325488280	0.0189486630
4121.8613562010	0.0188098922
4123.7901635740	0.0188762546
4125.7189709471	0.0187798925
4127.6477783201	0.0187513083
4129.5765856932	0.0187294688
4131.5053930662	0.0186356343
4133.4342004393	0.0186802894
4135.3630078123	0.0186510868
4137.2918151854	0.0185728222
4139.2206225584	0.0185097121
4141.1494299315	0.0185382441
4143.0782373045	0.0184283778
4145.0070446776	0.0183822028
4146.9358520506	0.0184087977
4148.8646594237	0.0183590911
4150.7934667967	0.0183344372
4152.7222741697	0.0182342399
4154.6510815428	0.0182383377
4156.5798889158	0.0181355439
4158.5086962889	0.0181672461
4160.4375036619	0.0181562006
4162.3663110350	0.0179949068
4164.2951184080	0.0180601440
4166.2239257811	0.0180306565
4168.1527331541	0.0179342143
4170.0815405272	0.0177924223
4172.0103479002	0.0178614147
4173.9391552733	0.0178203136
4175.8679626463	0.0176790655
4177.7967700194	0.0177453384
4179.7255773924	0.0176488012
4181.6543847654	0.0176574439
4183.5831921385	0.0176576488
4185.5119995115	0.0176264625
4187.4408068846	0.0176136494
4189.3696142576	0.0175473131
4191.2984216307	0.0174976178
4193.2272290037	0.0175260492
4195.1560363768	0.0174641982
4197.0848437498	0.0173150934
4199.0136511229	0.0173432976
4200.9424584959	0.0172576159
4202.8712658690	0.0173367746
4204.8000732420	0.0172558688
4206.7288806151	0.0171634350
4208.6576879881	0.0171913020
4210.5864953611	0.0169916861
4212.5153027342	0.0170998350
4214.4441101072	0.0169685818
4216.3729174803	0.0169031341
4218.3017248533	0.0168849677
4220.2305322264	0.0168785229
4222.1593395994	0.0169714838
4224.0881469725	0.0167196132
4226.0169543455	0.0168914199
4227.9457617186	0.0168586783
4229.8745690916	0.0166827496
4231.8033764647	0.0166622493
4233.7321838377	0.0166024640
4235.6609912108	0.0166388694
4237.5897985838	0.0165492706
4239.5186059569	0.0166328587
4241.4474133299	0.0164846182
4243.3762207029	0.0164605062
4245.3050280760	0.0164516363
4247.2338354490	0.0163435936
4249.1626428221	0.0164495502
4251.0914501951	0.0162672754
4253.0202575682	0.0162865669
4254.9490649412	0.0162939709
4256.8778723143	0.0161747355
4258.8066796873	0.0161661468
4260.7354870604	0.0161595382
4262.6642944334	0.0161472745
4264.5931018065	0.0160575211
4266.5219091795	0.0160160232
4268.4507165526	0.0160126984
4270.3795239256	0.0160344653
4272.3083312986	0.0158925094
4274.2371386717	0.0159204323
4276.1659460447	0.0159236714
4278.0947534178	0.0157936066
4280.0235607908	0.0158125442
4281.9523681639	0.0156956669
4283.8811755369	0.0157054849
4285.8099829100	0.0157143287
4287.7387902830	0.0156974141
4289.6675976561	0.0156307761
4291.5964050291	0.0155503703
4293.5252124022	0.0155822579
4295.4540197752	0.0155619793
4297.3828271483	0.0155555923
4299.3116345213	0.0154394237
4301.2404418943	0.0154443905
4303.1692492674	0.0154093318
4305.0980566404	0.0153465904
4307.0268640135	0.0153371375
4308.9556713865	0.0152815711
4310.8844787596	0.0152831059
4312.8132861326	0.0151237315
4314.7420935057	0.0151444674
4316.6709008787	0.0151997674
4318.5997082518	0.0150752626
4320.5285156248	0.0150359562
4322.4573229979	0.0151219703
4324.3861303709	0.0151204225
4326.3149377440	0.0150068616
4328.2437451170	0.0149424989
4330.1725524900	0.0148235895
4332.1013598631	0.0148648061
4334.0301672361	0.0148390755
4335.9589746092	0.0148263313
4337.8877819822	0.0147985891
4339.8165893553	0.0146839181
4341.7453967283	0.0147754252
4343.6742041014	0.0146745760
4345.6030114744	0.0146142170
4347.5318188475	0.0145591218
4349.4606262205	0.0145299807
4351.3894335936	0.0145930992
4353.3182409666	0.0145704616
4355.2470483397	0.0145640876
4357.1758557127	0.0143954344
4359.1046630858	0.0143686756
4361.0334704588	0.0143796075
4362.9622778318	0.0143851023
4364.8910852049	0.0142963929
4366.8198925779	0.0141396224
4368.7486999510	0.0142794466
4370.6775073240	0.0143077914
4372.6063146971	0.0142137315
4374.5351220701	0.0141902696
4376.4639294432	0.0142232180
4378.3927368162	0.0141041521
4380.3215441893	0.0140673881
4382.2503515623	0.0140953753
4384.1791589354	0.0139024239
4386.1079663084	0.0139069408
4388.0367736815	0.0139378756
4389.9655810545	0.0138486773
4391.8943884275	0.0138029661
4393.8231958006	0.0139221363
4395.7520031736	0.0138937756
4397.6808105467	0.0137881208
4399.6096179197	0.0137906438
4401.5384252928	0.0136455707
4403.4672326658	0.0137609821
4405.3960400389	0.0136948694
4407.3248474119	0.0135101322
4409.2536547850	0.0135734184
4411.1824621580	0.0135145839
4413.1112695311	0.0135049289
4415.0400769041	0.0134733338
4416.9688842772	0.0134594021
4418.8976916502	0.0134134274
4420.8264990232	0.0133697335
4422.7553063963	0.0133688981
4424.6841137693	0.0133097917
4426.6129211424	0.0132886078
4428.5417285154	0.0132852569
4430.4705358885	0.0132695772
4432.3993432615	0.0131763369
4434.3281506346	0.0132100657
4436.2569580076	0.0131842494
4438.1857653807	0.0131268892
4440.1145727537	0.0131145492
4442.0433801268	0.0130104180
4443.9721874998	0.0130316000
4445.9009948729	0.0129889250
4447.8298022459	0.0129653094
4449.7586096189	0.0129198488
4451.6874169920	0.0128921624
4453.6162243650	0.0129122045
4455.5450317381	0.0128084533
4457.4738391111	0.0128241815
4459.4026464842	0.0127701778
4461.3314538572	0.0127075594
4463.2602612303	0.0127186235
4465.1890686033	0.0127032315
4467.1178759764	0.0126779843
4469.0466833494	0.0126717770
4470.9754907225	0.0127122458
4472.9042980955	0.0125734443
4474.8331054686	0.0125223342
4476.7619128416	0.0125729125
4478.6907202147	0.0124703906
4480.6195275877	0.0124209132
4482.5483349607	0.0124262301
4484.4771423338	0.0123775005
4486.4059497068	0.0123943593
4488.3347570799	0.0124064945
4490.2635644529	0.0122716576
4492.1923718260	0.0122530144
4494.1211791990	0.0122684948
4496.0499865721	0.0122343972
4497.9787939451	0.0122608412
4499.9076013182	0.0122099947
4501.8364086912	0.0121713299
4503.7652160643	0.0121361492
4505.6940234373	0.0120815542
4507.6228308104	0.0120448004
4509.5516381834	0.0120336339
4511.4804455564	0.0120247090
4513.4092529295	0.0119661782
4515.3380603025	0.0119576687
4517.2668676756	0.0118673248
4519.1956750486	0.0118312472
4521.1244824217	0.0119073736
4523.0532897947	0.0117835831
4524.9820971678	0.0117690302
4526.9109045408	0.0118355397
4528.8397119139	0.0117357103
4530.7685192869	0.0117230238
4532.6973266600	0.0117246835
4534.6261340330	0.0117415171
4536.5549414061	0.0117130913
4538.4837487791	0.0115887187
4540.4125561521	0.0116109457
4542.3413635252	0.0116161937
4544.2701708982	0.0115814153
4546.1989782713	0.0115355831
4548.1277856443	0.0114315767
4550.0565930174	0.0114371255
4551.9854003904	0.0114165545
4553.9142077635	0.0113423374
4555.8430151365	0.0113879954
4557.7718225096	0.0113815116
4559.7006298826	0.0113098007
4561.6294372557	0.0113370847
4563.5582446287	0.0112751210
4565.4870520018	0.0112349633
4567.4158593748	0.0112748295
4569.3446667478	0.0111376569
4571.2734741209	0.0110933082
4573.2022814939	0.0111258011
4575.1310888670	0.0110340100
4577.0598962400	0.0110273678
4578.9887036131	0.0110601820
4580.9175109861	0.0110267522
4582.8463183592	0.0110003985
4584.7751257322	0.0110190511
4586.7039331053	0.0109618660
4588.6327404783	0.0108680576
4590.5615478514	0.0108835343
4592.4903552244	0.0107881241
4594.4191625975	0.0107736038
4596.3479699705	0.0108687272
4598.2767773435	0.0107448315
4600.2055847166	0.0107511003
4602.1343920896	0.0107075293
4604.0631994627	0.0106288008
4605.9920068357	0.0106976433
4607.9208142088	0.0105770715
4609.8496215818	0.0106305778
4611.7784289549	0.0106423879
4613.7072363279	0.0105028767
4615.6360437010	0.0104913432
4617.5648510740	0.0104974462
4619.4936584471	0.0105650239
4621.4224658201	0.0103901867
4623.3512731932	0.0103419628
4625.2800805662	0.0104612894
4627.2088879393	0.0103279818
4629.1376953123	0.0103311539
4631.0665026853	0.0103286989
4632.9953100584	0.0103054103
4634.9241174314	0.0103775980
4636.8529248045	0.0102327662
4638.7817321775	0.0102404803
4640.7105395506	0.0103529766
4642.6393469236	0.0101648476
4644.5681542967	0.0101577658
4646.4969616697	0.0101520978
4648.4257690428	0.0100961393
4650.3545764158	0.0101687089
4652.2833837889	0.0100400317
4654.2121911619	0.0100554209
4656.1409985350	0.0099905385
4658.0698059080	0.0099628260
4659.9986132810	0.0100596193
4661.9274206541	0.0098827379
4663.8562280271	0.0098677184
4665.7850354002	0.0098597985
4667.7138427732	0.0098479772
4669.6426501463	0.0098642986
4671.5714575193	0.0098367156
4673.5002648924	0.0098458230
4675.4290722654	0.0098172640
4677.3578796385	0.0097848177
4679.2866870115	0.0097010322
4681.2154943846	0.0097573884
4683.1443017576	0.0096444460
4685.0731091307	0.0096022002
4687.0019165037	0.0096881045
4688.9307238767	0.0095584393
4690.8595312498	0.0096281255
4692.7883386228	0.0095302053
4694.7171459959	0.0094399210
4696.6459533689	0.0095348312
4698.5747607420	0.0094591128
4700.5035681150	0.0094140610
4702.4323754881	0.0094553661
4704.3611828611	0.0095364358
4706.2899902342	0.0094254939
4708.2187976072	0.0093114357
4710.1476049803	0.0094105732
4712.0764123533	0.0093729356
4714.0052197264	0.0092893727
4715.9340270994	0.0093612894
4717.8628344724	0.0093077403
4719.7916418455	0.0092438273
4721.7204492185	0.0092567978
4723.6492565916	0.0092450716
4725.5780639646	0.0092460737
4727.5068713377	0.0091479477
4729.4356787107	0.0091647878
4731.3644860838	0.0091008861
4733.2932934568	0.0090522375
4735.2221008299	0.0090854596
4737.1509082029	0.0090360874
4739.0797155760	0.0091199372
4741.0085229490	0.0090549644
4742.9373303221	0.0090392120
4744.8661376951	0.0089538675
4746.7949450682	0.0089434888
4748.7237524412	0.0089554638
4750.6525598142	0.0087779965
4752.5813671873	0.0089393286
4754.5101745603	0.0088403430
4756.4389819334	0.0088100825
4758.3677893064	0.0089200642
4760.2965966795	0.0087891519
4762.2254040525	0.0087600108
4764.1542114256	0.0087233083
4766.0830187986	0.0087436941
4768.0118261717	0.0086377095
4769.9406335447	0.0086783450
4771.8694409178	0.0086918352
4773.7982482908	0.0086527187
4775.7270556639	0.0087014586
4777.6558630369	0.0085662100
4779.5846704099	0.0085975472
4781.5134777830	0.0085808532
4783.4422851560	0.0085960887
4785.3710925291	0.0085444814
4787.2998999021	0.0084156953
4789.2287072752	0.0084308386
4791.1575146482	0.0084323287
4793.0863220213	0.0084285764
4795.0151293943	0.0083871316
4796.9439367674	0.0084496122
4798.8727441404	0.0083500613
4800.8015515135	0.0084022479
4802.7303588865	0.0084218374
4804.6591662596	0.0082659135
4806.5879736326	0.0083415313
4808.5167810056	0.0082866969
4810.4455883787	0.0083415285
4812.3743957517	0.0082806628
4814.3032031248	0.0082008783
4816.2320104978	0.0082071517
4818.1608178709	0.0081581771
4820.0896252439	0.0082550962
4822.0184326170	0.0082189962
4823.9472399900	0.0081841368
4825.8760473631	0.0080770766
4827.8048547361	0.0080842227
4829.7336621092	0.0081560872
4831.6624694822	0.0081050210
4833.5912768553	0.0080070030
4835.5200842283	0.0079713650
4837.4488916013	0.0080927387
4839.3776989744	0.0079713352
4841.3065063474	0.0079606920
4843.2353137205	0.0079392735
4845.1641210935	0.0079307295
4847.0929284666	0.0079722181
4849.0217358396	0.0077749938
4850.9505432127	0.0077572940
4852.8793505857	0.0078048166
4854.8081579588	0.0078430604
4856.7369653318	0.0076947464
4858.6657727049	0.0077248458
4860.5945800779	0.0078071151
4862.5233874510	0.0077240071
4864.4521948240	0.0077791130
4866.3810021971	0.0076280758
4868.3098095701	0.0077286670
4870.2386169431	0.0077136056
4872.1674243162	0.0076124426
4874.0962316892	0.0076651042
4876.0250390623	0.0075421212
4877.9538464353	0.0076119322
4879.8826538084	0.0075338408
4881.8114611814	0.0075004534
4883.7402685545	0.0075024115
4885.6690759275	0.0074649421
4887.5978833006	0.0075160339
4889.5266906736	0.0074790847
4891.4554980467	0.0074981656
4893.3843054197	0.0074251820
4895.3131127928	0.0074414080
4897.2419201658	0.0074122655
4899.1707275388	0.0074057709
4901.0995349119	0.0074762302
4903.0283422849	0.0073767891
4904.9571496580	0.0073480313
4906.8859570310	0.0073019541
4908.8147644041	0.0072580511
4910.7435717771	0.0072049256
4912.6723791502	0.0071988367
4914.6011865232	0.0072337575
4916.5299938963	0.0071902052
4918.4588012693	0.0071293707
4920.3876086424	0.0071084984
4922.3164160154	0.0072056642
4924.2452233885	0.0072211865
4926.1740307615	0.0071461936
4928.1028381345	0.0071034152
4930.0316455076	0.0070939064
4931.9604528806	0.0070228921
4933.8892602537	0.0070396974
4935.8180676267	0.0070101973
4937.7468749998	0.0069193291
4939.6756823728	0.0070729489
4941.6044897459	0.0069689485
4943.5332971189	0.0069163442
4945.4621044920	0.0070352331
4947.3909118650	0.0069509167
4949.3197192381	0.0069048721
4951.2485266111	0.0069048582
4953.1773339842	0.0069428207
4955.1061413572	0.0067678541
4957.0349487302	0.0067370962
4958.9637561033	0.0068249824
4960.8925634763	0.0067382883
4962.8213708494	0.0067657446
4964.7501782224	0.0067123352
4966.6789855955	0.0067759133
4968.6077929685	0.0067889579
4970.5366003416	0.0066929227
4972.4654077146	0.0066851717
4974.3942150877	0.0066433968
4976.3230224607	0.0067078993
4978.2518298338	0.0066372082
4980.1806372068	0.0065932050
4982.1094445799	0.0066234977
4984.0382519529	0.0066052284
4985.9670593259	0.0066236481
4987.8958666990	0.0065245158
4989.8246740720	0.0065298122
4991.7534814451	0.0065544802
4993.6822888181	0.0065213731
4995.6110961912	0.0065107541
4997.5399035642	0.0064735371
4999.4687109373	0.0065307505
5001.3975183103	0.0065147104
5003.3263256834	0.0064577274
5005.2551330564	0.0064243749
5007.1839404295	0.0063541234
5009.1127478025	0.0063748155
5011.0415551756	0.0063188374
5012.9703625486	0.0062944740
5014.8991699217	0.0064288685
5016.8279772947	0.0063648093
5018.7567846677	0.0062416764
5020.6855920408	0.0062333150
5022.6143994138	0.0062812585
5024.5432067869	0.0063140597
5026.4720141599	0.0062021054
5028.4008215330	0.0062270034
5030.3296289060	0.0062298183
5032.2584362791	0.0061528469
5034.1872436521	0.0062256162
5036.1160510252	0.0061502764
5038.0448583982	0.0061111590
5039.9736657713	0.0061763804
5041.9024731443	0.0061579398
5043.8312805174	0.0060865926
5045.7600878904	0.0060502635
5047.6888952634	0.0060625495
5049.6177026365	0.0059856465
5051.5465100095	0.0060285795
5053.4753173826	0.0060140728
5055.4041247556	0.0059825024
5057.3329321287	0.0060065947
5059.2617395017	0.0058802087
5061.1905468748	0.0059400168
5063.1193542478	0.0059754546
5065.0481616209	0.0059201531
5066.9769689939	0.0058772168
5068.9057763670	0.0059050471
5070.8345837400	0.0059706671
5072.7633911131	0.0058424715
5074.6921984861	0.0058348496
5076.6210058591	0.0058325785
5078.5498132322	0.0058683800
5080.4786206052	0.0058336360
5082.4074279783	0.0057413410
5084.3362353513	0.0058152084
5086.2650427244	0.0056834817
5088.1938500974	0.0057135187
5090.1226574705	0.0057668108
5092.0514648435	0.0056946268
5093.9802722166	0.0057063485
5095.9090795896	0.0057017631
5097.8378869627	0.0057443129
5099.7666943357	0.0056012110
5101.6955017088	0.0056028361
5103.6243090818	0.0057108370
5105.5531164548	0.0056321379
5107.4819238279	0.0056025498
5109.4107312009	0.0056060562
5111.3395385740	0.0055634836
5113.2683459470	0.0055578081
5115.1971533201	0.0055637378
5117.1259606931	0.0054506031
5119.0547680662	0.0055406773
5120.9835754392	0.0055368263
5122.9123828123	0.0054431781
5124.8411901853	0.0054948237
5126.7699975584	0.0053627826
5128.6988049314	0.0054093422
5130.6276123045	0.0054293843
5132.5564196775	0.0054018274
5134.4852270506	0.0054616705
5136.4140344236	0.0053855898
5138.3428417966	0.0053777406
5140.2716491697	0.0053932513
5142.2004565427	0.0053591570
5144.1292639158	0.0053191325
5146.0580712888	0.0054002358
5147.9868786619	0.0053186836
5149.9156860349	0.0052161952
5151.8444934080	0.0052450863
5153.7733007810	0.0052087344
5155.7021081541	0.0052397968
5157.6309155271	0.0051332521
5159.5597229002	0.0052132970
5161.4885302732	0.0052414313
5163.4173376463	0.0051461235
5165.3461450193	0.0052300878
5167.2749523923	0.0051123472
5169.2037597654	0.0051594060
5171.1325671384	0.0051999083
5173.0613745115	0.0051170480
5174.9901818845	0.0051140473
5176.9189892576	0.0050867498
5178.8477966306	0.0050939610
5180.7766040037	0.0050039329
5182.7054113767	0.0050204750
5184.6342187498	0.0050747674
5186.5630261228	0.0050751776
5188.4918334959	0.0050352141
5190.4206408689	0.0049385326
5192.3494482420	0.0050156154
5194.2782556150	0.0050217938
5196.2070629880	0.0049285572
5198.1358703611	0.0049564196
5200.0646777341	0.0049376348
5201.9934851072	0.0049175117
5203.9222924802	0.0049078753
5205.8510998533	0.0047932388
5207.7799072263	0.0048327451
5209.7087145994	0.0048582759
5211.6375219724	0.0048322091
5213.5663293455	0.0049204300
5215.4951367185	0.0048708208
5217.4239440916	0.0048679197
5219.3527514646	0.0048387498
5221.2815588377	0.0048083584
5223.2103662107	0.0048692152
5225.1391735837	0.0047868467
5227.0679809568	0.0047747153
5228.9967883298	0.0047865263
5230.9255957029	0.0047572786
5232.8544030759	0.0047182562
5234.7832104490	0.0047236206
5236.7120178220	0.0048118895
5238.6408251951	0.0047605522
5240.5696325681	0.0047357548
5242.4984399412	0.0047379127
5244.4272473142	0.0046041440
5246.3560546873	0.0045595961
5248.2848620603	0.0045624808
5250.2136694334	0.0046098558
5252.1424768064	0.0046945605
5254.0712841795	0.0045355358
5256.0000915525	0.0045008082
5257.9288989255	0.0046501374
5259.8577062986	0.0046205758
5261.7865136716	0.0045507643
5263.7153210447	0.0045182435
5265.6441284177	0.0045463010
5267.5729357908	0.0045147119
5269.5017431638	0.0045319712
5271.4305505369	0.0045718616
5273.3593579099	0.0044858204
5275.2881652830	0.0044857590
5277.2169726560	0.0044416301
5279.1457800291	0.0043886625
5281.0745874021	0.0044508968
5283.0033947752	0.0044776155
5284.9322021482	0.0043760510
5286.8610095212	0.0043737032
5288.7898168943	0.0044312919
5290.7186242673	0.0043450529
5292.6474316404	0.0043224869
5294.5762390134	0.0043699434
5296.5050463865	0.0044163521
5298.4338537595	0.0043093152
5300.3626611326	0.0043274416
5302.2914685056	0.0043812906
5304.2202758787	0.0042833802
5306.1490832517	0.0043578632
5308.0778906248	0.0042563770
5310.0066979978	0.0042642253
5311.9355053709	0.0043191882
5313.8643127439	0.0042331172
5315.7931201169	0.0042597875
5317.7219274900	0.0042293957
5319.6507348630	0.0043050870
5321.5795422361	0.0042280955
5323.5083496091	0.0042255092
5325.4371569822	0.0042561758
5327.3659643552	0.0040814653
5329.2947717283	0.0041410411
5331.2235791013	0.0041502719
5333.1523864744	0.0041164774
5335.0811938474	0.0042097420
5337.0100012205	0.0041707177
5338.9388085935	0.0039537610
5340.8676159666	0.0040604332
5342.7964233396	0.0041459082
5344.7252307126	0.0039358232
5346.6540380857	0.0040482460
5348.5828454587	0.0040480141
5350.5116528318	0.0040648906
5352.4404602048	0.0040723877
5354.3692675779	0.0039557554
5356.2980749509	0.0041117510
5358.2268823240	0.0040316517
5360.1556896970	0.0040137926
5362.0844970701	0.0040567014
5364.0133044431	0.0039603780
5365.9421118162	0.0040237252
5367.8709191892	0.0039724289
5369.7997265623	0.0039617429
5371.7285339353	0.0040023164
5373.6573413083	0.0039325063
5375.5861486814	0.0038790533
5377.5149560544	0.0038924110
5379.4437634275	0.0039319256
5381.3725708005	0.0039025960
5383.3013781736	0.0038792090
5385.2301855466	0.0037977197
5387.1589929197	0.0037821659
5389.0878002927	0.0038945237
5391.0166076658	0.0038127773
5392.9454150388	0.0037685926
5394.8742224119	0.0038467299
5396.8030297849	0.0038294096
5398.7318371580	0.0038384367
5400.6606445310	0.0038292408
5402.5894519041	0.0037859932
5404.5182592771	0.0037726033
5406.4470666501	0.0038341517
5408.3758740232	0.0038106591
5410.3046813962	0.0036860083
5412.2334887693	0.0036745281
5414.1622961423	0.0036429032
5416.0911035154	0.0036649385
5418.0199108884	0.0036394929
5419.9487182615	0.0036301990
5421.8775256345	0.0037161834
5423.8063330076	0.0036670784
5425.7351403806	0.0037241215
5427.6639477537	0.0036550020
5429.5927551267	0.0035458519
5431.5215624998	0.0036284053
5433.4503698728	0.0035522277
5435.3791772458	0.0034993510
5437.3079846189	0.0035814338
5439.2367919919	0.0035829702
5441.1655993650	0.0034874345
5443.0944067380	0.0035094256
5445.0232141111	0.0035308385
5446.9520214841	0.0035019484
5448.8808288572	0.0035350965
5450.8096362302	0.0034742267
5452.7384436033	0.0034703952
5454.6672509763	0.0034838342
5456.5960583494	0.0035014835
5458.5248657224	0.0035633093
5460.4536730955	0.0035096467
5462.3824804685	0.0034875905
5464.3112878415	0.0034492714
5466.2400952146	0.0034092991
5468.1689025876	0.0034404742
5470.0977099607	0.0033739731
5472.0265173337	0.0034051589
5473.9553247068	0.0034267760
5475.8841320798	0.0032760850
5477.8129394529	0.0033952408
5479.7417468259	0.0035038982
5481.6705541990	0.0033728967
5483.5993615720	0.0033128448
5485.5281689451	0.0033044557
5487.4569763181	0.0033475314
5489.3857836912	0.0032907780
5491.3145910642	0.0032775090
5493.2433984372	0.0033236481
5495.1722058103	0.0032861945
5497.1010131833	0.0033113754
5499.0298205564	0.0033120664
5500.9586279294	0.0033102217
5502.8874353025	0.0032732792
5504.8162426755	0.0033026966
5506.7450500486	0.0032416228
5508.6738574216	0.0031496878
5510.6026647947	0.0033238237
5512.5314721677	0.0032915049
5514.4602795408	0.0032296162
5516.3890869138	0.0032561999
5518.3178942869	0.0031886117
5520.2467016599	0.0032157567
5522.1755090330	0.0032194713
5524.1043164060	0.0032087313
5526.0331237790	0.0031827572
5527.9619311521	0.0031302101
5529.8907385251	0.0031567635
5531.8195458982	0.0032300346
5533.7483532712	0.0031884443
5535.6771606443	0.0031340253
5537.6059680173	0.0031466240
5539.5347753904	0.0031316034
5541.4635827634	0.0031511388
5543.3923901365	0.0030871520
5545.3211975095	0.0031347750
5547.2500048826	0.0031368448
5549.1788122556	0.0030055377
5551.1076196287	0.0031211311
5553.0364270017	0.0030802728
5554.9652343747	0.0030198512
5556.8940417478	0.0030833702
5558.8228491208	0.0030709663
5560.7516564939	0.0031328034
5562.6804638669	0.0030252310
5564.6092712400	0.0029664123
5566.5380786130	0.0030270349
5568.4668859861	0.0029851799
5570.3956933591	0.0029823901
5572.3245007322	0.0029530786
5574.2533081052	0.0030123615
5576.1821154783	0.0030413913
5578.1109228513	0.0029342454
5580.0397302244	0.0029512192
5581.9685375974	0.0030091261
5583.8973449704	0.0029837298
5585.8261523435	0.0029489512
5587.7549597165	0.0029636179
5589.6837670896	0.0029196911
5591.6125744626	0.0029067339
5593.5413818357	0.0029116375
5595.4701892087	0.0028582953
5597.3989965818	0.0028945417
5599.3278039548	0.0028823912
5601.2566113279	0.0029221275
5603.1854187009	0.0029217647
5605.1142260740	0.0028519435
5607.0430334470	0.0029068450
5608.9718408201	0.0028494790
5610.9006481931	0.0028255244
5612.8294555661	0.0027975538
5614.7582629392	0.0027778475
5616.6870703122	0.0028128643
5618.6158776853	0.0027442623
5620.5446850583	0.0027957207
5622.4734924314	0.0028374905
5624.4022998044	0.0028353925
5626.3311071775	0.0027777106
5628.2599145505	0.0027213953
5630.1887219236	0.0027433019
5632.1175292966	0.0027141008
5634.0463366697	0.0027771778
5635.9751440427	0.0027201385
5637.9039514158	0.0027284280
5639.8327587888	0.0028113001
5641.7615661619	0.0026848866
5643.6903735349	0.0027318280
5645.6191809079	0.0027567088
5647.5479882810	0.0026817075
5649.4767956540	0.0026809869
5651.4056030271	0.0026456278
5653.3344104001	0.0026455326
5655.2632177732	0.0026261895
5657.1920251462	0.0026394997
5659.1208325193	0.0026604501
5661.0496398923	0.0026443908
5662.9784472654	0.0026836288
5664.9072546384	0.0026915863
5666.8360620115	0.0026429826
5668.7648693845	0.0025816378
5670.6936767576	0.0026099775
5672.6224841306	0.0026372606
5674.5512915036	0.0025930540
5676.4800988767	0.0025763302
5678.4089062497	0.0025314437
5680.3377136228	0.0025751009
5682.2665209958	0.0025844437
5684.1953283689	0.0025512064
5686.1241357419	0.0025902619
5688.0529431150	0.0024626213
5689.9817504880	0.0024732491
5691.9105578611	0.0026002186
5693.8393652341	0.0025596330
5695.7681726072	0.0025443470
5697.6969799802	0.0025299457
5699.6257873533	0.0025065239
5701.5545947263	0.0024525286
5703.4834020993	0.0024505211
5705.4122094724	0.0024935941
5707.3410168454	0.0024479574
5709.2698242185	0.0024629955
5711.1986315915	0.0024583237
5713.1274389646	0.0024243165
5715.0562463376	0.0024598495
5716.9850537107	0.0024351224
5718.9138610837	0.0024382230
5720.8426684568	0.0024485057
5722.7714758298	0.0023894846
5724.7002832029	0.0024743727
5726.6290905759	0.0024735441
5728.5578979490	0.0023355610
5730.4867053220	0.0023487741
5732.4155126950	0.0023807026
5734.3443200681	0.0024261414
5736.2731274411	0.0024053319
5738.2019348142	0.0023181504
5740.1307421872	0.0023106798
5742.0595495603	0.0023200293
5743.9883569333	0.0023302028
5745.9171643064	0.0023261625
5747.8459716794	0.0023071463
5749.7747790525	0.0022384077
5751.7035864255	0.0022452627
5753.6323937986	0.0022997623
5755.5612011716	0.0023021856
5757.4900085447	0.0022603129
5759.4188159177	0.0022428124
5761.3476232907	0.0023178020
5763.2764306638	0.0022504996
5765.2052380368	0.0022431882
5767.1340454099	0.0022721414
5769.0628527829	0.0022510760
5770.9916601560	0.0023155923
5772.9204675290	0.0022495668
5774.8492749021	0.0022510844
5776.7780822751	0.0022663467
5778.7068896482	0.0022311984
5780.6356970212	0.0022607031
5782.5645043943	0.0022537499
5784.4933117673	0.0022135396
5786.4221191404	0.0021585287
5788.3509265134	0.0021834918
5790.2797338865	0.0021554732
5792.2085412595	0.0021314304
5794.1373486325	0.0022082659
5796.0661560056	0.0022315078
5797.9949633786	0.0021658689
5799.9237707517	0.0021611077
5801.8525781247	0.0021936879
5803.7813854978	0.0021102868
5805.7101928708	0.0021010675
5807.6390002439	0.0021210215
5809.5678076169	0.0021807745
5811.4966149900	0.0021777120
5813.4254223630	0.0020973308
5815.3542297361	0.0021321662
5817.2830371091	0.0021107667
5819.2118444822	0.0021585268
5821.1406518552	0.0021069921
5823.0694592282	0.0020359119
5824.9982666013	0.0020880650
5826.9270739743	0.0020406172
5828.8558813474	0.0020608930
5830.7846887204	0.0020331861
5832.7134960935	0.0020101839
5834.6423034665	0.0020129005
5836.5711108396	0.0019776179
5838.4999182126	0.0020576930
5840.4287255857	0.0020675072
5842.3575329587	0.0019908738
5844.2863403318	0.0020164174
5846.2151477048	0.0019836472
5848.1439550779	0.0018847632
5850.0727624509	0.0019624396
5852.0015698239	0.0020064421
5853.9303771970	0.0019657821
5855.8591845700	0.0019752830
5857.7879919431	0.0019914364
5859.7167993161	0.0019225108
5861.6456066892	0.0019129405
5863.5744140622	0.0019936610
5865.5032214353	0.0018954088
5867.4320288083	0.0019456993
5869.3608361814	0.0019555199
5871.2896435544	0.0019013806
5873.2184509275	0.0019499008
5875.1472583005	0.0018578700
5877.0760656736	0.0019426937
5879.0048730466	0.0019021931
5880.9336804196	0.0018566131
5882.8624877927	0.0019125349
5884.7912951657	0.0018702151
5886.7201025388	0.0019492938
5888.6489099118	0.0018556523
5890.5777172849	0.0018268730
5892.5065246579	0.0018739855
5894.4353320310	0.0018229831
5896.3641394040	0.0018034799
5898.2929467771	0.0018217611
5900.2217541501	0.0018644263
5902.1505615232	0.0018279674
5904.0793688962	0.0018410794
5906.0081762693	0.0017970728
5907.9369836423	0.0017666800
5909.8657910154	0.0017635541
5911.7945983884	0.0017917543
5913.7234057614	0.0018342291
5915.6522131345	0.0018038626
5917.5810205075	0.0018537748
5919.5098278806	0.0017047853
5921.4386352536	0.0016761646
5923.3674426267	0.0017645215
5925.2962499997	0.0017104987
5927.2250573728	0.0017555496
5929.1538647458	0.0017078307
5931.0826721189	0.0017235704
5933.0114794919	0.0017586064
5934.9402868650	0.0017562772
5936.8690942380	0.0017820025
5938.7979016111	0.0017234443
5940.7267089841	0.0017425620
5942.6555163571	0.0017601580
5944.5843237302	0.0016916906
5946.5131311032	0.0016687142
5948.4419384763	0.0017297389
5950.3707458493	0.0016948439
5952.2995532224	0.0016583697
5954.2283605954	0.0017111079
5956.1571679685	0.0017392146
5958.0859753415	0.0017088181
5960.0147827146	0.0016281784
5961.9435900876	0.0016805038
5963.8723974607	0.0016685801
5965.8012048337	0.0016307872
5967.7300122068	0.0016564485
5969.6588195798	0.0016091506
5971.5876269528	0.0016524579
5973.5164343259	0.0016266259
5975.4452416989	0.0016275947
5977.3740490720	0.0016634669
5979.3028564450	0.0016260955
5981.2316638181	0.0017005478
5983.1604711911	0.0016822354
5985.0892785642	0.0016154048
5987.0180859372	0.0015789204
5988.9468933103	0.0015587630
5990.8757006833	0.0016182953
5992.8045080564	0.0015964261
5994.7333154294	0.0015980197
5996.6621228025	0.0015841180
5998.5909301755	0.0014880605
6000.5197375485	0.0015247464
