399.2631262207	0.0007795420
401.1919335938	0.0015540719
403.1207409668	0.0014577950
405.0495483398	0.0008317325
406.9783557129	0.0012103238
408.9071630859	0.0010005052
410.8359704590	0.0017204732
412.7647778320	0.0017723918
414.6935852051	0.0012400995
416.6223925781	0.0016617444
418.5511999512	0.0010336110
420.4800073242	0.0010585508
422.4088146973	0.0014567776
424.3376220703	0.0013657345
426.2664294434	0.0015157255
428.1952368164	0.0010955695
430.1240441895	0.0014027851
432.0528515625	0.0018968915
433.9816589355	0.0016360984
435.9104663086	0.0013312224
437.8392736816	0.0012203210
439.7680810547	0.0012307996
441.6968884277	0.0012351647
443.6256958008	0.0014783768
445.5545031738	0.0011188966
447.4833105469	0.0007353787
449.4121179199	0.0010246695
451.3409252930	0.0016588857
453.2697326660	0.0014935459
455.1985400391	0.0007784799
457.1273474121	0.0014218658
459.0561547852	0.0010395213
460.9849621582	0.0003365814
462.9137695313	0.0007811299
464.8425769043	0.0005450859
466.7713842773	0.0004646822
468.7001916504	0.0005536141
470.6289990234	0.0006959039
472.5578063965	0.0004183541
474.4866137695	0.0002391239
476.4154211426	0.0006690355
478.3442285156	0.0006237060
480.2730358887	0.0007345568
482.2018432617	0.0005669713
484.1306506348	0.0002352781
486.0594580078	0.0002320216
487.9882653809	0.0002780440
489.9170727539	0.0004116555
491.8458801270	0.0004465669
493.7746875000	0.0003383822
495.7034948730	-0.0000693102
497.6323022461	0.0000719079
499.5611096191	0.0002832967
501.4899169922	0.0001112995
503.4187243652	0.0003182018
505.3475317383	0.0003056239
507.2763391113	0.0001917921
509.2051464844	0.0000938798
511.1339538574	0.0000077646
513.0627612305	0.0001172022
514.9915686035	0.0002433005
516.9203759766	0.0002796435
518.8491833496	0.0000838424
520.7779907227	0.0002203172
522.7067980957	0.0005147518
524.6356054688	0.0004598467
526.5644128418	0.0001143275
528.4932202148	-0.0001691826
530.4220275879	0.0001412140
532.3508349609	0.0003663561
534.2796423340	0.0000178561
536.2084497070	-0.0000927078
538.1372570801	0.0004353011
540.0660644531	0.0004242850
541.9948718262	0.0001203057
543.9236791992	0.0004642716
545.8524865723	0.0002855664
547.7812939453	0.0001494553
549.7101013184	0.0005187942
551.6389086914	0.0005213486
553.5677160645	0.0002948384
555.4965234375	0.0001322592
557.4253308105	0.0002579046
559.3541381836	0.0000695192
561.2829455566	0.0000601627
563.2117529297	0.0002987942
565.1405603027	0.0001198030
567.0693676758	0.0000576668
568.9981750488	-0.0000175400
570.9269824219	0.0002233847
572.8557897949	0.0001338415
574.7845971680	-0.0000452257
576.7134045410	0.0004602602
578.6422119141	0.0003584461
580.5710192871	0.0004840275
582.4998266602	0.0004892274
584.4286340332	0.0000470695
586.3574414063	0.0002933862
588.2862487793	0.0003231685
590.2150561523	0.0004477063
592.1438635254	0.0004206455
594.0726708984	0.0002551698
596.0014782715	0.0001643728
597.9302856445	-0.0000134487
599.8590930176	0.0004332745
601.7879003906	0.0000193138
603.7167077637	-0.0000866094
605.6455151367	0.0004186576
607.5743225098	0.0000381592
609.5031298828	0.0001978629
611.4319372559	0.0001312644
613.3607446289	0.0001316923
615.2895520020	0.0005006460
617.2183593750	0.0003195299
619.1471667480	0.0002743743
621.0759741211	0.0002391086
623.0047814941	0.0001844493
624.9335888672	0.0001234229
626.8623962402	-0.0000042161
628.7912036133	-0.0000509727
630.7200109863	0.0002612264
632.6488183594	0.0009452562
634.5776257324	0.0010677723
636.5064331055	0.0009490627
638.4352404785	0.0013171097
640.3640478516	0.0013199297
642.2928552246	0.0011416789
644.2216625977	0.0017525523
646.1504699707	0.0018180646
648.0792773438	0.0016724542
650.0080847168	0.0019258042
651.9368920898	0.0018782854
653.8656994629	0.0020031803
655.7945068359	0.0020948346
657.7233142090	0.0021275585
659.6521215820	0.0021992745
661.5809289551	0.0025174809
663.5097363281	0.0028944882
665.4385437012	0.0026851825
667.3673510742	0.0024292083
669.2961584473	0.0027605528
671.2249658203	0.0030370685
673.1537731934	0.0028271950
675.0825805664	0.0029448965
677.0113879395	0.0031880196
678.9401953125	0.0033632263
680.8690026855	0.0034945859
682.7978100586	0.0035513656
684.7266174316	0.0033886980
686.6554248047	0.0032209917
688.5842321777	0.0037517068
690.5130395508	0.0037392098
692.4418469238	0.0036726340
694.3706542969	0.0040444518
696.2994616699	0.0044334913
698.2282690430	0.0053337696
700.1570764160	0.0057685161
702.0858837891	0.0058184024
704.0146911621	0.0054189661
705.9434985352	0.0047536436
707.8723059082	0.0040874258
709.8011132813	0.0030996641
711.7299206543	0.0023011598
713.6587280273	0.0012027451
715.5875354004	0.0007877747
717.5163427734	0.0006911043
719.4451501465	0.0001061982
721.3739575195	0.0005784724
723.3027648926	0.0005546047
725.2315722656	0.0000196784
727.1603796387	0.0003051274
729.0891870117	0.0000072165
731.0179943848	-0.0000404898
732.9468017578	0.0002731486
734.8756091309	0.0001442667
736.8044165039	0.0002882606
738.7332238770	0.0000624979
740.6620312500	-0.0000530708
742.5908386230	0.0000612064
744.5196459961	0.0000570171
746.4484533691	0.0001818701
748.3772607422	0.0001736871
750.3060681152	0.0001540780
752.2348754883	0.0000508850
754.1636828613	0.0002605248
756.0924902344	0.0002682150
758.0212976074	0.0000921032
759.9501049805	0.0005116920
761.8789123535	0.0004427525
763.8077197266	-0.0000374819
765.7365270996	0.0000450342
767.6653344727	0.0003434095
769.5941418457	0.0003698237
771.5229492188	0.0003463625
773.4517565918	0.0003023635
775.3805639648	0.0000035133
777.3093713379	0.0000981604
779.2381787109	0.0003379153
781.1669860840	0.0002762001
783.0957934570	0.0001981809
785.0246008301	0.0006524931
786.9534082031	0.0006933016
788.8822155762	0.0002013139
790.8110229492	0.0007034393
792.7398303223	0.0005986516
794.6686376953	0.0001352684
796.5974450684	0.0006247623
798.5262524414	0.0007816560
800.4550598145	0.0008165791
802.3838671875	0.0008925211
804.3126745605	0.0004399340
806.2414819336	0.0001264689
808.1702893066	0.0004248768
810.0990966797	0.0007299293
812.0279040527	0.0005603175
813.9567114258	0.0003430350
815.8855187988	0.0004222395
817.8143261719	0.0002539242
819.7431335449	0.0003431341
821.6719409180	0.0005931117
823.6007482910	0.0003545762
825.5295556641	0.0003395061
827.4583630371	0.0003026641
829.3871704102	0.0006653806
831.3159777832	0.0010877117
833.2447851563	0.0011453195
835.1735925293	0.0015186577
837.1023999023	0.0014721632
839.0312072754	0.0014318926
840.9600146484	0.0013496943
842.8888220215	0.0011887029
844.8176293945	0.0014694964
846.7464367676	0.0013698661
848.6752441406	0.0010259135
850.6040515137	0.0010427185
852.5328588867	0.0009974469
854.4616662598	0.0006999257
856.3904736328	0.0008638977
858.3192810059	0.0007827585
860.2480883789	0.0005206787
862.1768957520	0.0007746624
864.1057031250	0.0007091908
866.0345104980	0.0005461505
867.9633178711	0.0005216885
869.8921252441	0.0005459902
871.8209326172	0.0002507503
873.7497399902	0.0000215864
875.6785473633	0.0003163947
877.6073547363	0.0003425468
879.5361621094	0.0004169570
881.4649694824	0.0004376648
883.3937768555	0.0003402282
885.3225842285	0.0004268291
887.2513916016	0.0001826590
889.1801989746	0.0001877482
891.1090063477	0.0005172231
893.0378137207	0.0004074708
894.9666210938	0.0004451040
896.8954284668	0.0003603469
898.8242358398	0.0002031498
900.7530432129	0.0004148003
902.6818505859	0.0003300056
904.6106579590	0.0003852560
906.5394653320	0.0004618627
908.4682727051	0.0005320419
910.3970800781	0.0006816789
912.3258874512	0.0008598992
914.2546948242	0.0010169948
916.1835021973	0.0008953109
918.1123095703	0.0010801038
920.0411169434	0.0010562977
921.9699243164	0.0011092718
923.8987316895	0.0012562913
925.8275390625	0.0013862426
927.7563464355	0.0017469961
929.6851538086	0.0015970494
931.6139611816	0.0017354109
933.5427685547	0.0019264997
935.4715759277	0.0021454978
937.4003833008	0.0022098813
939.3291906738	0.0019767787
941.2579980469	0.0024477006
943.1868054199	0.0025618337
945.1156127930	0.0023886389
947.0444201660	0.0023808707
948.9732275391	0.0023127152
950.9020349121	0.0022702180
952.8308422852	0.0022626519
954.7596496582	0.0024370216
956.6884570313	0.0026525939
958.6172644043	0.0025534865
960.5460717773	0.0022529252
962.4748791504	0.0023308517
964.4036865234	0.0022359139
966.3324938965	0.0024425141
968.2613012695	0.0025528816
970.1901086426	0.0024913026
972.1189160156	0.0030867788
974.0477233887	0.0030345258
975.9765307617	0.0032351958
977.9053381348	0.0036039739
979.8341455078	0.0037695770
981.7629528809	0.0041518896
983.6917602539	0.0045014224
985.6205676270	0.0052490304
987.5493750000	0.0056202854
989.4781823730	0.0062939408
991.4069897461	0.0069333296
993.3357971191	0.0075075384
995.2646044922	0.0084421560
997.1934118652	0.0088051669
999.1222192383	0.0096808700
1001.0510266113	0.0106673054
1002.9798339844	0.0112458821
1004.9086413574	0.0118119959
1006.8374487305	0.0127068274
1008.7662561035	0.0136596300
1010.6950634766	0.0140676145
1012.6238708496	0.0147299021
1014.5526782227	0.0157883391
1016.4814855957	0.0169066265
1018.4102929688	0.0173974484
1020.3391003418	0.0181748867
1022.2679077148	0.0193463750
1024.1967150879	0.0199160986
1026.1255224609	0.0206927732
1028.0543298340	0.0211893544
1029.9831372070	0.0217701122
1031.9119445801	0.0225557834
1033.8407519531	0.0229110047
1035.7695593262	0.0232435465
1037.6983666992	0.0234567244
1039.6271740723	0.0235917997
1041.5559814453	0.0233655237
1043.4847888184	0.0232420303
1045.4135961914	0.0231031030
1047.3424035645	0.0226901434
1049.2712109375	0.0226956382
1051.2000183105	0.0222762208
1053.1288256836	0.0216392782
1055.0576330566	0.0212413333
1056.9864404297	0.0206413716
1058.9152478027	0.0203225985
1060.8440551758	0.0199727193
1062.7728625488	0.0191700719
1064.7016699219	0.0184642561
1066.6304772949	0.0178849734
1068.5592846680	0.0170978084
1070.4880920410	0.0164858177
1072.4168994141	0.0156976748
1074.3457067871	0.0148016922
1076.2745141602	0.0144760534
1078.2033215332	0.0136458017
1080.1321289062	0.0128487013
1082.0609362793	0.0123614809
1083.9897436523	0.0116299838
1085.9185510254	0.0113072656
1087.8473583984	0.0107076038
1089.7761657715	0.0101481751
1091.7049731445	0.0097745899
1093.6337805176	0.0094012981
1095.5625878906	0.0091285855
1097.4913952637	0.0088188108
1099.4202026367	0.0087301843
1101.3490100098	0.0083254408
1103.2778173828	0.0081986971
1105.2066247559	0.0078897541
1107.1354321289	0.0076485872
1109.0642395019	0.0078890845
1110.9930468750	0.0075460216
1112.9218542480	0.0073947841
1114.8506616211	0.0073211752
1116.7794689941	0.0074021430
1118.7082763672	0.0072567919
1120.6370837402	0.0072710868
1122.5658911133	0.0075690886
1124.4946984863	0.0074543003
1126.4235058594	0.0079280809
1128.3523132324	0.0078109838
1130.2811206055	0.0078117009
1132.2099279785	0.0082920855
1134.1387353516	0.0084905224
1136.0675427246	0.0089256233
1137.9963500977	0.0092381071
1139.9251574707	0.0099631883
1141.8539648437	0.0103720538
1143.7827722168	0.0109081604
1145.7115795898	0.0118244514
1147.6403869629	0.0124610309
1149.5691943359	0.0133239552
1151.4980017090	0.0138482265
1153.4268090820	0.0142821502
1155.3556164551	0.0151728094
1157.2844238281	0.0160651579
1159.2132312012	0.0165679213
1161.1420385742	0.0171782281
1163.0708459473	0.0177123956
1164.9996533203	0.0183967315
1166.9284606934	0.0190281197
1168.8572680664	0.0195034407
1170.7860754394	0.0206010863
1172.7148828125	0.0212307088
1174.6436901855	0.0219994783
1176.5724975586	0.0229156166
1178.5013049316	0.0237449408
1180.4301123047	0.0245315265
1182.3589196777	0.0255111642
1184.2877270508	0.0271123461
1186.2165344238	0.0279094875
1188.1453417969	0.0294008851
1190.0741491699	0.0306713171
1192.0029565430	0.0317262635
1193.9317639160	0.0337296352
1195.8605712891	0.0349588990
1197.7893786621	0.0366965607
1199.7181860351	0.0382533818
1201.6469934082	0.0397430807
1203.5758007812	0.0416582152
1205.5046081543	0.0430134758
1207.4334155273	0.0445865989
1209.3622229004	0.0463361517
1211.2910302734	0.0478406325
1213.2198376465	0.0489016436
1215.1486450195	0.0501046181
1217.0774523926	0.0512269214
1219.0062597656	0.0521165170
1220.9350671387	0.0528359488
1222.8638745117	0.0536230430
1224.7926818848	0.0542176440
1226.7214892578	0.0544555932
1228.6502966308	0.0549870208
1230.5791040039	0.0548888221
1232.5079113769	0.0551370792
1234.4367187500	0.0553956777
1236.3655261230	0.0553660057
1238.2943334961	0.0553646013
1240.2231408691	0.0548359416
1242.1519482422	0.0548638701
1244.0807556152	0.0544842035
1246.0095629883	0.0541877709
1247.9383703613	0.0538814515
1249.8671777344	0.0532862842
1251.7959851074	0.0530621074
1253.7247924805	0.0524570085
1255.6535998535	0.0518416688
1257.5824072266	0.0509849638
1259.5112145996	0.0503171235
1261.4400219726	0.0495232940
1263.3688293457	0.0489494912
1265.2976367187	0.0484847873
1267.2264440918	0.0475703403
1269.1552514648	0.0470913313
1271.0840588379	0.0462521985
1273.0128662109	0.0456279218
1274.9416735840	0.0447688177
1276.8704809570	0.0437810495
1278.7992883301	0.0432236120
1280.7280957031	0.0420736596
1282.6569030762	0.0410864316
1284.5857104492	0.0405543447
1286.5145178223	0.0399752706
1288.4433251953	0.0391245782
1290.3721325683	0.0386073813
1292.3009399414	0.0382732376
1294.2297473144	0.0380131416
1296.1585546875	0.0376462229
1298.0873620605	0.0375920534
1300.0161694336	0.0380364582
1301.9449768066	0.0379614234
1303.8737841797	0.0384347476
1305.8025915527	0.0386582762
1307.7313989258	0.0389857441
1309.6602062988	0.0398809239
1311.5890136719	0.0403668992
1313.5178210449	0.0411917418
1315.4466284180	0.0420493335
1317.3754357910	0.0431369171
1319.3042431640	0.0441357419
1321.2330505371	0.0455995761
1323.1618579101	0.0471875742
1325.0906652832	0.0483736731
1327.0194726562	0.0498136394
1328.9482800293	0.0508879349
1330.8770874023	0.0524528548
1332.8058947754	0.0537780002
1334.7347021484	0.0546188429
1336.6635095215	0.0552331805
1338.5923168945	0.0550082549
1340.5211242676	0.0558182746
1342.4499316406	0.0577023253
1344.3787390137	0.0581509769
1346.3075463867	0.0580152795
1348.2363537597	0.0579148531
1350.1651611328	0.0571707673
1352.0939685058	0.0574290976
1354.0227758789	0.0569782928
1355.9515832519	0.0562619343
1357.8803906250	0.0560737774
1359.8091979980	0.0550860912
1361.7380053711	0.0533101745
1363.6668127441	0.0523417518
1365.5956201172	0.0544821210
1367.5244274902	0.0535006151
1369.4532348633	0.0527374148
1371.3820422363	0.0537636653
1373.3108496094	0.0511178188
1375.2396569824	0.0516557321
1377.1684643555	0.0525073595
1379.0972717285	0.0522401929
1381.0260791015	0.0523217320
1382.9548864746	0.0517842397
1384.8836938476	0.0521291867
1386.8125012207	0.0502245128
1388.7413085937	0.0509821810
1390.6701159668	0.0543872565
1392.5989233398	0.0533908568
1394.5277307129	0.0506825112
1396.4565380859	0.0525213070
1398.3853454590	0.0527787469
1400.3141528320	0.0522275381
1402.2429602051	0.0557055026
1404.1717675781	0.0534490868
1406.1005749512	0.0535699651
1408.0293823242	0.0552320592
1409.9581896972	0.0536573678
1411.8869970703	0.0545358099
1413.8158044433	0.0525980592
1415.7446118164	0.0533779003
1417.6734191894	0.0492034480
1419.6022265625	0.0445186198
1421.5310339355	0.0495092124
1423.4598413086	0.0484705120
1425.3886486816	0.0467229784
1427.3174560547	0.0470638052
1429.2462634277	0.0443120077
1431.1750708008	0.0426660776
1433.1038781738	0.0431141742
1435.0326855469	0.0397275537
1436.9614929199	0.0343517810
1438.8903002929	0.0377067327
1440.8191076660	0.0383238196
1442.7479150390	0.0360101163
1444.6767224121	0.0373373851
1446.6055297851	0.0350949094
1448.5343371582	0.0353346989
1450.4631445312	0.0361832753
1452.3919519043	0.0368875079
1454.3207592773	0.0383082703
1456.2495666504	0.0332228541
1458.1783740234	0.0344452336
1460.1071813965	0.0439634174
1462.0359887695	0.0468250662
1463.9647961426	0.0470041633
1465.8936035156	0.0490574986
1467.8224108886	0.0548217744
1469.7512182617	0.0588455312
1471.6800256347	0.0543203503
1473.6088330078	0.0570210814
1475.5376403808	0.0641479790
1477.4664477539	0.0687302500
1479.3952551269	0.0747769177
1481.3240625000	0.0764160901
1483.2528698730	0.0806590617
1485.1816772461	0.0836790949
1487.1104846191	0.0832599849
1489.0392919922	0.0835354477
1490.9680993652	0.0845141113
1492.8969067383	0.0955580845
1494.8257141113	0.0944256783
1496.7545214843	0.0868440494
1498.6833288574	0.0966086611
1500.6121362304	0.0994448438
1502.5409436035	0.1051513925
1504.4697509765	0.1012485921
1506.3985583496	0.0787104666
1508.3273657226	0.0922298655
1510.2561730957	0.1055264026
1512.1849804687	0.1025496051
1514.1137878418	0.1097837389
1516.0425952148	0.1011696532
1517.9714025879	0.1048951894
1519.9002099609	0.1019414514
1521.8290173340	0.0907044783
1523.7578247070	0.1067882180
1525.6866320801	0.1054487675
1527.6154394531	0.1049406156
1529.5442468261	0.1138178036
1531.4730541992	0.1104258373
1533.4018615722	0.1030817181
1535.3306689453	0.1075166836
1537.2594763183	0.1137675494
1539.1882836914	0.0870459154
1541.1170910644	0.0895720571
1543.0458984375	0.1044001281
1544.9747058105	0.1004874185
1546.9035131836	0.1150266379
1548.8323205566	0.1088770926
1550.7611279297	0.1113484576
1552.6899353027	0.1113406718
1554.6187426758	0.1024408638
1556.5475500488	0.1088887528
1558.4763574218	0.0826366916
1560.4051647949	0.0862460658
1562.3339721679	0.1154997349
1564.2627795410	0.1103218198
1566.1915869140	0.1123294085
1568.1203942871	0.1116864756
1570.0492016601	0.1012419462
1571.9780090332	0.1131066009
1573.9068164062	0.1145476103
1575.8356237793	0.0943242013
1577.7644311523	0.1035024822
1579.6932385254	0.1153605431
1581.6220458984	0.1105573326
1583.5508532715	0.1128598303
1585.4796606445	0.1113281325
1587.4084680175	0.1116887629
1589.3372753906	0.1109648868
1591.2660827636	0.1104762852
1593.1948901367	0.1106282175
1595.1236975097	0.1089835614
1597.0525048828	0.1101915315
1598.9813122558	0.1091818213
1600.9101196289	0.1094391495
1602.8389270019	0.1077119708
1604.7677343750	0.1086406559
1606.6965417480	0.1072056890
1608.6253491211	0.1064382344
1610.5541564941	0.1062044352
1612.4829638672	0.1060655862
1614.4117712402	0.1072320491
1616.3405786132	0.0906617790
1618.2693859863	0.0957187712
1620.1981933593	0.1086791307
1622.1270007324	0.0980450958
1624.0558081054	0.0982593745
1625.9846154785	0.1015210003
1627.9134228515	0.1011614949
1629.8422302246	0.1005832180
1631.7710375976	0.1055423915
1633.6998449707	0.0991061181
1635.6286523437	0.0843818933
1637.5574597168	0.0951792374
1639.4862670898	0.1030315012
1641.4150744629	0.1010443494
1643.3438818359	0.1034029499
1645.2726892090	0.0951917097
1647.2014965820	0.0859323442
1649.1303039550	0.1023383513
1651.0591113281	0.0985507220
1652.9879187011	0.0690937787
1654.9167260742	0.0878975242
1656.8455334472	0.1069566905
1658.7743408203	0.1028834358
1660.7031481933	0.1060030907
1662.6319555664	0.0986742079
1664.5607629394	0.1030611098
1666.4895703125	0.1095116884
1668.4183776855	0.0987904370
1670.3471850586	0.0966444016
1672.2759924316	0.1070919931
1674.2047998047	0.1011308953
1676.1336071777	0.0975964293
1678.0624145507	0.1099041402
1679.9912219238	0.1071694195
1681.9200292968	0.1068734378
1683.8488366699	0.0906836689
1685.7776440429	0.0888996422
1687.7064514160	0.1163654253
1689.6352587890	0.1041412130
1691.5640661621	0.1120802164
1693.4928735351	0.1150511429
1695.4216809082	0.0886543542
1697.3504882812	0.1051775366
1699.2792956543	0.0962623507
1701.2081030273	0.0877103209
1703.1369104004	0.1131059304
1705.0657177734	0.1062550843
1706.9945251464	0.1063266844
1708.9233325195	0.1142701060
1710.8521398925	0.1106238365
1712.7809472656	0.1123156101
1714.7097546386	0.1062768549
1716.6385620117	0.0970893651
1718.5673693847	0.0954974964
1720.4961767578	0.1099979877
1722.4249841308	0.1136666685
1724.3537915039	0.1068641543
1726.2825988769	0.1142981276
1728.2114062500	0.1070810705
1730.1402136230	0.1079026535
1732.0690209961	0.1057161540
1733.9978283691	0.0848812908
1735.9266357421	0.1005083621
1737.8554431152	0.1099116504
1739.7842504882	0.0999379158
1741.7130578613	0.1070031822
1743.6418652343	0.1089494675
1745.5706726074	0.1091435850
1747.4994799804	0.1102683395
1749.4282873535	0.1066242084
1751.3570947265	0.1026137471
1753.2859020996	0.1114645898
1755.2147094726	0.1162170842
1757.1435168457	0.1077754870
1759.0723242187	0.1163519174
1761.0011315918	0.1112542599
1762.9299389648	0.1075665951
1764.8587463379	0.1202494055
1766.7875537109	0.1104850620
1768.7163610839	0.1109633893
1770.6451684570	0.1110482961
1772.5739758300	0.1014656052
1774.5027832031	0.1107641831
1776.4315905761	0.1162073836
1778.3603979492	0.1147550642
1780.2892053222	0.1137425452
1782.2180126953	0.1143517345
1784.1468200683	0.1144620627
1786.0756274414	0.1123981550
1788.0044348144	0.1170010865
1789.9332421875	0.1150705516
1791.8620495605	0.1060061455
1793.7908569336	0.1094390750
1795.7196643066	0.1160338819
1797.6484716796	0.1148072034
1799.5772790527	0.1134413332
1801.5060864257	0.1118247509
1803.4348937988	0.1145595834
1805.3637011718	0.1168610603
1807.2925085449	0.1155092418
1809.2213159179	0.1157331467
1811.1501232910	0.1132925004
1813.0789306640	0.1159677505
1815.0077380371	0.1164949536
1816.9365454101	0.1152089238
1818.8653527832	0.1159961224
1820.7941601562	0.1157118231
1822.7229675293	0.1172493845
1824.6517749023	0.1111132354
1826.5805822753	0.1140665561
1828.5093896484	0.1145372465
1830.4381970214	0.1086485386
1832.3670043945	0.1161314696
1834.2958117675	0.1155866086
1836.2246191406	0.1153895259
1838.1534265136	0.1151470691
1840.0822338867	0.1154213697
1842.0110412597	0.1159526259
1843.9398486328	0.1054192036
1845.8686560058	0.1105799228
1847.7974633789	0.1156646758
1849.7262707519	0.1132929251
1851.6550781250	0.1162372753
1853.5838854980	0.1142932028
1855.5126928710	0.1149606705
1857.4415002441	0.1146122366
1859.3703076171	0.1138259917
1861.2991149902	0.1146522462
1863.2279223632	0.1136009097
1865.1567297363	0.1144253016
1867.0855371093	0.1114595830
1869.0143444824	0.1076495498
1870.9431518554	0.1107572690
1872.8719592285	0.1141490564
1874.8007666015	0.1128357425
1876.7295739746	0.1131817549
1878.6583813476	0.1130398959
1880.5871887207	0.1123237833
1882.5159960937	0.1130424142
1884.4448034667	0.1117576510
1886.3736108398	0.1127784476
1888.3024182128	0.1110570580
1890.2312255859	0.1091893092
1892.1600329589	0.1121376604
1894.0888403320	0.1108917370
1896.0176477050	0.1104559451
1897.9464550781	0.1116413027
1899.8752624511	0.1109609008
1901.8040698242	0.1111067384
1903.7328771972	0.1105668396
1905.6616845703	0.1109361798
1907.5904919433	0.1101477444
1909.5192993164	0.1095046252
1911.4481066894	0.1100639626
1913.3769140625	0.1099781170
1915.3057214355	0.1108148098
1917.2345288085	0.1069783643
1919.1633361816	0.1068104059
1921.0921435546	0.1101513132
1923.0209509277	0.1073770225
1924.9497583007	0.1089843065
1926.8785656738	0.1099385917
1928.8073730468	0.1087457165
1930.7361804199	0.1096989959
1932.6649877929	0.1085181907
1934.5937951660	0.1093151420
1936.5226025390	0.1088375151
1938.4514099121	0.1090538800
1940.3802172851	0.1090289727
1942.3090246582	0.1063079834
1944.2378320312	0.1076125950
1946.1666394042	0.1084502786
1948.0954467773	0.1082675308
1950.0242541503	0.1086131334
1951.9530615234	0.1082222462
1953.8818688964	0.1082794517
1955.8106762695	0.1079913676
1957.7394836425	0.1080785096
1959.6682910156	0.1079936922
1961.5970983886	0.1077562720
1963.5259057617	0.1080743372
1965.4547131347	0.1075384691
1967.3835205078	0.1065165699
1969.3123278808	0.1073164865
1971.2411352539	0.1076606140
1973.1699426269	0.1070706770
1975.0987499999	0.1074959561
1977.0275573730	0.1069533080
1978.9563647460	0.1069314778
1980.8851721191	0.1068884581
1982.8139794921	0.1065636873
1984.7427868652	0.1068284810
1986.6715942382	0.1060186550
1988.6004016113	0.1061616838
1990.5292089843	0.1054806709
1992.4580163574	0.1043555588
1994.3868237304	0.1054551229
1996.3156311035	0.1057035103
1998.2444384765	0.1053688824
2000.1732458496	0.1052578464
2002.1020532226	0.1048602536
2004.0308605956	0.1049230397
2005.9596679687	0.1045553088
2007.8884753417	0.1041647419
2009.8172827148	0.1042058170
2011.7460900878	0.1039365530
2013.6748974609	0.1038190797
2015.6037048339	0.1031930223
2017.5325122070	0.1025584266
2019.4613195800	0.1029447541
2021.3901269531	0.1029237509
2023.3189343261	0.1025168300
2025.2477416992	0.1023498476
2027.1765490722	0.1022535115
2029.1053564453	0.1020506471
2031.0341638183	0.1017975658
2032.9629711914	0.1016655192
2034.8917785644	0.1013403684
2036.8205859374	0.1011820436
2038.7493933105	0.1010162607
2040.6782006835	0.1005628109
2042.6070080566	0.1004630253
2044.5358154296	0.1003432274
2046.4646228027	0.1000996828
2048.3934301757	0.1000447571
2050.3222375488	0.0997289047
2052.2510449218	0.0996112674
2054.1798522949	0.0995354056
2056.1086596679	0.0990782082
2058.0374670410	0.0988792032
2059.9662744140	0.0987885147
2061.8950817871	0.0986872241
2063.8238891601	0.0982572958
2065.7526965331	0.0979469717
2067.6815039062	0.0981077701
2069.6103112792	0.0979560092
2071.5391186523	0.0977522284
2073.4679260253	0.0974669755
2075.3967333984	0.0973144174
2077.3255407714	0.0971756503
2079.2543481445	0.0969083980
2081.1831555175	0.0968443453
2083.1119628906	0.0965316743
2085.0407702636	0.0964054167
2086.9695776367	0.0962348282
2088.8983850097	0.0959441513
2090.8271923828	0.0960300788
2092.7559997558	0.0957492515
2094.6848071288	0.0953613967
2096.6136145019	0.0953504443
2098.5424218749	0.0951724350
2100.4712292480	0.0950067192
2102.4000366210	0.0950016305
2104.3288439941	0.0947507322
2106.2576513671	0.0946045592
2108.1864587402	0.0945662558
2110.1152661132	0.0942980573
2112.0440734863	0.0940328613
2113.9728808593	0.0939316899
2115.9016882324	0.0937982351
2117.8304956054	0.0936471671
2119.7593029785	0.0936276615
2121.6881103515	0.0934515074
2123.6169177245	0.0932553560
2125.5457250976	0.0931488574
2127.4745324706	0.0931082815
2129.4033398437	0.0929039121
2131.3321472167	0.0926543325
2133.2609545898	0.0927106887
2135.1897619628	0.0925323293
2137.1185693359	0.0923931152
2139.0473767089	0.0922573954
2140.9761840820	0.0921574533
2142.9049914550	0.0921454057
2144.8337988281	0.0918972269
2146.7626062011	0.0920127481
2148.6914135742	0.0918617398
2150.6202209472	0.0915247947
2152.5490283203	0.0916016400
2154.4778356933	0.0914235190
2156.4066430663	0.0912095159
2158.3354504394	0.0911980197
2160.2642578124	0.0909788162
2162.1930651855	0.0908978134
2164.1218725585	0.0909113437
2166.0506799316	0.0906521976
2167.9794873046	0.0907012522
2169.9082946777	0.0906127989
2171.8371020507	0.0905106291
2173.7659094238	0.0905062109
2175.6947167968	0.0902377814
2177.6235241699	0.0903015137
2179.5523315429	0.0901013166
2181.4811389160	0.0899951831
2183.4099462890	0.0899434686
2185.3387536620	0.0896035433
2187.2675610351	0.0896602273
2189.1963684081	0.0896568298
2191.1251757812	0.0895348191
2193.0539831542	0.0893413275
2194.9827905273	0.0892241001
2196.9115979003	0.0890961736
2198.8404052734	0.0890635401
2200.7692126464	0.0891854465
2202.6980200195	0.0889627337
2204.6268273925	0.0888794214
2206.5556347656	0.0888449773
2208.4844421386	0.0886066481
2210.4132495117	0.0884679854
2212.3420568847	0.0885103419
2214.2708642577	0.0884135440
2216.1996716308	0.0881871954
2218.1284790038	0.0880312771
2220.0572863769	0.0879904106
2221.9860937499	0.0880199373
2223.9149011230	0.0877937973
2225.8437084960	0.0876554549
2227.7725158691	0.0875184834
2229.7013232421	0.0874575973
2231.6301306152	0.0873344541
2233.5589379882	0.0871415585
2235.4877453613	0.0870717615
2237.4165527343	0.0866977721
2239.3453601074	0.0867605805
2241.2741674804	0.0866904557
2243.2029748534	0.0866057053
2245.1317822265	0.0866330266
2247.0605895995	0.0862059817
2248.9893969726	0.0862852186
2250.9182043456	0.0861195624
2252.8470117187	0.0858929157
2254.7758190917	0.0858508795
2256.7046264648	0.0856392533
2258.6334338378	0.0855906308
2260.5622412109	0.0854201764
2262.4910485839	0.0854000002
2264.4198559570	0.0852953419
2266.3486633300	0.0851267502
2268.2774707031	0.0850442350
2270.2062780761	0.0849462301
2272.1350854491	0.0848453939
2274.0638928222	0.0848262310
2275.9927001952	0.0847886577
2277.9215075683	0.0846207738
2279.8503149413	0.0846209675
2281.7791223144	0.0844067559
2283.7079296874	0.0843414515
2285.6367370605	0.0842307433
2287.5655444335	0.0839859173
2289.4943518066	0.0838772580
2291.4231591796	0.0835735202
2293.3519665527	0.0834925994
2295.2807739257	0.0831263587
2297.2095812988	0.0827976614
2299.1383886718	0.0826130956
2301.0671960449	0.0822812617
2302.9960034179	0.0819694251
2304.9248107909	0.0813860595
2306.8536181640	0.0809650123
2308.7824255370	0.0802693665
2310.7112329101	0.0794384629
2312.6400402831	0.0786967799
2314.5688476562	0.0779533088
2316.4976550292	0.0771043748
2318.4264624023	0.0759029835
2320.3552697753	0.0749066323
2322.2840771484	0.0737131238
2324.2128845214	0.0727423280
2326.1416918945	0.0719316751
2328.0704992675	0.0709788799
2329.9993066406	0.0701617002
2331.9281140136	0.0693889707
2333.8569213866	0.0692661703
2335.7857287597	0.0689046383
2337.7145361327	0.0687311813
2339.6433435058	0.0688447952
2341.5721508788	0.0689397603
2343.5009582519	0.0700822845
2345.4297656249	0.0714253634
2347.3585729980	0.0746065676
2349.2873803710	0.0772765055
2351.2161877441	0.0745478123
2353.1449951171	0.0704640895
2355.0738024902	0.0677618757
2357.0026098632	0.0655737221
2358.9314172363	0.0643385202
2360.8602246093	0.0635276437
2362.7890319823	0.0633354262
2364.7178393554	0.0637495294
2366.6466467284	0.0646351501
2368.5754541015	0.0660824180
2370.5042614745	0.0676878467
2372.4330688476	0.0697294548
2374.3618762206	0.0719434991
2376.2906835937	0.0738569796
2378.2194909667	0.0756003857
2380.1482983398	0.0770782828
2382.0771057128	0.0779934675
2384.0059130859	0.0785097778
2385.9347204589	0.0788597986
2387.8635278320	0.0789606869
2389.7923352050	0.0789766610
2391.7211425780	0.0789473802
2393.6499499511	0.0788471103
2395.5787573241	0.0787478760
2397.5075646972	0.0786679089
2399.4363720702	0.0784460008
2401.3651794433	0.0783578008
2403.2939868163	0.0784185305
2405.2227941894	0.0781201348
2407.1516015624	0.0779996514
2409.0804089355	0.0780192316
2411.0092163085	0.0779319257
2412.9380236816	0.0778015554
2414.8668310546	0.0775536448
2416.7956384277	0.0774897635
2418.7244458007	0.0773671195
2420.6532531738	0.0772861242
2422.5820605468	0.0773050338
2424.5108679198	0.0772429407
2426.4396752929	0.0770601109
2428.3684826659	0.0768731087
2430.2972900390	0.0768693388
2432.2260974120	0.0768829882
2434.1549047851	0.0769130215
2436.0837121581	0.0767125189
2438.0125195312	0.0765749216
2439.9413269042	0.0764073282
2441.8701342773	0.0761574134
2443.7989416503	0.0761604011
2445.7277490234	0.0760404468
2447.6565563964	0.0760415941
2449.5853637695	0.0759415329
2451.5141711425	0.0758542418
2453.4429785155	0.0758253336
2455.3717858886	0.0756580681
2457.3005932616	0.0756191611
2459.2294006347	0.0754307806
2461.1582080077	0.0754277110
2463.0870153808	0.0753782541
2465.0158227538	0.0752201974
2466.9446301269	0.0751469806
2468.8734374999	0.0750130862
2470.8022448730	0.0749048740
2472.7310522460	0.0747401193
2474.6598596191	0.0747639388
2476.5886669921	0.0746040791
2478.5174743652	0.0744902417
2480.4462817382	0.0744499117
2482.3750891112	0.0742580369
2484.3038964843	0.0742751956
2486.2327038573	0.0741018355
2488.1615112304	0.0740756020
2490.0903186034	0.0740496069
2492.0191259765	0.0738330185
2493.9479333495	0.0738283023
2495.8767407226	0.0737293810
2497.8055480956	0.0736395493
2499.7343554687	0.0735558420
2501.6631628417	0.0734069496
2503.5919702148	0.0733529031
2505.5207775878	0.0732202381
2507.4495849609	0.0730588734
2509.3783923339	0.0730037466
2511.3071997069	0.0728756040
2513.2360070800	0.0729223192
2515.1648144530	0.0729015917
2517.0936218261	0.0726026073
2519.0224291991	0.0725198835
2520.9512365722	0.0724069327
2522.8800439452	0.0724040121
2524.8088513183	0.0723806992
2526.7376586913	0.0721792430
2528.6664660644	0.0721580535
2530.5952734374	0.0721367300
2532.5240808105	0.0721027106
2534.4528881835	0.0718041137
2536.3816955566	0.0716438144
2538.3105029296	0.0717252046
2540.2393103027	0.0715525448
2542.1681176757	0.0715014860
2544.0969250487	0.0714415237
2546.0257324218	0.0712253302
2547.9545397948	0.0711368769
2549.8833471679	0.0712140948
2551.8121545409	0.0711193830
2553.7409619140	0.0709504187
2555.6697692870	0.0709116459
2557.5985766601	0.0706797391
2559.5273840331	0.0706490278
2561.4561914062	0.0706425533
2563.3849987792	0.0703632608
2565.3138061523	0.0703620315
2567.2426135253	0.0703092739
2569.1714208984	0.0701636076
2571.1002282714	0.0701219738
2573.0290356444	0.0699530989
2574.9578430175	0.0699426532
2576.8866503905	0.0700036138
2578.8154577636	0.0698938966
2580.7442651366	0.0697087795
2582.6730725097	0.0695948899
2584.6018798827	0.0695083737
2586.5306872558	0.0693713725
2588.4594946288	0.0693149641
2590.3883020019	0.0691537857
2592.3171093749	0.0691079423
2594.2459167480	0.0690816864
2596.1747241210	0.0688813627
2598.1035314941	0.0688180774
2600.0323388671	0.0687472522
2601.9611462401	0.0686972588
2603.8899536132	0.0684771538
2605.8187609862	0.0683751702
2607.7475683593	0.0684483647
2609.6763757323	0.0682568476
2611.6051831054	0.0681503639
2613.5339904784	0.0680559874
2615.4627978515	0.0680053905
2617.3916052245	0.0679481551
2619.3204125976	0.0678056404
2621.2492199706	0.0676854923
2623.1780273437	0.0676060915
2625.1068347167	0.0675521642
2627.0356420898	0.0674184114
2628.9644494628	0.0674111098
2630.8932568358	0.0672346950
2632.8220642089	0.0671128333
2634.7508715819	0.0670735687
2636.6796789550	0.0669118837
2638.6084863280	0.0669229031
2640.5372937011	0.0667937100
2642.4661010741	0.0666539744
2644.3949084472	0.0664747283
2646.3237158202	0.0663695931
2648.2525231933	0.0664813444
2650.1813305663	0.0664419532
2652.1101379394	0.0661788583
2654.0389453124	0.0660563409
2655.9677526855	0.0661751926
2657.8965600585	0.0659858733
2659.8253674315	0.0659459829
2661.7541748046	0.0658648014
2663.6829821776	0.0656272322
2665.6117895507	0.0656294525
2667.5405969237	0.0654117465
2669.4694042968	0.0654754266
2671.3982116698	0.0654660016
2673.3270190429	0.0651471168
2675.2558264159	0.0651528314
2677.1846337890	0.0651462823
2679.1134411620	0.0649923235
2681.0422485351	0.0648138747
2682.9710559081	0.0646767765
2684.8998632812	0.0645932257
2686.8286706542	0.0645092204
2688.7574780273	0.0644046068
2690.6862854003	0.0643677488
2692.6150927733	0.0643142164
2694.5439001464	0.0642255321
2696.4727075194	0.0641299561
2698.4015148925	0.0640509129
2700.3303222655	0.0640164837
2702.2591296386	0.0638234019
2704.1879370116	0.0636982769
2706.1167443847	0.0636393726
2708.0455517577	0.0635630190
2709.9743591308	0.0634336770
2711.9031665038	0.0633688495
2713.8319738769	0.0633711070
2715.7607812499	0.0632028580
2717.6895886230	0.0631473437
2719.6183959960	0.0630165413
2721.5472033690	0.0629565492
2723.4760107421	0.0628415346
2725.4048181151	0.0626598299
2727.3336254882	0.0626816452
2729.2624328612	0.0625498444
2731.1912402343	0.0624926165
2733.1200476073	0.0622792505
2735.0488549804	0.0621847622
2736.9776623534	0.0621573925
2738.9064697265	0.0620288774
2740.8352770995	0.0620399229
2742.7640844726	0.0617586635
2744.6928918456	0.0617078915
2746.6216992187	0.0615936853
2748.5505065917	0.0614278391
2750.4793139647	0.0615109913
2752.4081213378	0.0614270456
2754.3369287108	0.0613992214
2756.2657360839	0.0612211488
2758.1945434569	0.0610635132
2760.1233508300	0.0609634519
2762.0521582030	0.0608057119
2763.9809655761	0.0607520416
2765.9097729491	0.0607425272
2767.8385803222	0.0606368929
2769.7673876952	0.0604322180
2771.6961950683	0.0603558682
2773.6250024413	0.0602084249
2775.5538098144	0.0600654110
2777.4826171874	0.0599889420
2779.4114245604	0.0599477142
2781.3402319335	0.0598172620
2783.2690393065	0.0596251711
2785.1978466796	0.0596554279
2787.1266540526	0.0594991148
2789.0554614257	0.0592701957
2790.9842687987	0.0592455640
2792.9130761718	0.0592313036
2794.8418835448	0.0591389388
2796.7706909179	0.0589577034
2798.6994982909	0.0587478839
2800.6283056640	0.0586374216
2802.5571130370	0.0586279929
2804.4859204101	0.0585485473
2806.4147277831	0.0583386086
2808.3435351562	0.0581818074
2810.2723425292	0.0581369810
2812.2011499022	0.0578882247
2814.1299572753	0.0578750074
2816.0587646483	0.0578245260
2817.9875720214	0.0575602502
2819.9163793944	0.0576248467
2821.8451867675	0.0574434102
2823.7739941405	0.0573370941
2825.7028015136	0.0571734868
2827.6316088866	0.0569508076
2829.5604162597	0.0569287129
2831.4892236327	0.0567565411
2833.4180310058	0.0567502454
2835.3468383788	0.0564886183
2837.2756457519	0.0563903451
2839.2044531249	0.0563571714
2841.1332604979	0.0560407564
2843.0620678710	0.0558959544
2844.9908752440	0.0556666702
2846.9196826171	0.0553259254
2848.8484899901	0.0548231974
2850.7772973632	0.0547556765
2852.7061047362	0.0547775105
2854.6349121093	0.0545783713
2856.5637194823	0.0545829684
2858.4925268554	0.0544649959
2860.4213342284	0.0544107556
2862.3501416015	0.0543414541
2864.2789489745	0.0542534962
2866.2077563476	0.0541787669
2868.1365637206	0.0541611239
2870.0653710936	0.0540263839
2871.9941784667	0.0538273007
2873.9229858397	0.0538296774
2875.8517932128	0.0536550879
2877.7806005858	0.0536030121
2879.7094079589	0.0535056293
2881.6382153319	0.0533292070
2883.5670227050	0.0533360876
2885.4958300780	0.0533454604
2887.4246374511	0.0531662144
2889.3534448241	0.0529604740
2891.2822521972	0.0530078746
2893.2110595702	0.0527901724
2895.1398669433	0.0526009649
2897.0686743163	0.0524662249
2898.9974816893	0.0523555763
2900.9262890624	0.0522736907
2902.8550964354	0.0519681834
2904.7839038085	0.0519718416
2906.7127111815	0.0518511981
2908.6415185546	0.0516098663
2910.5703259276	0.0513166264
2912.4991333007	0.0509022363
2914.4279406737	0.0507624969
2916.3567480468	0.0505669713
2918.2855554198	0.0502447821
2920.2143627929	0.0500931852
2922.1431701659	0.0501378067
2924.0719775390	0.0500541404
2926.0007849120	0.0500417352
2927.9295922851	0.0499823503
2929.8583996581	0.0498769954
2931.7872070311	0.0498525053
2933.7160144042	0.0497149229
2935.6448217772	0.0498063862
2937.5736291503	0.0497647971
2939.5024365233	0.0497975647
2941.4312438964	0.0497787409
2943.3600512694	0.0495080203
2945.2888586425	0.0495358706
2947.2176660155	0.0494842082
2949.1464733886	0.0494546294
2951.0752807616	0.0493981987
2953.0040881347	0.0492107272
2954.9328955077	0.0490328893
2956.8617028808	0.0488425605
2958.7905102538	0.0486500114
2960.7193176268	0.0484692827
2962.6481249999	0.0484596975
2964.5769323729	0.0483309254
2966.5057397460	0.0482010581
2968.4345471190	0.0481918007
2970.3633544921	0.0481792837
2972.2921618651	0.0481840558
2974.2209692382	0.0482217371
2976.1497766112	0.0482348353
2978.0785839843	0.0481465384
2980.0073913573	0.0481234863
2981.9361987304	0.0480394773
2983.8650061034	0.0479867905
2985.7938134765	0.0478812456
2987.7226208495	0.0477934629
2989.6514282225	0.0478179231
2991.5802355956	0.0476709977
2993.5090429686	0.0476023033
2995.4378503417	0.0474207103
2997.3666577147	0.0472957268
2999.2954650878	0.0473862998
3001.2242724608	0.0472174659
3003.1530798339	0.0470422879
3005.0818872069	0.0469454378
3007.0106945800	0.0467651188
3008.9395019530	0.0466939434
3010.8683093261	0.0465089716
3012.7971166991	0.0462868959
3014.7259240722	0.0463177711
3016.6547314452	0.0461262912
3018.5835388182	0.0459509604
3020.5123461913	0.0459012687
3022.4411535643	0.0457159691
3024.3699609374	0.0455706567
3026.2987683104	0.0453906953
3028.2275756835	0.0452784821
3030.1563830565	0.0450951308
3032.0851904296	0.0449508429
3034.0139978026	0.0448498651
3035.9428051757	0.0447922163
3037.8716125487	0.0447579920
3039.8004199218	0.0445428900
3041.7292272948	0.0444708914
3043.6580346679	0.0442171469
3045.5868420409	0.0440871902
3047.5156494139	0.0440533943
3049.4444567870	0.0438025333
3051.3732641600	0.0438017324
3053.3020715331	0.0436502323
3055.2308789061	0.0434431471
3057.1596862792	0.0433405004
3059.0884936522	0.0432485789
3061.0173010253	0.0431078970
3062.9461083983	0.0428866819
3064.8749157714	0.0427087881
3066.8037231444	0.0425373614
3068.7325305175	0.0425296426
3070.6613378905	0.0423556976
3072.5901452636	0.0421638004
3074.5189526366	0.0421579704
3076.4477600097	0.0420665294
3078.3765673827	0.0418543927
3080.3053747557	0.0415476933
3082.2341821288	0.0414934345
3084.1629895018	0.0414029695
3086.0917968749	0.0411780849
3088.0206042479	0.0411720984
3089.9494116210	0.0409968048
3091.8782189940	0.0408073589
3093.8070263671	0.0407400876
3095.7358337401	0.0404127985
3097.6646411132	0.0403097942
3099.5934484862	0.0402092077
3101.5222558593	0.0398910083
3103.4510632323	0.0398445949
3105.3798706054	0.0397184007
3107.3086779784	0.0395843424
3109.2374853514	0.0393155031
3111.1662927245	0.0391092971
3113.0951000975	0.0390768275
3115.0239074706	0.0387828499
3116.9527148436	0.0386757404
3118.8815222167	0.0384850577
3120.8103295897	0.0382842794
3122.7391369628	0.0381645970
3124.6679443358	0.0379666388
3126.5967517089	0.0378406905
3128.5255590819	0.0377334505
3130.4543664550	0.0376897380
3132.3831738280	0.0372810662
3134.3119812011	0.0370624736
3136.2407885741	0.0370791927
3138.1695959471	0.0368228480
3140.0984033202	0.0366110057
3142.0272106932	0.0365008116
3143.9560180663	0.0363779292
3145.8848254393	0.0360339284
3147.8136328124	0.0358928293
3149.7424401854	0.0357382819
3151.6712475585	0.0355174020
3153.6000549315	0.0354170799
3155.5288623046	0.0351539031
3157.4576696776	0.0350523181
3159.3864770507	0.0348263457
3161.3152844237	0.0346043743
3163.2440917968	0.0345338956
3165.1728991698	0.0343265831
3167.1017065428	0.0341045111
3169.0305139159	0.0340299681
3170.9593212889	0.0338728279
3172.8881286620	0.0335088670
3174.8169360350	0.0334836394
3176.7457434081	0.0333030149
3178.6745507811	0.0330243856
3180.6033581542	0.0330085568
3182.5321655272	0.0328492671
3184.4609729003	0.0327314064
3186.3897802733	0.0324661136
3188.3185876464	0.0322538540
3190.2473950194	0.0322367325
3192.1762023925	0.0320807695
3194.1050097655	0.0319187120
3196.0338171386	0.0317284428
3197.9626245116	0.0315559283
3199.8914318846	0.0314946547
3201.8202392577	0.0313359834
3203.7490466307	0.0311588198
3205.6778540038	0.0310682431
3207.6066613768	0.0308987740
3209.5354687499	0.0307782516
3211.4642761229	0.0306715220
3213.3930834960	0.0305800084
3215.3218908690	0.0304463040
3217.2506982421	0.0302354768
3219.1795056151	0.0301131979
3221.1083129882	0.0299877878
3223.0371203612	0.0299411975
3224.9659277343	0.0298224837
3226.8947351073	0.0297417901
3228.8235424803	0.0296803191
3230.7523498534	0.0295529217
3232.6811572264	0.0295308605
3234.6099645995	0.0293693747
3236.5387719725	0.0292535014
3238.4675793456	0.0291741453
3240.3963867186	0.0291113164
3242.3251940917	0.0290217698
3244.2540014647	0.0288426541
3246.1828088378	0.0287635513
3248.1116162108	0.0287419334
3250.0404235839	0.0287383236
3251.9692309569	0.0285470374
3253.8980383300	0.0285349749
3255.8268457030	0.0285198018
3257.7556530760	0.0282972474
3259.6844604491	0.0283292439
3261.6132678221	0.0283066202
3263.5420751952	0.0282661244
3265.4708825682	0.0282571092
3267.3996899413	0.0281933658
3269.3284973143	0.0280857794
3271.2573046874	0.0279606581
3273.1861120604	0.0279459022
3275.1149194335	0.0277811512
3277.0437268065	0.0277769808
3278.9725341796	0.0279475190
3280.9013415526	0.0276950076
3282.8301489257	0.0275986083
3284.7589562987	0.0277164783
3286.6877636717	0.0275575407
3288.6165710448	0.0275687072
3290.5453784178	0.0274867527
3292.4741857909	0.0274289586
3294.4029931639	0.0274463929
3296.3318005370	0.0272252019
3298.2606079100	0.0272887927
3300.1894152831	0.0272442680
3302.1182226561	0.0271447804
3304.0470300292	0.0271942616
3305.9758374022	0.0270945206
3307.9046447753	0.0268971194
3309.8334521483	0.0268323775
3311.7622595214	0.0270155743
3313.6910668944	0.0268698446
3315.6198742675	0.0267310049
3317.5486816405	0.0267542452
3319.4774890135	0.0266981479
3321.4062963866	0.0266716890
3323.3351037596	0.0265786238
3325.2639111327	0.0264625121
3327.1927185057	0.0264526512
3329.1215258788	0.0266399719
3331.0503332518	0.0264438689
3332.9791406249	0.0263132993
3334.9079479979	0.0263499878
3336.8367553710	0.0261980295
3338.7655627440	0.0262344703
3340.6943701171	0.0260899812
3342.6231774901	0.0260658860
3344.5519848632	0.0260346700
3346.4807922362	0.0259542763
3348.4095996092	0.0259507038
3350.3384069823	0.0257929191
3352.2672143553	0.0257681217
3354.1960217284	0.0256813392
3356.1248291014	0.0257088356
3358.0536364745	0.0256886110
3359.9824438475	0.0255709309
3361.9112512206	0.0256073289
3363.8400585936	0.0255518612
3365.7688659667	0.0253940895
3367.6976733397	0.0253643431
3369.6264807128	0.0254322477
3371.5552880858	0.0253458470
3373.4840954589	0.0253503826
3375.4129028319	0.0253193006
3377.3417102049	0.0252892096
3379.2705175780	0.0252357591
3381.1993249510	0.0252009593
3383.1281323241	0.0252288822
3385.0569396971	0.0250066463
3386.9857470702	0.0250547938
3388.9145544432	0.0251218360
3390.8433618163	0.0250519775
3392.7721691893	0.0250157788
3394.7009765624	0.0249901600
3396.6297839354	0.0248978510
3398.5585913085	0.0247702524
3400.4873986815	0.0249058940
3402.4162060546	0.0248400941
3404.3450134276	0.0248855799
3406.2738208006	0.0249362607
3408.2026281737	0.0248862654
3410.1314355467	0.0249291342
3412.0602429198	0.0248562954
3413.9890502928	0.0249373652
3415.9178576659	0.0248839129
3417.8466650389	0.0248453282
3419.7754724120	0.0247562900
3421.7042797850	0.0247268118
3423.6330871581	0.0248331837
3425.5618945311	0.0248926096
3427.4907019042	0.0248901099
3429.4195092772	0.0247328877
3431.3483166503	0.0248868968
3433.2771240233	0.0248055924
3435.2059313963	0.0247922242
3437.1347387694	0.0248799361
3439.0635461424	0.0247628316
3440.9923535155	0.0248410292
3442.9211608885	0.0248295777
3444.8499682616	0.0248758439
3446.7787756346	0.0245674029
3448.7075830077	0.0246720612
3450.6363903807	0.0250820145
3452.5651977538	0.0249740444
3454.4940051268	0.0250103697
3456.4228124999	0.0249522589
3458.3516198729	0.0250351671
3460.2804272460	0.0250256546
3462.2092346190	0.0249456000
3464.1380419921	0.0250940137
3466.0668493651	0.0250900239
3467.9956567381	0.0251091067
3469.9244641112	0.0251255445
3471.8532714842	0.0251813866
3473.7820788573	0.0251954384
3475.7108862303	0.0251878351
3477.6396936034	0.0253078062
3479.5685009764	0.0252830125
3481.4973083495	0.0250563342
3483.4261157225	0.0251923930
3485.3549230956	0.0253462084
3487.2837304686	0.0251612589
3489.2125378417	0.0251480862
3491.1413452147	0.0253007971
3493.0701525878	0.0255081411
3494.9989599608	0.0254132412
3496.9277673338	0.0253997669
3498.8565747069	0.0255211517
3500.7853820799	0.0254904665
3502.7141894530	0.0252997316
3504.6429968260	0.0253474601
3506.5718041991	0.0259008929
3508.5006115721	0.0256456882
3510.4294189452	0.0255717300
3512.3582263182	0.0258918367
3514.2870336913	0.0258518793
3516.2158410643	0.0259894412
3518.1446484374	0.0258830190
3520.0734558104	0.0259918123
3522.0022631835	0.0258776639
3523.9310705565	0.0256613959
3525.8598779295	0.0257320963
3527.7886853026	0.0257548653
3529.7174926756	0.0259618629
3531.6463000487	0.0260935947
3533.5751074217	0.0262586772
3535.5039147948	0.0261381902
3537.4327221678	0.0260787979
3539.3615295409	0.0263189245
3541.2903369139	0.0264348276
3543.2191442870	0.0263172798
3545.1479516600	0.0258966759
3547.0767590331	0.0257904641
3549.0055664061	0.0263495110
3550.9343737792	0.0264877528
3552.8631811522	0.0261119828
3554.7919885252	0.0266018156
3556.7207958983	0.0266930424
3558.6496032713	0.0265234020
3560.5784106444	0.0265808906
3562.5072180174	0.0264391545
3564.4360253905	0.0265846550
3566.3648327635	0.0253329426
3568.2936401366	0.0249264576
3570.2224475096	0.0264833048
3572.1512548827	0.0269887745
3574.0800622557	0.0268321373
3576.0088696288	0.0269078016
3577.9376770018	0.0269138124
3579.8664843749	0.0268761534
3581.7952917479	0.0269585624
3583.7240991210	0.0270489603
3585.6529064940	0.0266980380
3587.5817138670	0.0251530334
3589.5105212401	0.0254499614
3591.4393286131	0.0273626465
3593.3681359862	0.0268092267
3595.2969433592	0.0263580512
3597.2257507323	0.0269198120
3599.1545581053	0.0269938819
3601.0833654784	0.0268682390
3603.0121728514	0.0270449072
3604.9409802245	0.0274749659
3606.8697875975	0.0268341042
3608.7985949706	0.0256119929
3610.7274023436	0.0261580497
3612.6562097167	0.0266173892
3614.5850170897	0.0259958878
3616.5138244627	0.0274305493
3618.4426318358	0.0259180944
3620.3714392088	0.0252480004
3622.3002465819	0.0277188178
3624.2290539549	0.0271760859
3626.1578613280	0.0281935316
3628.0866687010	0.0247703101
3630.0154760741	0.0230613425
3631.9442834471	0.0277310535
3633.8730908202	0.0270624720
3635.8018981932	0.0274810717
3637.7307055663	0.0281226616
3639.6595129393	0.0276727080
3641.5883203124	0.0279276595
3643.5171276854	0.0276506208
3645.4459350584	0.0279377066
3647.3747424315	0.0257205404
3649.3035498045	0.0240828395
3651.2323571776	0.0243909582
3653.1611645506	0.0279000625
3655.0899719237	0.0276974775
3657.0187792967	0.0254574977
3658.9475866698	0.0283920281
3660.8763940428	0.0278994702
3662.8052014159	0.0284093469
3664.7340087889	0.0283038020
3666.6628161620	0.0280225985
3668.5916235350	0.0275315866
3670.5204309081	0.0233908705
3672.4492382811	0.0272291619
3674.3780456541	0.0263230149
3676.3068530272	0.0226890687
3678.2356604002	0.0272047929
3680.1644677733	0.0277199876
3682.0932751463	0.0276708677
3684.0220825194	0.0283593312
3685.9508898924	0.0281345733
3687.8796972655	0.0258339383
3689.8085046385	0.0241148714
3691.7373120116	0.0268778279
3693.6661193846	0.0273474213
3695.5949267577	0.0279934928
3697.5237341307	0.0280377530
3699.4525415038	0.0275955312
3701.3813488768	0.0272854716
3703.3101562499	0.0264918730
3705.2389636229	0.0284703188
3707.1677709959	0.0273968540
3709.0965783690	0.0269124396
3711.0253857420	0.0256686695
3712.9541931151	0.0243121162
3714.8830004881	0.0276052635
3716.8118078612	0.0272180885
3718.7406152342	0.0274113510
3720.6694226073	0.0269607175
3722.5982299803	0.0262165815
3724.5270373534	0.0270230081
3726.4558447264	0.0254316740
3728.3846520995	0.0271263979
3730.3134594725	0.0267257057
3732.2422668456	0.0251117535
3734.1710742186	0.0246681757
3736.0998815916	0.0236869641
3738.0286889647	0.0247398615
3739.9574963377	0.0262204520
3741.8863037108	0.0274602361
3743.8151110838	0.0222959220
3745.7439184569	0.0211979672
3747.6727258299	0.0262101367
3749.6015332030	0.0232345983
3751.5303405760	0.0217148624
3753.4591479491	0.0241276659
3755.3879553221	0.0257891938
3757.3167626952	0.0265396219
3759.2455700682	0.0249478407
3761.1743774413	0.0256246403
3763.1031848143	0.0269140415
3765.0319921873	0.0256549977
3766.9607995604	0.0258264765
3768.8896069334	0.0256566331
3770.8184143065	0.0247516036
3772.7472216795	0.0262051746
3774.6760290526	0.0262189396
3776.6048364256	0.0262401216
3778.5336437987	0.0257845595
3780.4624511717	0.0248483941
3782.3912585448	0.0261767060
3784.3200659178	0.0257320497
3786.2488732909	0.0254969820
3788.1776806639	0.0259439163
3790.1064880370	0.0258590970
3792.0352954100	0.0257350206
3793.9641027830	0.0260418467
3795.8929101561	0.0248652473
3797.8217175291	0.0246171393
3799.7505249022	0.0254492033
3801.6793322752	0.0211987309
3803.6081396483	0.0240885541
3805.5369470213	0.0256263055
3807.4657543944	0.0219178870
3809.3945617674	0.0254990347
3811.3233691405	0.0250200424
3813.2521765135	0.0257339776
3815.1809838866	0.0236559771
3817.1097912596	0.0213363580
3819.0385986327	0.0255724899
3820.9674060057	0.0217720214
3822.8962133787	0.0226275213
3824.8250207518	0.0254667271
3826.7538281248	0.0235698428
3828.6826354979	0.0249230415
3830.6114428709	0.0242534317
3832.5402502440	0.0235641859
3834.4690576170	0.0239890739
3836.3978649901	0.0229446180
3838.3266723631	0.0209977515
3840.2554797362	0.0225036778
3842.1842871092	0.0238618329
3844.1130944823	0.0230038278
3846.0419018553	0.0244830698
3847.9707092284	0.0241627395
3849.8995166014	0.0242482424
3851.8283239745	0.0222348180
3853.7571313475	0.0176323317
3855.6859387205	0.0200961456
3857.6147460936	0.0242931880
3859.5435534666	0.0236418098
3861.4723608397	0.0234474614
3863.4011682127	0.0230563190
3865.3299755858	0.0216698684
3867.2587829588	0.0237277113
3869.1875903319	0.0220890790
3871.1163977049	0.0207296647
3873.0452050780	0.0236912295
3874.9740124510	0.0222247317
3876.9028198241	0.0235163551
3878.8316271971	0.0239436049
3880.7604345702	0.0211771596
3882.6892419432	0.0235565398
3884.6180493162	0.0223882478
3886.5468566893	0.0208338369
3888.4756640623	0.0236020982
3890.4044714354	0.0225235391
3892.3332788084	0.0215161145
3894.2620861815	0.0231515765
3896.1908935545	0.0233802199
3898.1197009276	0.0225725863
3900.0485083006	0.0215800479
3901.9773156737	0.0213751663
3903.9061230467	0.0212016702
3905.8349304198	0.0215320475
3907.7637377928	0.0229985043
3909.6925451659	0.0229530185
3911.6213525389	0.0227713473
3913.5501599119	0.0230107121
3915.4789672850	0.0224845801
3917.4077746580	0.0219464209
3919.3365820311	0.0218528714
3921.2653894041	0.0224520322
3923.1941967772	0.0223111305
3925.1230041502	0.0219534859
3927.0518115233	0.0222395808
3928.9806188963	0.0224086922
3930.9094262694	0.0220535081
3932.8382336424	0.0215010159
3934.7670410155	0.0220491607
3936.6958483885	0.0222608279
3938.6246557616	0.0221020393
3940.5534631346	0.0222646855
3942.4822705076	0.0216110032
3944.4110778807	0.0217057429
3946.3398852537	0.0220695101
3948.2686926268	0.0215475783
3950.1974999998	0.0215457585
3952.1263073729	0.0218206905
3954.0551147459	0.0218710434
3955.9839221190	0.0217659641
3957.9127294920	0.0216968395
3959.8415368651	0.0216782391
3961.7703442381	0.0215059072
3963.6991516112	0.0215605684
3965.6279589842	0.0215326939
3967.5567663573	0.0214776546
3969.4855737303	0.0214726552
3971.4143811034	0.0213392675
3973.3431884764	0.0213375110
3975.2719958494	0.0212253891
3977.2008032225	0.0213120617
3979.1296105955	0.0213048626
3981.0584179686	0.0211108178
3982.9872253416	0.0212402139
3984.9160327147	0.0211657062
3986.8448400877	0.0210853815
3988.7736474608	0.0210668556
3990.7024548338	0.0209356174
3992.6312622069	0.0209377520
3994.5600695799	0.0208988339
3996.4888769530	0.0208656434
3998.4176843260	0.0208683498
4000.3464916991	0.0207832903
4002.2752990721	0.0207616799
4004.2041064451	0.0207474623
4006.1329138182	0.0206517074
4008.0617211912	0.0205521863
4009.9905285643	0.0204958878
4011.9193359373	0.0205617324
4013.8481433104	0.0204260610
4015.7769506834	0.0203740634
4017.7057580565	0.0204578564
4019.6345654295	0.0202968828
4021.5633728026	0.0203591697
4023.4921801756	0.0203328524
4025.4209875487	0.0202225354
4027.3497949217	0.0201814678
4029.2786022948	0.0200897399
4031.2074096678	0.0201620758
4033.1362170408	0.0200872626
4035.0650244139	0.0200364925
4036.9938317869	0.0200497080
4038.9226391600	0.0199853703
4040.8514465330	0.0199213326
4042.7802539061	0.0198836587
4044.7090612791	0.0197998583
4046.6378686522	0.0197333209
4048.5666760252	0.0198324136
4050.4954833983	0.0197652094
4052.4242907713	0.0197090097
4054.3530981444	0.0196809620
4056.2819055174	0.0195787940
4058.2107128905	0.0195555873
4060.1395202635	0.0196215548
4062.0683276365	0.0195908919
4063.9971350096	0.0194150433
4065.9259423826	0.0194500778
4067.8547497557	0.0193492565
4069.7835571287	0.0192482173
4071.7123645018	0.0192652978
4073.6411718748	0.0192415677
4075.5699792479	0.0192478858
4077.4987866209	0.0191313587
4079.4275939940	0.0191729628
4081.3564013670	0.0190982260
4083.2852087401	0.0189913902
4085.2140161131	0.0190187916
4087.1428234862	0.0189672112
4089.0716308592	0.0189208351
4091.0004382323	0.0188478939
4092.9292456053	0.0188825969
4094.8580529783	0.0188489482
4096.7868603514	0.0187450573
4098.7156677244	0.0187100358
4100.6444750975	0.0187252127
4102.5732824705	0.0186216924
4104.5020898436	0.0185626820
4106.4308972166	0.0186091401
4108.3597045897	0.0185255930
4110.2885119627	0.0185452104
4112.2173193358	0.0184374526
4114.1461267088	0.0183832608
4116.0749340819	0.0183875058
4118.0037414549	0.0183223486
4119.9325488280	0.0182985775
4121.8613562010	0.0182232223
4123.7901635740	0.0182834473
4125.7189709471	0.0181648210
4127.6477783201	0.0181072876
4129.5765856932	0.0181080177
4131.5053930662	0.0180284679
4133.4342004393	0.0179604609
4135.3630078123	0.0179086234
4137.2918151854	0.0180234909
4139.2206225584	0.0178368352
4141.1494299315	0.0177956857
4143.0782373045	0.0178670287
4145.0070446776	0.0177503172
4146.9358520506	0.0177271999
4148.8646594237	0.0176675729
4150.7934667967	0.0176818017
4152.7222741697	0.0176735912
4154.6510815428	0.0176212043
4156.5798889158	0.0175052378
4158.5086962889	0.0175523832
4160.4375036619	0.0175678395
4162.3663110350	0.0174325798
4164.2951184080	0.0174137689
4166.2239257811	0.0173976496
4168.1527331541	0.0174411219
4170.0815405272	0.0172622092
4172.0103479002	0.0171928182
4173.9391552733	0.0171926692
4175.8679626463	0.0171319284
4177.7967700194	0.0171397962
4179.7255773924	0.0170680899
4181.6543847654	0.0171514787
4183.5831921385	0.0170537177
4185.5119995115	0.0170186535
4187.4408068846	0.0169344936
4189.3696142576	0.0168149844
4191.2984216307	0.0169033818
4193.2272290037	0.0168016125
4195.1560363768	0.0167854503
4197.0848437498	0.0167266559
4199.0136511229	0.0167233460
4200.9424584959	0.0166881122
4202.8712658690	0.0166413523
4204.8000732420	0.0166510064
4206.7288806151	0.0165050197
4208.6576879881	0.0165394656
4210.5864953611	0.0164613519
4212.5153027342	0.0164703205
4214.4441101072	0.0165218674
4216.3729174803	0.0164037067
4218.3017248533	0.0164074525
4220.2305322264	0.0163015537
4222.1593395994	0.0162456185
4224.0881469725	0.0162536893
4226.0169543455	0.0161844362
4227.9457617186	0.0162145272
4229.8745690916	0.0161726382
4231.8033764647	0.0160688534
4233.7321838377	0.0161347296
4235.6609912108	0.0160684437
4237.5897985838	0.0160696171
4239.5186059569	0.0160707124
4241.4474133299	0.0159055106
4243.3762207029	0.0159448925
4245.3050280760	0.0158678479
4247.2338354490	0.0159058738
4249.1626428221	0.0158712864
4251.0914501951	0.0157469772
4253.0202575682	0.0157351941
4254.9490649412	0.0156682506
4256.8778723143	0.0158054717
4258.8066796873	0.0156502109
4260.7354870604	0.0156895500
4262.6642944334	0.0156992190
4264.5931018065	0.0154381320
4266.5219091795	0.0155568607
4268.4507165526	0.0155375060
4270.3795239256	0.0155547392
4272.3083312986	0.0154208383
4274.2371386717	0.0152825750
4276.1659460447	0.0153359119
4278.0947534178	0.0153202955
4280.0235607908	0.0153547451
4281.9523681639	0.0152331647
4283.8811755369	0.0152345039
4285.8099829100	0.0151976971
4287.7387902830	0.0151397325
4289.6675976561	0.0150795132
4291.5964050291	0.0150043061
4293.5252124022	0.0151103307
4295.4540197752	0.0150126154
4297.3828271483	0.0149267688
4299.3116345213	0.0149706490
4301.2404418943	0.0149938166
4303.1692492674	0.0149090905
4305.0980566404	0.0148565844
4307.0268640135	0.0149081387
4308.9556713865	0.0148142036
4310.8844787596	0.0147021879
4312.8132861326	0.0147311836
4314.7420935057	0.0147758396
4316.6709008787	0.0146504575
4318.5997082518	0.0145922396
4320.5285156248	0.0145579427
4322.4573229979	0.0145259574
4324.3861303709	0.0144983269
4326.3149377440	0.0144447107
4328.2437451170	0.0145002957
4330.1725524900	0.0144118415
4332.1013598631	0.0143841356
4334.0301672361	0.0143247861
4335.9589746092	0.0142901167
4337.8877819822	0.0143325068
4339.8165893553	0.0142497243
4341.7453967283	0.0142943896
4343.6742041014	0.0142577477
4345.6030114744	0.0142259430
4347.5318188475	0.0141064674
4349.4606262205	0.0140576512
4351.3894335936	0.0141222142
4353.3182409666	0.0139934169
4355.2470483397	0.0140671544
4357.1758557127	0.0140322093
4359.1046630858	0.0138963647
4361.0334704588	0.0138526522
4362.9622778318	0.0138126779
4364.8910852049	0.0138756000
4366.8198925779	0.0138601679
4368.7486999510	0.0137668122
4370.6775073240	0.0137086762
4372.6063146971	0.0137980524
4374.5351220701	0.0137687791
4376.4639294432	0.0136690745
4378.3927368162	0.0136212613
4380.3215441893	0.0135560129
4382.2503515623	0.0136383492
4384.1791589354	0.0135387480
4386.1079663084	0.0134707438
4388.0367736815	0.0135434447
4389.9655810545	0.0134142321
4391.8943884275	0.0134234820
4393.8231958006	0.0134709720
4395.7520031736	0.0133700650
4397.6808105467	0.0133251892
4399.6096179197	0.0132688731
4401.5384252928	0.0132328104
4403.4672326658	0.0132065620
4405.3960400389	0.0132262912
4407.3248474119	0.0132494634
4409.2536547850	0.0130842328
4411.1824621580	0.0130924918
4413.1112695311	0.0131695047
4415.0400769041	0.0130995773
4416.9688842772	0.0130916769
4418.8976916502	0.0130492495
4420.8264990232	0.0130442046
4422.7553063963	0.0129909767
4424.6841137693	0.0129718371
4426.6129211424	0.0129911825
4428.5417285154	0.0128638912
4430.4705358885	0.0128445523
4432.3993432615	0.0128290746
4434.3281506346	0.0128012402
4436.2569580076	0.0127723105
4438.1857653807	0.0126759307
4440.1145727537	0.0126796784
4442.0433801268	0.0126986839
4443.9721874998	0.0126340548
4445.9009948729	0.0125372792
4447.8298022459	0.0125730140
4449.7586096189	0.0125943981
4451.6874169920	0.0124890497
4453.6162243650	0.0125061525
4455.5450317381	0.0125072431
4457.4738391111	0.0124031920
4459.4026464842	0.0124196429
4461.3314538572	0.0124424621
4463.2602612303	0.0123403333
4465.1890686033	0.0123173892
4467.1178759764	0.0123134749
4469.0466833494	0.0122576933
4470.9754907225	0.0122639202
4472.9042980955	0.0122077912
4474.8331054686	0.0121550746
4476.7619128416	0.0121777551
4478.6907202147	0.0121795665
4480.6195275877	0.0121525731
4482.5483349607	0.0120764691
4484.4771423338	0.0120540494
4486.4059497068	0.0120759066
4488.3347570799	0.0119913835
4490.2635644529	0.0118663320
4492.1923718260	0.0119453678
4494.1211791990	0.0120280096
4496.0499865721	0.0118854875
4497.9787939451	0.0118279345
4499.9076013182	0.0117990449
4501.8364086912	0.0118008293
4503.7652160643	0.0118092671
4505.6940234373	0.0117498552
4507.6228308104	0.0117615787
4509.5516381834	0.0116590476
4511.4804455564	0.0116617233
4513.4092529295	0.0116167068
4515.3380603025	0.0115405824
4517.2668676756	0.0116098169
4519.1956750486	0.0115083922
4521.1244824217	0.0115352934
4523.0532897947	0.0114739882
4524.9820971678	0.0114340242
4526.9109045408	0.0114829075
4528.8397119139	0.0113800503
4530.7685192869	0.0114153530
4532.6973266600	0.0113534480
4534.6261340330	0.0113929510
4536.5549414061	0.0113759385
4538.4837487791	0.0113011915
4540.4125561521	0.0113719767
4542.3413635252	0.0112415319
4544.2701708982	0.0112172794
4546.1989782713	0.0112061705
4548.1277856443	0.0111548919
4550.0565930174	0.0111253150
4551.9854003904	0.0110991905
4553.9142077635	0.0110716578
4555.8430151365	0.0109720342
4557.7718225096	0.0110498238
4559.7006298826	0.0110403402
4561.6294372557	0.0109426305
4563.5582446287	0.0109484019
4565.4870520018	0.0109336320
4567.4158593748	0.0109317359
4569.3446667478	0.0109109320
4571.2734741209	0.0107731568
4573.2022814939	0.0107372142
4575.1310888670	0.0108215455
4577.0598962400	0.0107637402
4578.9887036131	0.0107763624
4580.9175109861	0.0106889661
4582.8463183592	0.0106553715
4584.7751257322	0.0107396543
4586.7039331053	0.0106076309
4588.6327404783	0.0105789080
4590.5615478514	0.0105309831
4592.4903552244	0.0105284825
4594.4191625975	0.0105318911
4596.3479699705	0.0104790386
4598.2767773435	0.0105297184
4600.2055847166	0.0104853278
4602.1343920896	0.0104771685
4604.0631994627	0.0104170386
4605.9920068357	0.0103220921
4607.9208142088	0.0103289504
4609.8496215818	0.0103537049
4611.7784289549	0.0102998652
4613.7072363279	0.0102818944
4615.6360437010	0.0103304181
4617.5648510740	0.0102427397
4619.4936584471	0.0102013517
4621.4224658201	0.0101276748
4623.3512731932	0.0100451922
4625.2800805662	0.0101117408
4627.2088879393	0.0101769809
4629.1376953123	0.0101299137
4631.0665026853	0.0100779794
4632.9953100584	0.0100074364
4634.9241174314	0.0098859109
4636.8529248045	0.0099830497
4638.7817321775	0.0099753132
4640.7105395506	0.0099289566
4642.6393469236	0.0099661006
4644.5681542967	0.0098984875
4646.4969616697	0.0098838815
4648.4257690428	0.0098007899
4650.3545764158	0.0098193828
4652.2833837889	0.0098935608
4654.2121911619	0.0098328171
4656.1409985350	0.0096959462
4658.0698059080	0.0096863778
4659.9986132810	0.0096784309
4661.9274206541	0.0095909284
4663.8562280271	0.0096924491
4665.7850354002	0.0096266456
4667.7138427732	0.0096209450
4669.6426501463	0.0096720001
4671.5714575193	0.0095999762
4673.5002648924	0.0095842611
4675.4290722654	0.0095073525
4677.3578796385	0.0094962064
4679.2866870115	0.0094672814
4681.2154943846	0.0094905086
4683.1443017576	0.0094164005
4685.0731091307	0.0093448609
4687.0019165037	0.0093499720
4688.9307238767	0.0093744248
4690.8595312498	0.0094641261
4692.7883386228	0.0092955520
4694.7171459959	0.0093064625
4696.6459533689	0.0093108322
4698.5747607420	0.0092703290
4700.5035681150	0.0092745945
4702.4323754881	0.0091475630
4704.3611828611	0.0092562102
4706.2899902342	0.0092541110
4708.2187976072	0.0092218034
4710.1476049803	0.0091698030
4712.0764123533	0.0091499295
4714.0052197264	0.0091770105
4715.9340270994	0.0090392474
4717.8628344724	0.0090346206
4719.7916418455	0.0090518594
4721.7204492185	0.0090596024
4723.6492565916	0.0089342967
4725.5780639646	0.0089300750
4727.5068713377	0.0089771189
4729.4356787107	0.0088946465
4731.3644860838	0.0089680599
4733.2932934568	0.0088908998
4735.2221008299	0.0087960120
4737.1509082029	0.0087869875
4739.0797155760	0.0088596186
4741.0085229490	0.0089183562
4742.9373303221	0.0088455882
4744.8661376951	0.0087415576
4746.7949450682	0.0087547898
4748.7237524412	0.0088182613
4750.6525598142	0.0086440872
4752.5813671873	0.0086898264
4754.5101745603	0.0086910678
4756.4389819334	0.0086122528
4758.3677893064	0.0086733140
4760.2965966795	0.0085678371
4762.2254040525	0.0086172838
4764.1542114256	0.0085932277
4766.0830187986	0.0085670035
4768.0118261717	0.0085784104
4769.9406335447	0.0084758243
4771.8694409178	0.0084732696
4773.7982482908	0.0084461207
4775.7270556639	0.0084839091
4777.6558630369	0.0084619522
4779.5846704099	0.0083813649
4781.5134777830	0.0084091946
4783.4422851560	0.0083932905
4785.3710925291	0.0083165113
4787.2998999021	0.0082993079
4789.2287072752	0.0082659088
4791.1575146482	0.0082617719
4793.0863220213	0.0083012711
4795.0151293943	0.0082498342
4796.9439367674	0.0082348604
4798.8727441404	0.0081516784
4800.8015515135	0.0081643742
4802.7303588865	0.0082047181
4804.6591662596	0.0080956891
4806.5879736326	0.0080842031
4808.5167810056	0.0080977911
4810.4455883787	0.0080927871
4812.3743957517	0.0080164205
4814.3032031248	0.0080661103
4816.2320104978	0.0080515323
4818.1608178709	0.0079349466
4820.0896252439	0.0080088368
4822.0184326170	0.0080026239
4823.9472399900	0.0079983287
4825.8760473631	0.0079653170
4827.8048547361	0.0078838551
4829.7336621092	0.0078449640
4831.6624694822	0.0078947376
4833.5912768553	0.0079089683
4835.5200842283	0.0078014089
4837.4488916013	0.0078067258
4839.3776989744	0.0077970689
4841.3065063474	0.0077656573
4843.2353137205	0.0077061439
4845.1641210935	0.0077444473
4847.0929284666	0.0077174781
4849.0217358396	0.0076522143
4850.9505432127	0.0077532101
4852.8793505857	0.0076573361
4854.8081579588	0.0076743998
4856.7369653318	0.0076510259
4858.6657727049	0.0075971773
4860.5945800779	0.0076621640
4862.5233874510	0.0075310757
4864.4521948240	0.0074803168
4866.3810021971	0.0074485606
4868.3098095701	0.0074971579
4870.2386169431	0.0075210985
4872.1674243162	0.0074705835
4874.0962316892	0.0074713714
4876.0250390623	0.0073997490
4877.9538464353	0.0074556675
4879.8826538084	0.0074608587
4881.8114611814	0.0073781540
4883.7402685545	0.0073415376
4885.6690759275	0.0073125390
4887.5978833006	0.0073039727
4889.5266906736	0.0073084524
4891.4554980467	0.0073070480
4893.3843054197	0.0072461627
4895.3131127928	0.0072504962
4897.2419201658	0.0072734915
4899.1707275388	0.0071957237
4901.0995349119	0.0071546864
4903.0283422849	0.0072033629
4904.9571496580	0.0071735568
4906.8859570310	0.0071531218
4908.8147644041	0.0071160011
4910.7435717771	0.0070373253
4912.6723791502	0.0071000913
4914.6011865232	0.0070957178
4916.5299938963	0.0070982883
4918.4588012693	0.0070519722
4920.3876086424	0.0069398498
4922.3164160154	0.0069821263
4924.2452233885	0.0069837626
4926.1740307615	0.0069662444
4928.1028381345	0.0069401562
4930.0316455076	0.0068984474
4931.9604528806	0.0069032172
4933.8892602537	0.0068842745
4935.8180676267	0.0068152850
4937.7468749998	0.0068633771
4939.6756823728	0.0068757292
4941.6044897459	0.0067450344
4943.5332971189	0.0067687859
4945.4621044920	0.0067174062
4947.3909118650	0.0067405021
4949.3197192381	0.0068189157
4951.2485266111	0.0067279199
4953.1773339842	0.0067581506
4955.1061413572	0.0067258570
4957.0349487302	0.0066895504
4958.9637561033	0.0066805636
4960.8925634763	0.0066013606
4962.8213708494	0.0065937908
4964.7501782224	0.0066910554
4966.6789855955	0.0067068851
4968.6077929685	0.0065900404
4970.5366003416	0.0066132946
4972.4654077146	0.0065599284
4974.3942150877	0.0065492820
4976.3230224607	0.0065845726
4978.2518298338	0.0064805672
4980.1806372068	0.0065449318
4982.1094445799	0.0065144729
4984.0382519529	0.0064436407
4985.9670593259	0.0064653829
4987.8958666990	0.0064290026
4989.8246740720	0.0064347433
4991.7534814451	0.0064061983
4993.6822888181	0.0063780779
4995.6110961912	0.0063359728
4997.5399035642	0.0063565141
4999.4687109373	0.0063924519
5001.3975183103	0.0062511051
5003.3263256834	0.0062084598
5005.2551330564	0.0062704668
5007.1839404295	0.0063036159
5009.1127478025	0.0062901401
5011.0415551756	0.0062240432
5012.9703625486	0.0062547196
5014.8991699217	0.0062296111
5016.8279772947	0.0061863884
5018.7567846677	0.0062019639
5020.6855920408	0.0061613559
5022.6143994138	0.0061623780
5024.5432067869	0.0061617442
5026.4720141599	0.0061739339
5028.4008215330	0.0061349655
5030.3296289060	0.0060657952
5032.2584362791	0.0060571842
5034.1872436521	0.0060551045
5036.1160510252	0.0060221143
5038.0448583982	0.0059517520
5039.9736657713	0.0060503986
5041.9024731443	0.0060126847
5043.8312805174	0.0059417970
5045.7600878904	0.0060173338
5047.6888952634	0.0059533622
5049.6177026365	0.0059976699
5051.5465100095	0.0058978330
5053.4753173826	0.0058526588
5055.4041247556	0.0059060422
5057.3329321287	0.0057796063
5059.2617395017	0.0058453111
5061.1905468748	0.0057901563
5063.1193542478	0.0057701720
5065.0481616209	0.0057956697
5066.9769689939	0.0057186559
5068.9057763670	0.0058096880
5070.8345837400	0.0057929317
5072.7633911131	0.0057673366
5074.6921984861	0.0057364455
5076.6210058591	0.0056923069
5078.5498132322	0.0056699552
5080.4786206052	0.0056684362
5082.4074279783	0.0057369610
5084.3362353513	0.0056517152
5086.2650427244	0.0056177741
5088.1938500974	0.0055887504
5090.1226574705	0.0056262733
5092.0514648435	0.0056900131
5093.9802722166	0.0055657867
5095.9090795896	0.0055943890
5097.8378869627	0.0055320337
5099.7666943357	0.0055097146
5101.6955017088	0.0055883438
5103.6243090818	0.0054685641
5105.5531164548	0.0055086846
5107.4819238279	0.0055344123
5109.4107312009	0.0054610516
5111.3395385740	0.0054527605
5113.2683459470	0.0054331571
5115.1971533201	0.0054204678
5117.1259606931	0.0054640118
5119.0547680662	0.0054453616
5120.9835754392	0.0053288843
5122.9123828123	0.0054433309
5124.8411901853	0.0054507861
5126.7699975584	0.0053791832
5128.6988049314	0.0054222429
5130.6276123045	0.0052915248
5132.5564196775	0.0053017102
5134.4852270506	0.0052935220
5136.4140344236	0.0052912021
5138.3428417966	0.0053066341
5140.2716491697	0.0052058580
5142.2004565427	0.0053089121
5144.1292639158	0.0052988576
5146.0580712888	0.0052111577
5147.9868786619	0.0051985914
5149.9156860349	0.0051899953
5151.8444934080	0.0051900600
5153.7733007810	0.0051480555
5155.7021081541	0.0050910925
5157.6309155271	0.0050501116
5159.5597229002	0.0051851701
5161.4885302732	0.0051931432
5163.4173376463	0.0050918013
5165.3461450193	0.0050806543
5167.2749523923	0.0050838934
5169.2037597654	0.0050792638
5171.1325671384	0.0050170529
5173.0613745115	0.0050694942
5174.9901818845	0.0050422330
5176.9189892576	0.0050304085
5178.8477966306	0.0050718328
5180.7766040037	0.0050238655
5182.7054113767	0.0050161099
5184.6342187498	0.0049238699
5186.5630261228	0.0049452647
5188.4918334959	0.0050356630
5190.4206408689	0.0049778474
5192.3494482420	0.0048619313
5194.2782556150	0.0049089040
5196.2070629880	0.0049262391
5198.1358703611	0.0048142173
5200.0646777341	0.0048962487
5201.9934851072	0.0049185809
5203.9222924802	0.0049049901
5205.8510998533	0.0047701746
5207.7799072263	0.0046823677
5209.7087145994	0.0048330026
5211.6375219724	0.0048081162
5213.5663293455	0.0048113349
5215.4951367185	0.0047898446
5217.4239440916	0.0047677271
5219.3527514646	0.0047399085
5221.2815588377	0.0047399784
5223.2103662107	0.0048185689
5225.1391735837	0.0046646269
5227.0679809568	0.0046829302
5228.9967883298	0.0047443788
5230.9255957029	0.0046541723
5232.8544030759	0.0046478836
5234.7832104490	0.0046784496
5236.7120178220	0.0046928260
5238.6408251951	0.0046053352
5240.5696325681	0.0046510766
5242.4984399412	0.0046982951
5244.4272473142	0.0046112854
5246.3560546873	0.0045631295
5248.2848620603	0.0044422690
5250.2136694334	0.0044636568
5252.1424768064	0.0046285628
5254.0712841795	0.0045411093
5256.0000915525	0.0044750124
5257.9288989255	0.0045341961
5259.8577062986	0.0044985781
5261.7865136716	0.0044778818
5263.7153210447	0.0043978207
5265.6441284177	0.0044325721
5267.5729357908	0.0044621215
5269.5017431638	0.0044388175
5271.4305505369	0.0045447489
5273.3593579099	0.0044548013
5275.2881652830	0.0044622300
5277.2169726560	0.0044921357
5279.1457800291	0.0043647354
5281.0745874021	0.0043693166
5283.0033947752	0.0043896837
5284.9322021482	0.0044266251
5286.8610095212	0.0044169063
5288.7898168943	0.0043514641
5290.7186242673	0.0043217000
5292.6474316404	0.0043175034
5294.5762390134	0.0042814389
5296.5050463865	0.0043016765
5298.4338537595	0.0043016318
5300.3626611326	0.0042326716
5302.2914685056	0.0043217018
5304.2202758787	0.0042967936
5306.1490832517	0.0042056111
5308.0778906248	0.0042029573
5310.0066979978	0.0042462116
5311.9355053709	0.0042720619
5313.8643127439	0.0041748034
5315.7931201169	0.0041671288
5317.7219274900	0.0041655963
5319.6507348630	0.0041433773
5321.5795422361	0.0041222908
5323.5083496091	0.0041945237
5325.4371569822	0.0042130724
5327.3659643552	0.0040747244
5329.2947717283	0.0041210344
5331.2235791013	0.0040623974
5333.1523864744	0.0039853603
5335.0811938474	0.0040586162
5337.0100012205	0.0040373704
5338.9388085935	0.0039648758
5340.8676159666	0.0040585147
5342.7964233396	0.0041271094
5344.7252307126	0.0039326679
5346.6540380857	0.0039945878
5348.5828454587	0.0040103169
5350.5116528318	0.0039546527
5352.4404602048	0.0040556574
5354.3692675779	0.0038998914
5356.2980749509	0.0038924706
5358.2268823240	0.0039453381
5360.1556896970	0.0039367080
5362.0844970701	0.0039710458
5364.0133044431	0.0039305333
5365.9421118162	0.0039017228
5367.8709191892	0.0038640220
5369.7997265623	0.0039280560
5371.7285339353	0.0038975079
5373.6573413083	0.0038746933
5375.5861486814	0.0038628813
5377.5149560544	0.0037725007
5379.4437634275	0.0038319135
5381.3725708005	0.0037954289
5383.3013781736	0.0038537183
5385.2301855466	0.0039197225
5387.1589929197	0.0037514661
5389.0878002927	0.0037446860
5391.0166076658	0.0038231236
5392.9454150388	0.0037350992
5394.8742224119	0.0036625792
5396.8030297849	0.0037572901
5398.7318371580	0.0037614866
5400.6606445310	0.0037907641
5402.5894519041	0.0038131184
5404.5182592771	0.0036744562
5406.4470666501	0.0037344401
5408.3758740232	0.0036981176
5410.3046813962	0.0036449381
5412.2334887693	0.0036994556
5414.1622961423	0.0035817288
5416.0911035154	0.0036643965
5418.0199108884	0.0037025618
5419.9487182615	0.0036782755
5421.8775256345	0.0037238654
5423.8063330076	0.0036173144
5425.7351403806	0.0036870283
5427.6639477537	0.0036069304
5429.5927551267	0.0034546042
5431.5215624998	0.0036275631
5433.4503698728	0.0035972830
5435.3791772458	0.0034479592
5437.3079846189	0.0035216098
5439.2367919919	0.0035628360
5441.1655993650	0.0034723091
5443.0944067380	0.0034751501
5445.0232141111	0.0034585167
5446.9520214841	0.0033883010
5448.8808288572	0.0034451610
5450.8096362302	0.0034612883
5452.7384436033	0.0034760199
5454.6672509763	0.0034732404
5456.5960583494	0.0034222479
5458.5248657224	0.0034195364
5460.4536730955	0.0033525934
5462.3824804685	0.0033592898
5464.3112878415	0.0034256161
5466.2400952146	0.0034188586
5468.1689025876	0.0034111622
5470.0977099607	0.0034024199
5472.0265173337	0.0034179958
5473.9553247068	0.0033682419
5475.8841320798	0.0033058692
5477.8129394529	0.0033343548
5479.7417468259	0.0033149896
5481.6705541990	0.0033677216
5483.5993615720	0.0034134840
5485.5281689451	0.0033276984
5487.4569763181	0.0033657961
5489.3857836912	0.0034015342
5491.3145910642	0.0033042270
5493.2433984372	0.0032215167
5495.1722058103	0.0032919557
5497.1010131833	0.0033525247
5499.0298205564	0.0032819461
5500.9586279294	0.0033285427
5502.8874353025	0.0032807295
5504.8162426755	0.0032500224
5506.7450500486	0.0033259229
5508.6738574216	0.0031864704
5510.6026647947	0.0032011126
5512.5314721677	0.0032837910
5514.4602795408	0.0032055366
5516.3890869138	0.0031822394
5518.3178942869	0.0031594052
5520.2467016599	0.0031595570
5522.1755090330	0.0031670728
5524.1043164060	0.0031655361
5526.0331237790	0.0031793001
5527.9619311521	0.0031590560
5529.8907385251	0.0031503430
5531.8195458982	0.0031452198
5533.7483532712	0.0031296536
5535.6771606443	0.0030991440
5537.6059680173	0.0030764877
5539.5347753904	0.0031665550
5541.4635827634	0.0031753536
5543.3923901365	0.0030785287
5545.3211975095	0.0031156018
5547.2500048826	0.0030976906
5549.1788122556	0.0030900054
5551.1076196287	0.0031091454
5553.0364270017	0.0030173855
5554.9652343747	0.0030460164
5556.8940417478	0.0030585995
5558.8228491208	0.0030100858
5560.7516564939	0.0030051512
5562.6804638669	0.0029820642
5564.6092712400	0.0029717460
5566.5380786130	0.0029997185
5568.4668859861	0.0030174383
5570.3956933591	0.0029634996
5572.3245007322	0.0030084648
5574.2533081052	0.0030435347
5576.1821154783	0.0029854514
5578.1109228513	0.0029842425
5580.0397302244	0.0029970068
5581.9685375974	0.0030039959
5583.8973449704	0.0029308121
5585.8261523435	0.0028890648
5587.7549597165	0.0028794976
5589.6837670896	0.0029227994
5591.6125744626	0.0029916114
5593.5413818357	0.0028708084
5595.4701892087	0.0028695015
5597.3989965818	0.0029157542
5599.3278039548	0.0028434584
5601.2566113279	0.0028286967
5603.1854187009	0.0027966441
5605.1142260740	0.0028517335
5607.0430334470	0.0028970216
5608.9718408201	0.0028121327
5610.9006481931	0.0028094091
5612.8294555661	0.0028097001
5614.7582629392	0.0027986355
5616.6870703122	0.0028593114
5618.6158776853	0.0028070253
5620.5446850583	0.0027760444
5622.4734924314	0.0028292791
5624.4022998044	0.0027855462
5626.3311071775	0.0027364255
5628.2599145505	0.0026883227
5630.1887219236	0.0027105815
5632.1175292966	0.0027356385
5634.0463366697	0.0026769494
5635.9751440427	0.0026896247
5637.9039514158	0.0027304366
5639.8327587888	0.0027399953
5641.7615661619	0.0027180389
5643.6903735349	0.0027377624
5645.6191809079	0.0026913746
5647.5479882810	0.0026441966
5649.4767956540	0.0027089077
5651.4056030271	0.0026966184
5653.3344104001	0.0026905346
5655.2632177732	0.0026457054
5657.1920251462	0.0026386194
5659.1208325193	0.0026583530
5661.0496398923	0.0026381644
5662.9784472654	0.0027261709
5664.9072546384	0.0026846584
5666.8360620115	0.0026300119
5668.7648693845	0.0026539024
5670.6936767576	0.0026030936
5672.6224841306	0.0025707134
5674.5512915036	0.0025964640
5676.4800988767	0.0025947033
5678.4089062497	0.0025606686
5680.3377136228	0.0026145135
5682.2665209958	0.0025961725
5684.1953283689	0.0025610742
5686.1241357419	0.0025391835
5688.0529431150	0.0024736070
5689.9817504880	0.0025067383
5691.9105578611	0.0025276286
5693.8393652341	0.0025180855
5695.7681726072	0.0024843146
5697.6969799802	0.0024957950
5699.6257873533	0.0025000628
5701.5545947263	0.0024586115
5703.4834020993	0.0024462172
5705.4122094724	0.0024790529
5707.3410168454	0.0025289492
5709.2698242185	0.0024131611
5711.1986315915	0.0024324707
5713.1274389646	0.0024697019
5715.0562463376	0.0024027866
5716.9850537107	0.0024279803
5718.9138610837	0.0023953479
5720.8426684568	0.0024359901
5722.7714758298	0.0023755054
5724.7002832029	0.0023557423
5726.6290905759	0.0024310199
5728.5578979490	0.0024057259
5730.4867053220	0.0023961714
5732.4155126950	0.0023379393
5734.3443200681	0.0023966215
5736.2731274411	0.0023548338
5738.2019348142	0.0022784779
5740.1307421872	0.0023374350
5742.0595495603	0.0023261583
5743.9883569333	0.0023047596
5745.9171643064	0.0022975132
5747.8459716794	0.0023480747
5749.7747790525	0.0023008967
5751.7035864255	0.0022898857
5753.6323937986	0.0023010757
5755.5612011716	0.0022693125
5757.4900085447	0.0023061880
5759.4188159177	0.0022959544
5761.3476232907	0.0023020934
5763.2764306638	0.0022120578
5765.2052380368	0.0022149226
5767.1340454099	0.0022624070
5769.0628527829	0.0022451319
5770.9916601560	0.0022736697
5772.9204675290	0.0022342559
5774.8492749021	0.0022205336
5776.7780822751	0.0021904493
5778.7068896482	0.0022603367
5780.6356970212	0.0021964870
5782.5645043943	0.0021479218
5784.4933117673	0.0022759777
5786.4221191404	0.0021469947
5788.3509265134	0.0021557165
5790.2797338865	0.0022120236
5792.2085412595	0.0021387744
5794.1373486325	0.0021584313
5796.0661560056	0.0021780380
5797.9949633786	0.0021464752
5799.9237707517	0.0021053627
5801.8525781247	0.0021133707
5803.7813854978	0.0021493211
5805.7101928708	0.0022024373
5807.6390002439	0.0021076635
5809.5678076169	0.0021295701
5811.4966149900	0.0021420226
5813.4254223630	0.0020116419
5815.3542297361	0.0021390351
5817.2830371091	0.0021465989
5819.2118444822	0.0020605680
5821.1406518552	0.0020896299
5823.0694592282	0.0021248171
5824.9982666013	0.0020844950
5826.9270739743	0.0020375126
5828.8558813474	0.0020904960
5830.7846887204	0.0020713536
5832.7134960935	0.0020844273
5834.6423034665	0.0020451769
5836.5711108396	0.0020509386
5838.4999182126	0.0020699725
5840.4287255857	0.0020190156
5842.3575329587	0.0020488901
5844.2863403318	0.0020028241
5846.2151477048	0.0020479814
5848.1439550779	0.0019993342
5850.0727624509	0.0019331514
5852.0015698239	0.0019848240
5853.9303771970	0.0019305248
5855.8591845700	0.0019885269
5857.7879919431	0.0019758886
5859.7167993161	0.0019665465
5861.6456066892	0.0020340569
5863.5744140622	0.0019104090
5865.5032214353	0.0018930468
5867.4320288083	0.0019745824
5869.3608361814	0.0019288803
5871.2896435544	0.0019512406
5873.2184509275	0.0019194590
5875.1472583005	0.0018605195
5877.0760656736	0.0019328094
5879.0048730466	0.0018888382
5880.9336804196	0.0019157215
5882.8624877927	0.0019292774
5884.7912951657	0.0018661388
5886.7201025388	0.0019127976
5888.6489099118	0.0018473677
5890.5777172849	0.0018250003
5892.5065246579	0.0019033109
5894.4353320310	0.0019214856
5896.3641394040	0.0018688678
5898.2929467771	0.0018933904
5900.2217541501	0.0019101130
5902.1505615232	0.0017955240
5904.0793688962	0.0017594205
5906.0081762693	0.0018270635
5907.9369836423	0.0019031210
5909.8657910154	0.0017832720
5911.7945983884	0.0017867326
5913.7234057614	0.0018497990
5915.6522131345	0.0017796560
5917.5810205075	0.0018556581
5919.5098278806	0.0017722062
5921.4386352536	0.0018068713
5923.3674426267	0.0018580193
5925.2962499997	0.0017306497
5927.2250573728	0.0017673294
5929.1538647458	0.0017633501
5931.0826721189	0.0018085329
5933.0114794919	0.0017790173
5934.9402868650	0.0017281051
5936.8690942380	0.0017849623
5938.7979016111	0.0017479116
5940.7267089841	0.0017442127
5942.6555163571	0.0017721945
5944.5843237302	0.0018183312
5946.5131311032	0.0017990788
5948.4419384763	0.0017182161
5950.3707458493	0.0016973298
5952.2995532224	0.0017160333
5954.2283605954	0.0017235104
5956.1571679685	0.0016927882
5958.0859753415	0.0016969987
5960.0147827146	0.0017467416
5961.9435900876	0.0017506359
5963.8723974607	0.0016753841
5965.8012048337	0.0016345765
5967.7300122068	0.0016543835
5969.6588195798	0.0016808072
5971.5876269528	0.0016396162
5973.5164343259	0.0016700646
5975.4452416989	0.0017199363
5977.3740490720	0.0016001940
5979.3028564450	0.0016080881
5981.2316638181	0.0015957914
5983.1604711911	0.0015433474
5985.0892785642	0.0016219122
5987.0180859372	0.0016260918
5988.9468933103	0.0015983661
5990.8757006833	0.0015495690
5992.8045080564	0.0015517813
5994.7333154294	0.0015970445
5996.6621228025	0.0016265993
5998.5909301755	0.0015658676
6000.5197375485	0.0014969073
