399.2631262207	1.2177692652
401.1919335938	0.1566141695
403.1207409668	0.3371322155
405.0495483398	-0.1154036149
406.9783557129	1.8199760914
408.9071630859	0.6746672988
410.8359704590	0.4100002348
412.7647778320	1.4092594385
414.6935852051	0.1858838648
416.6223925781	0.4149219394
418.5511999512	-0.0820051879
420.4800073242	0.5907559991
422.4088146973	0.5671502352
424.3376220703	0.0816551223
426.2664294434	0.4968133271
428.1952368164	0.1693545431
430.1240441895	0.7165249586
432.0528515625	0.6343212128
433.9816589355	0.7509377599
435.9104663086	0.5587980747
437.8392736816	0.7627049685
439.7680810547	1.4463505745
441.6968884277	0.1446384639
443.6256958008	0.5193479061
445.5545031738	1.3953852654
447.4833105469	1.4277548790
449.4121179199	0.8157883883
451.3409252930	0.2019149959
453.2697326660	0.5230686665
455.1985400391	-0.0721123368
457.1273474121	0.8037667274
459.0561547852	0.5172470212
460.9849621582	0.2625896931
462.9137695313	0.6284132004
464.8425769043	0.1267178953
466.7713842773	1.6975392103
468.7001916504	0.3995152712
470.6289990234	0.7865361571
472.5578063965	0.2449517846
474.4866137695	-0.1077206507
476.4154211426	0.3767766058
478.3442285156	-0.0126087107
480.2730358887	0.6137266755
482.2018432617	2.6620879173
484.1306506348	1.3633285761
486.0594580078	2.2802896500
487.9882653809	1.1404883862
489.9170727539	0.2664457560
491.8458801270	-1.0192041397
493.7746875000	-0.1393185556
495.7034948730	-0.2706364989
497.6323022461	1.1258780956
499.5611096191	0.3858170807
501.4899169922	2.2255430222
503.4187243652	-1.7349188328
505.3475317383	1.9167553186
507.2763391113	0.6117210388
509.2051464844	0.3231054842
511.1339538574	-0.2839867771
513.0627612305	-0.8584186435
514.9915686035	-0.1314565688
516.9203759766	0.2056245804
518.8491833496	0.5741508603
520.7779907227	0.6925314665
522.7067980957	0.7258827090
524.6356054688	0.0826177597
526.5644128418	0.3003675938
528.4932202148	1.8795377016
530.4220275879	0.5827084184
532.3508349609	0.3380991518
534.2796423340	0.1658193469
536.2084497070	0.3996964395
538.1372570801	0.8198355436
540.0660644531	0.7324849963
541.9948718262	0.0284583513
543.9236791992	1.1732928753
545.8524865723	-1.9980491400
547.7812939453	-2.4192476273
549.7101013184	1.7052881718
551.6389086914	-0.0801437274
553.5677160645	-0.1830517203
555.4965234375	0.6429715753
557.4253308105	0.8977762461
559.3541381836	0.5298889875
561.2829455566	1.7315576077
563.2117529297	-0.2118050009
565.1405603027	-0.3825676143
567.0693676758	2.1810746193
568.9981750488	-1.2150204182
570.9269824219	-0.5349734426
572.8557897949	1.4745297432
574.7845971680	-2.1444590092
576.7134045410	-1.2963702679
578.6422119141	-10.2990932465
580.5710192871	0.5401521921
582.4998266602	-0.3081393838
584.4286340332	-3.2322993279
586.3574414063	1.8621234894
588.2862487793	-1.1661964655
590.2150561523	4.0806636810
592.1438635254	-0.0790686235
594.0726708984	-0.0759440735
596.0014782715	-1.3988515139
597.9302856445	-1.5103542805
599.8590930176	-0.2333397269
601.7879003906	5.1682233810
603.7167077637	-0.0521397293
605.6455151367	-0.1145420521
607.5743225098	0.3350757062
609.5031298828	0.6537477374
611.4319372559	1.5097596645
613.3607446289	1.3229607344
615.2895520020	6.6578488350
617.2183593750	0.2803796530
619.1471667480	-0.0077987085
621.0759741211	1.7653466463
623.0047814941	6.5060653687
624.9335888672	-6.1220111847
626.8623962402	3.1997334957
628.7912036133	-0.1290593445
630.7200109863	0.1974436492
632.6488183594	-0.0574222393
634.5776257324	0.2985287309
636.5064331055	0.7041676044
638.4352404785	0.6455453038
640.3640478516	0.7557368875
642.2928552246	0.7811117172
644.2216625977	0.7575439811
646.1504699707	0.7090979815
648.0792773438	0.6769089699
650.0080847168	0.7127781510
651.9368920898	0.5498190522
653.8656994629	0.8100517392
655.7945068359	0.6928523779
657.7233142090	0.3873014748
659.6521215820	0.9058772326
661.5809289551	0.7757945657
663.5097363281	0.7626043558
665.4385437012	0.9637281299
667.3673510742	0.6464389563
669.2961584473	0.7678903341
671.2249658203	0.6432836056
673.1537731934	0.7919764519
675.0825805664	0.9559559822
677.0113879395	0.6207910776
678.9401953125	0.8185723424
680.8690026855	0.6294674873
682.7978100586	0.4212322533
684.7266174316	0.6818268299
686.6554248047	0.6452426314
688.5842321777	0.7272343636
690.5130395508	0.8253098130
692.4418469238	0.7119796276
694.3706542969	0.7244884968
696.2994616699	0.5933220983
698.2282690430	0.6517704725
700.1570764160	0.7651761174
702.0858837891	0.7032412887
704.0146911621	0.6352365613
705.9434985352	0.6812849045
707.8723059082	0.7982268929
709.8011132813	0.8868811131
711.7299206543	1.2670792341
713.6587280273	0.9574550986
715.5875354004	0.9970160127
717.5163427734	1.7998406887
719.4451501465	0.5575038195
721.3739575195	-2.2474422455
723.3027648926	1.9069728851
725.2315722656	-0.0378725380
727.1603796387	1.0851294994
729.0891870117	-0.3359091580
731.0179943848	-0.3145528734
732.9468017578	1.0181059837
734.8756091309	0.5021306872
736.8044165039	0.2300562114
738.7332238770	-13.5517311096
740.6620312500	-88.9322433472
742.5908386230	-0.0327016264
744.5196459961	28.2001743317
746.4484533691	5.7132387161
748.3772607422	0.6534056067
750.3060681152	1.1653307676
752.2348754883	2.1331081390
754.1636828613	1.5518069267
756.0924902344	0.0688106194
758.0212976074	1.1204535961
759.9501049805	0.5055357218
761.8789123535	2.0642015934
763.8077197266	-60.7557258606
765.7365270996	0.7468858957
767.6653344727	3.2819969654
769.5941418457	1.8539077044
771.5229492188	2.0626077652
773.4517565918	1.7470599413
775.3805639648	0.7238885164
777.3093713379	0.6722083688
779.2381787109	0.0599433705
781.1669860840	1.5880153179
783.0957934570	-314.2794799805
785.0246008301	0.3577312827
786.9534082031	0.9174509645
788.8822155762	-54.2439651489
790.8110229492	-1.4062267542
792.7398303223	0.8387099504
794.6686376953	0.3986068368
796.5974450684	1.1315616369
798.5262524414	1.3918830156
800.4550598145	0.8536220193
802.3838671875	1.1511188745
804.3126745605	0.2250328660
806.2414819336	0.1225372925
808.1702893066	0.5159804821
810.0990966797	4.4538412094
812.0279040527	1.2160602808
813.9567114258	0.6521712542
815.8855187988	2.1124072075
817.8143261719	0.1479859352
819.7431335449	1.1099972725
821.6719409180	0.5012500882
823.6007482910	0.2619722784
825.5295556641	0.9971476197
827.4583630371	0.7473200560
829.3871704102	1.7924031019
831.3159777832	0.8883965611
833.2447851563	0.4961883724
835.1735925293	1.0988254547
837.1023999023	0.8234775662
839.0312072754	0.8823952079
840.9600146484	1.0250468254
842.8888220215	0.7472568154
844.8176293945	0.6547971964
846.7464367676	0.9961755872
848.6752441406	1.1671380997
850.6040515137	0.8292788863
852.5328588867	0.6279895306
854.4616662598	0.5426284075
856.3904736328	1.5638458729
858.3192810059	0.9285063744
860.2480883789	1.3202970028
862.1768957520	0.9229179025
864.1057031250	0.6103892326
866.0345104980	1.5407270193
867.9633178711	0.7336207032
869.8921252441	1.7623353004
871.8209326172	6.4723248482
873.7497399902	-0.3086484969
875.6785473633	4.5566072464
877.6073547363	-16.4629268646
879.5361621094	0.8998311162
881.4649694824	0.5311679840
883.3937768555	1.2724721432
885.3225842285	1.1068885326
887.2513916016	0.4692178071
889.1801989746	0.7143223882
891.1090063477	2.3162927628
893.0378137207	0.6145941019
894.9666210938	0.1738620698
896.8954284668	0.0731237754
898.8242358398	0.2575176954
900.7530432129	0.5867114067
902.6818505859	0.8566925526
904.6106579590	0.4150210619
906.5394653320	1.3960046768
908.4682727051	0.9611589313
910.3970800781	0.3719584942
912.3258874512	1.3396517038
914.2546948242	0.9404646754
916.1835021973	0.8163127899
918.1123095703	0.8470388055
920.0411169434	0.5255839825
921.9699243164	0.8680055737
923.8987316895	0.8384917974
925.8275390625	0.9488225579
927.7563464355	0.9102582932
929.6851538086	0.9072236419
931.6139611816	1.2388139963
933.5427685547	1.1096941233
935.4715759277	0.9191539884
937.4003833008	0.6740873456
939.3291906738	0.7401425242
941.2579980469	0.7257402539
943.1868054199	0.7901044488
945.1156127930	1.0731587410
947.0444201660	0.8182677031
948.9732275391	0.8917854428
950.9020349121	0.9321867228
952.8308422852	0.7875698209
954.7596496582	0.7526358366
956.6884570313	0.8277385235
958.6172644043	1.0153138638
960.5460717773	1.0284397602
962.4748791504	0.9836105108
964.4036865234	1.0040606260
966.3324938965	1.0972477198
968.2613012695	0.8285080194
970.1901086426	0.8910142183
972.1189160156	0.8158980012
974.0477233887	0.5847398043
975.9765307617	1.2333575487
977.9053381348	1.2050148249
979.8341455078	0.7785037756
981.7629528809	0.7684906125
983.6917602539	0.7959369421
985.6205676270	0.7888433933
987.5493750000	0.7079398632
989.4781823730	0.8118250966
991.4069897461	0.7838664651
993.3357971191	0.7128051519
995.2646044922	0.7993091941
997.1934118652	0.8098732829
999.1222192383	0.7953361273
1001.0510266113	0.7976444960
1002.9798339844	0.8020007014
1004.9086413574	0.7505939007
1006.8374487305	0.7415799499
1008.7662561035	0.7696589231
1010.6950634766	0.7497734427
1012.6238708496	0.7375455499
1014.5526782227	0.7490303516
1016.4814855957	0.7404846549
1018.4102929688	0.7189319730
1020.3391003418	0.7637448311
1022.2679077148	0.7259663939
1024.1967150879	0.6864945889
1026.1255224609	0.7278192639
1028.0543298340	0.7183378935
1029.9831372070	0.7439935803
1031.9119445801	0.7233087420
1033.8407519531	0.7183288336
1035.7695593262	0.7573839426
1037.6983666992	0.7221465707
1039.6271740723	0.7412672043
1041.5559814453	0.7387816906
1043.4847888184	0.7258545160
1045.4135961914	0.7342809439
1047.3424035645	0.7210244536
1049.2712109375	0.7418537736
1051.2000183105	0.7415969968
1053.1288256836	0.7379641533
1055.0576330566	0.7171001434
1056.9864404297	0.7166860700
1058.9152478027	0.7437399626
1060.8440551758	0.7199007273
1062.7728625488	0.7044122815
1064.7016699219	0.7190389037
1066.6304772949	0.7590484023
1068.5592846680	0.7395213842
1070.4880920410	0.7162505388
1072.4168994141	0.7464364171
1074.3457067871	0.7134561539
1076.2745141602	0.7125918865
1078.2033215332	0.7401877046
1080.1321289062	0.7068668604
1082.0609362793	0.7317893505
1083.9897436523	0.7383798361
1085.9185510254	0.7041069269
1087.8473583984	0.7537615895
1089.7761657715	0.7224140167
1091.7049731445	0.7221890092
1093.6337805176	0.7919539809
1095.5625878906	0.7293874621
1097.4913952637	0.7534992099
1099.4202026367	0.7546954155
1101.3490100098	0.7033134103
1103.2778173828	0.7386629581
1105.2066247559	0.7736984491
1107.1354321289	0.7543686628
1109.0642395019	0.7589682341
1110.9930468750	0.7680002451
1112.9218542480	0.6861600876
1114.8506616211	0.7937101126
1116.7794689941	0.7916876674
1118.7082763672	0.7262806892
1120.6370837402	0.8278753161
1122.5658911133	0.7027844191
1124.4946984863	0.7801032662
1126.4235058594	0.8002040386
1128.3523132324	0.6755909324
1130.2811206055	0.8206093311
1132.2099279785	0.7816632390
1134.1387353516	0.7038050294
1136.0675427246	0.7617423534
1137.9963500977	0.7528544664
1139.9251574707	0.7007551193
1141.8539648437	0.7340091467
1143.7827722168	0.7281752229
1145.7115795898	0.7092073560
1147.6403869629	0.7608484030
1149.5691943359	0.7188062072
1151.4980017090	0.7391469479
1153.4268090820	0.7532311678
1155.3556164551	0.7047769427
1157.2844238281	0.7246082425
1159.2132312012	0.7441082597
1161.1420385742	0.7504590750
1163.0708459473	0.6985101104
1164.9996533203	0.6863018274
1166.9284606934	0.7067828774
1168.8572680664	0.7100725770
1170.7860754394	0.7315647006
1172.7148828125	0.6707435250
1174.6436901855	0.6706949472
1176.5724975586	0.7152535915
1178.5013049316	0.7016785741
1180.4301123047	0.7146182656
1182.3589196777	0.7074532509
1184.2877270508	0.7109784484
1186.2165344238	0.7102273107
1188.1453417969	0.6849895716
1190.0741491699	0.6966351867
1192.0029565430	0.7118030787
1193.9317639160	0.7084904313
1195.8605712891	0.6884041429
1197.7893786621	0.6916915774
1199.7181860351	0.6988471150
1201.6469934082	0.6811392307
1203.5758007812	0.6729091406
1205.5046081543	0.6680858135
1207.4334155273	0.6817274094
1209.3622229004	0.6888359189
1211.2910302734	0.6872392297
1213.2198376465	0.6878158450
1215.1486450195	0.6804483533
1217.0774523926	0.6835830808
1219.0062597656	0.6709158421
1220.9350671387	0.6680880785
1222.8638745117	0.6727892160
1224.7926818848	0.6750638485
1226.7214892578	0.6869887710
1228.6502966308	0.6730303764
1230.5791040039	0.6733616590
1232.5079113769	0.6778907180
1234.4367187500	0.6729173660
1236.3655261230	0.6773850918
1238.2943334961	0.6796945333
1240.2231408691	0.6801949143
1242.1519482422	0.6612842679
1244.0807556152	0.6689549685
1246.0095629883	0.6803028584
1247.9383703613	0.6636462212
1249.8671777344	0.6783571839
1251.7959851074	0.6918704510
1253.7247924805	0.6779114008
1255.6535998535	0.6723516583
1257.5824072266	0.6798582077
1259.5112145996	0.6761800051
1261.4400219726	0.6766685843
1263.3688293457	0.6858040690
1265.2976367187	0.6786718369
1267.2264440918	0.6725023985
1269.1552514648	0.6754945517
1271.0840588379	0.6733061075
1273.0128662109	0.6621024013
1274.9416735840	0.6745281219
1276.8704809570	0.6804903150
1278.7992883301	0.6649668217
1280.7280957031	0.6754354239
1282.6569030762	0.6860481501
1284.5857104492	0.6824696064
1286.5145178223	0.6686336994
1288.4433251953	0.6692066193
1290.3721325683	0.6859852672
1292.3009399414	0.6926985383
1294.2297473144	0.6907983422
1296.1585546875	0.6858828664
1298.0873620605	0.6851076484
1300.0161694336	0.6664355397
1301.9449768066	0.6782049537
1303.8737841797	0.7052286863
1305.8025915527	0.6858940125
1307.7313989258	0.6754149199
1309.6602062988	0.6818877459
1311.5890136719	0.6828866601
1313.5178210449	0.6814674735
1315.4466284180	0.6802400351
1317.3754357910	0.6757662296
1319.3042431640	0.6776296496
1321.2330505371	0.6789874434
1323.1618579101	0.6755185723
1325.0906652832	0.6785905957
1327.0194726562	0.6754209399
1328.9482800293	0.6687066555
1330.8770874023	0.6638252139
1332.8058947754	0.6724997759
1334.7347021484	0.6729485393
1336.6635095215	0.6602149010
1338.5923168945	0.6609626412
1340.5211242676	0.6672305465
1342.4499316406	0.6770207286
1344.3787390137	0.6711387634
1346.3075463867	0.6621868610
1348.2363537597	0.6632282734
1350.1651611328	0.6634564996
1352.0939685058	0.6662527919
1354.0227758789	0.6686277986
1355.9515832519	0.6710870266
1357.8803906250	0.6647371650
1359.8091979980	0.6716195345
1361.7380053711	0.6724606752
1363.6668127441	0.6646347642
1365.5956201172	0.6674962044
1367.5244274902	0.6602157950
1369.4532348633	0.6678888798
1371.3820422363	0.6679678559
1373.3108496094	0.6660084128
1375.2396569824	0.6673915386
1377.1684643555	0.6617775559
1379.0972717285	0.6690102220
1381.0260791015	0.6593165994
1382.9548864746	0.6612815261
1384.8836938476	0.6705741882
1386.8125012207	0.6642822623
1388.7413085937	0.6669526696
1390.6701159668	0.6657336354
1392.5989233398	0.6650118232
1394.5277307129	0.6673460007
1396.4565380859	0.6659337878
1398.3853454590	0.6676885486
1400.3141528320	0.6652535796
1402.2429602051	0.6594182253
1404.1717675781	0.6686425805
1406.1005749512	0.6684926152
1408.0293823242	0.6587942243
1409.9581896972	0.6610527039
1411.8869970703	0.6642560959
1413.8158044433	0.6668051481
1415.7446118164	0.6651785970
1417.6734191894	0.6697816849
1419.6022265625	0.6479505897
1421.5310339355	0.6504258513
1423.4598413086	0.6758269668
1425.3886486816	0.6488766670
1427.3174560547	0.6632601619
1429.2462634277	0.6795822382
1431.1750708008	0.6574994922
1433.1038781738	0.6677302122
1435.0326855469	0.6714420319
1436.9614929199	0.6766897440
1438.8903002929	0.6628504992
1440.8191076660	0.6605994105
1442.7479150390	0.6749463081
1444.6767224121	0.6771919727
1446.6055297851	0.6895833015
1448.5343371582	0.6822940111
1450.4631445312	0.6747142673
1452.3919519043	0.6686044931
1454.3207592773	0.6692609191
1456.2495666504	0.6636525989
1458.1783740234	0.6520152688
1460.1071813965	0.6593019366
1462.0359887695	0.6586318016
1463.9647961426	0.6606003046
1465.8936035156	0.6594726443
1467.8224108886	0.6603460312
1469.7512182617	0.6576461196
1471.6800256347	0.6446983814
1473.6088330078	0.6495923996
1475.5376403808	0.6602522135
1477.4664477539	0.6515622139
1479.3952551269	0.6420040131
1481.3240625000	0.6532620192
1483.2528698730	0.6533957720
1485.1816772461	0.6422524452
1487.1104846191	0.6455770135
1489.0392919922	0.6476340294
1490.9680993652	0.6455242634
1492.8969067383	0.6458816528
1494.8257141113	0.6451328397
1496.7545214843	0.6426123977
1498.6833288574	0.6414651275
1500.6121362304	0.6423222423
1502.5409436035	0.6420730352
1504.4697509765	0.6348373294
1506.3985583496	0.6275596023
1508.3273657226	0.6348890066
1510.2561730957	0.6362088919
1512.1849804687	0.6397971511
1514.1137878418	0.6370360255
1516.0425952148	0.6296550632
1517.9714025879	0.6376385093
1519.9002099609	0.6338889599
1521.8290173340	0.6323156953
1523.7578247070	0.6397804022
1525.6866320801	0.6327797771
1527.6154394531	0.6335784197
1529.5442468261	0.6339965463
1531.4730541992	0.6308548450
1533.4018615722	0.6319935918
1535.3306689453	0.6316129565
1537.2594763183	0.6310321093
1539.1882836914	0.6210955977
1541.1170910644	0.6271177530
1543.0458984375	0.6333295107
1544.9747058105	0.6291789412
1546.9035131836	0.6335686445
1548.8323205566	0.6304509640
1550.7611279297	0.6339087486
1552.6899353027	0.6343461871
1554.6187426758	0.6270293593
1556.5475500488	0.6291567683
1558.4763574218	0.6197587848
1560.4051647949	0.6240137219
1562.3339721679	0.6271144748
1564.2627795410	0.6230136752
1566.1915869140	0.6284006834
1568.1203942871	0.6225185990
1570.0492016601	0.6221801639
1571.9780090332	0.6275664568
1573.9068164062	0.6240330935
1575.8356237793	0.6177416444
1577.7644311523	0.6158420444
1579.6932385254	0.6263703108
1581.6220458984	0.6270534396
1583.5508532715	0.6177384853
1585.4796606445	0.6198742390
1587.4084680175	0.6175314784
1589.3372753906	0.6162860394
1591.2660827636	0.6223322153
1593.1948901367	0.6173107624
1595.1236975097	0.6142734289
1597.0525048828	0.6150736213
1598.9813122558	0.6133368611
1600.9101196289	0.6188789606
1602.8389270019	0.6188728213
1604.7677343750	0.6133272648
1606.6965417480	0.6132237315
1608.6253491211	0.6164788008
1610.5541564941	0.6189052463
1612.4829638672	0.6156314611
1614.4117712402	0.6122983098
1616.3405786132	0.6165772080
1618.2693859863	0.6196237803
1620.1981933593	0.6196938753
1622.1270007324	0.6234697700
1624.0558081054	0.6175466180
1625.9846154785	0.6221355796
1627.9134228515	0.6327944994
1629.8422302246	0.6314201951
1631.7710375976	0.6379776001
1633.6998449707	0.6391179562
1635.6286523437	0.6424104571
1637.5574597168	0.6525957584
1639.4862670898	0.6546015739
1641.4150744629	0.6605101228
1643.3438818359	0.6623646617
1645.2726892090	0.6600245833
1647.2014965820	0.6655719280
1649.1303039550	0.6748212576
1651.0591113281	0.6721206903
1652.9879187011	0.6704789400
1654.9167260742	0.6821808815
1656.8455334472	0.6858775020
1658.7743408203	0.6957453489
1660.7031481933	0.7004184127
1662.6319555664	0.6983220577
1664.5607629394	0.7033991218
1666.4895703125	0.7055818439
1668.4183776855	0.7040745020
1670.3471850586	0.7082282901
1672.2759924316	0.7137429118
1674.2047998047	0.7120186090
1676.1336071777	0.7069760561
1678.0624145507	0.7099022269
1679.9912219238	0.7147653699
1681.9200292968	0.7152579427
1683.8488366699	0.7122945189
1685.7776440429	0.7157198787
1687.7064514160	0.7202365398
1689.6352587890	0.7154909372
1691.5640661621	0.7177402377
1693.4928735351	0.7186890841
1695.4216809082	0.7133200765
1697.3504882812	0.7202400565
1699.2792956543	0.7114153504
1701.2081030273	0.7049510479
1703.1369104004	0.7165806293
1705.0657177734	0.7147856355
1706.9945251464	0.7114781737
1708.9233325195	0.7104269266
1710.8521398925	0.7145587206
1712.7809472656	0.7166490555
1714.7097546386	0.7077562213
1716.6385620117	0.7032247186
1718.5673693847	0.7036949992
1720.4961767578	0.7060599923
1722.4249841308	0.7091842294
1724.3537915039	0.7057459354
1726.2825988769	0.7060784698
1728.2114062500	0.7079091072
1730.1402136230	0.7002468705
1732.0690209961	0.7019538283
1733.9978283691	0.6987658739
1735.9266357421	0.6962401867
1737.8554431152	0.7013735771
1739.7842504882	0.6906630397
1741.7130578613	0.6934011579
1743.6418652343	0.6976826191
1745.5706726074	0.6900740862
1747.4994799804	0.6906629801
1749.4282873535	0.6906575561
1751.3570947265	0.6905199289
1753.2859020996	0.6927929521
1755.2147094726	0.6947697997
1757.1435168457	0.6902683377
1759.0723242187	0.6885148287
1761.0011315918	0.6869055629
1762.9299389648	0.6835281849
1764.8587463379	0.6869558096
1766.7875537109	0.6833136678
1768.7163610839	0.6846407652
1770.6451684570	0.6856131554
1772.5739758300	0.6830654144
1774.5027832031	0.6825629473
1776.4315905761	0.6820474267
1778.3603979492	0.6846523285
1780.2892053222	0.6799871325
1782.2180126953	0.6788736582
1784.1468200683	0.6773027778
1786.0756274414	0.6798039675
1788.0044348144	0.6809811592
1789.9332421875	0.6715486050
1791.8620495605	0.6745637059
1793.7908569336	0.6752337217
1795.7196643066	0.6726129651
1797.6484716796	0.6767027974
1799.5772790527	0.6782901287
1801.5060864257	0.6739500761
1803.4348937988	0.6716237664
1805.3637011718	0.6733754873
1807.2925085449	0.6745905876
1809.2213159179	0.6768189669
1811.1501232910	0.6708344221
1813.0789306640	0.6729569435
1815.0077380371	0.6726242900
1816.9365454101	0.6704484820
1818.8653527832	0.6756951213
1820.7941601562	0.6660960913
1822.7229675293	0.6685527563
1824.6517749023	0.6676937342
1826.5805822753	0.6635337472
1828.5093896484	0.6722007394
1830.4381970214	0.6673740745
1832.3670043945	0.6662111282
1834.2958117675	0.6682878733
1836.2246191406	0.6673099995
1838.1534265136	0.6647330523
1840.0822338867	0.6636161804
1842.0110412597	0.6658806205
1843.9398486328	0.6670495868
1845.8686560058	0.6678851843
1847.7974633789	0.6639660001
1849.7262707519	0.6646363735
1851.6550781250	0.6638328433
1853.5838854980	0.6652653813
1855.5126928710	0.6670424342
1857.4415002441	0.6630960107
1859.3703076171	0.6664349437
1861.2991149902	0.6638838649
1863.2279223632	0.6574535370
1865.1567297363	0.6591929197
1867.0855371093	0.6654967070
1869.0143444824	0.6629301906
1870.9431518554	0.6601838470
1872.8719592285	0.6639599800
1874.8007666015	0.6616871357
1876.7295739746	0.6609476209
1878.6583813476	0.6587269306
1880.5871887207	0.6571433544
1882.5159960937	0.6556146741
1884.4448034667	0.6588779688
1886.3736108398	0.6606456637
1888.3024182128	0.6538336873
1890.2312255859	0.6599750519
1892.1600329589	0.6592758298
1894.0888403320	0.6548933983
1896.0176477050	0.6552016735
1897.9464550781	0.6543588042
1899.8752624511	0.6599052548
1901.8040698242	0.6595900655
1903.7328771972	0.6562641859
1905.6616845703	0.6549246907
1907.5904919433	0.6584257483
1909.5192993164	0.6559457183
1911.4481066894	0.6524600983
1913.3769140625	0.6569703221
1915.3057214355	0.6569005847
1917.2345288085	0.6565103531
1919.1633361816	0.6550768018
1921.0921435546	0.6596253514
1923.0209509277	0.6552668214
1924.9497583007	0.6505784392
1926.8785656738	0.6542270184
1928.8073730468	0.6476974487
1930.7361804199	0.6539356709
1932.6649877929	0.6558110714
1934.5937951660	0.6549628973
1936.5226025390	0.6555197835
1938.4514099121	0.6477156281
1940.3802172851	0.6548787355
1942.3090246582	0.6528509855
1944.2378320312	0.6499656439
1946.1666394042	0.6550751925
1948.0954467773	0.6517060995
1950.0242541503	0.6527401209
1951.9530615234	0.6523231268
1953.8818688964	0.6522961259
1955.8106762695	0.6522873044
1957.7394836425	0.6502175927
1959.6682910156	0.6529253125
1961.5970983886	0.6533285975
1963.5259057617	0.6500278115
1965.4547131347	0.6510679722
1967.3835205078	0.6510409713
1969.3123278808	0.6492767334
1971.2411352539	0.6516585350
1973.1699426269	0.6488750577
1975.0987499999	0.6489162445
1977.0275573730	0.6477119327
1978.9563647460	0.6459001303
1980.8851721191	0.6522049308
1982.8139794921	0.6469073892
1984.7427868652	0.6473041773
1986.6715942382	0.6523802876
1988.6004016113	0.6461181641
1990.5292089843	0.6446043253
1992.4580163574	0.6439360380
1994.3868237304	0.6438553333
1996.3156311035	0.6463124156
1998.2444384765	0.6498023272
2000.1732458496	0.6464964747
2002.1020532226	0.6442391872
2004.0308605956	0.6526852846
2005.9596679687	0.6487943530
2007.8884753417	0.6460646391
2009.8172827148	0.6497072577
2011.7460900878	0.6474307179
2013.6748974609	0.6473002434
2015.6037048339	0.6426799893
2017.5325122070	0.6445012689
2019.4613195800	0.6488307118
2021.3901269531	0.6436561346
2023.3189343261	0.6423753500
2025.2477416992	0.6447346807
2027.1765490722	0.6466536522
2029.1053564453	0.6434181929
2031.0341638183	0.6441684365
2032.9629711914	0.6481817961
2034.8917785644	0.6427281499
2036.8205859374	0.6439090967
2038.7493933105	0.6471970677
2040.6782006835	0.6415585279
2042.6070080566	0.6424589753
2044.5358154296	0.6460148096
2046.4646228027	0.6410276294
2048.3934301757	0.6407361627
2050.3222375488	0.6443734765
2052.2510449218	0.6428108811
2054.1798522949	0.6458916068
2056.1086596679	0.6451376677
2058.0374670410	0.6453670263
2059.9662744140	0.6480265260
2061.8950817871	0.6414029002
2063.8238891601	0.6457870603
2065.7526965331	0.6460727453
2067.6815039062	0.6436723471
2069.6103112792	0.6497596502
2071.5391186523	0.6412019730
2073.4679260253	0.6399186254
2075.3967333984	0.6444929838
2077.3255407714	0.6424772739
2079.2543481445	0.6420920491
2081.1831555175	0.6449826956
2083.1119628906	0.6487202644
2085.0407702636	0.6409670711
2086.9695776367	0.6433967352
2088.8983850097	0.6441817880
2090.8271923828	0.6394004226
2092.7559997558	0.6465310454
2094.6848071288	0.6403419971
2096.6136145019	0.6415696144
2098.5424218749	0.6453970671
2100.4712292480	0.6398897767
2102.4000366210	0.6439269185
2104.3288439941	0.6411232948
2106.2576513671	0.6414803267
2108.1864587402	0.6482281685
2110.1152661132	0.6480951905
2112.0440734863	0.6453836560
2113.9728808593	0.6430386305
2115.9016882324	0.6434440017
2117.8304956054	0.6460768580
2119.7593029785	0.6438586712
2121.6881103515	0.6372665763
2123.6169177245	0.6372431517
2125.5457250976	0.6399202347
2127.4745324706	0.6420410872
2129.4033398437	0.6410461664
2131.3321472167	0.6439439654
2133.2609545898	0.6464589834
2135.1897619628	0.6415375471
2137.1185693359	0.6452950835
2139.0473767089	0.6413799524
2140.9761840820	0.6392208338
2142.9049914550	0.6445127726
2144.8337988281	0.6421641111
2146.7626062011	0.6430302262
2148.6914135742	0.6418498755
2150.6202209472	0.6422951818
2152.5490283203	0.6405405402
2154.4778356933	0.6449368596
2156.4066430663	0.6458575130
2158.3354504394	0.6393473744
2160.2642578124	0.6483125687
2162.1930651855	0.6412846446
2164.1218725585	0.6371177435
2166.0506799316	0.6443933845
2167.9794873046	0.6413484216
2169.9082946777	0.6426698565
2171.8371020507	0.6420021653
2173.7659094238	0.6445314884
2175.6947167968	0.6430736184
2177.6235241699	0.6387783885
2179.5523315429	0.6361865401
2181.4811389160	0.6370047331
2183.4099462890	0.6454150677
2185.3387536620	0.6412721872
2187.2675610351	0.6418636441
2189.1963684081	0.6425639391
2191.1251757812	0.6386578679
2193.0539831542	0.6454960704
2194.9827905273	0.6431348920
2196.9115979003	0.6437000036
2198.8404052734	0.6472792029
2200.7692126464	0.6405123472
2202.6980200195	0.6399659514
2204.6268273925	0.6397605538
2206.5556347656	0.6413114071
2208.4844421386	0.6471802592
2210.4132495117	0.6408978701
2212.3420568847	0.6381990314
2214.2708642577	0.6423581243
2216.1996716308	0.6397314072
2218.1284790038	0.6376016140
2220.0572863769	0.6371861696
2221.9860937499	0.6409960389
2223.9149011230	0.6419966817
2225.8437084960	0.6414752603
2227.7725158691	0.6433733106
2229.7013232421	0.6412722468
2231.6301306152	0.6430867910
2233.5589379882	0.6425889730
2235.4877453613	0.6421218514
2237.4165527343	0.6414442062
2239.3453601074	0.6390333772
2241.2741674804	0.6412540674
2243.2029748534	0.6370350718
2245.1317822265	0.6378254890
2247.0605895995	0.6400452256
2248.9893969726	0.6388461590
2250.9182043456	0.6445462704
2252.8470117187	0.6397004724
2254.7758190917	0.6367960572
2256.7046264648	0.6423392892
2258.6334338378	0.6383383870
2260.5622412109	0.6371731162
2262.4910485839	0.6388350725
2264.4198559570	0.6389656067
2266.3486633300	0.6399364471
2268.2774707031	0.6416103840
2270.2062780761	0.6476005316
2272.1350854491	0.6418976784
2274.0638928222	0.6369815469
2275.9927001952	0.6409953237
2277.9215075683	0.6357210279
2279.8503149413	0.6379456520
2281.7791223144	0.6406995654
2283.7079296874	0.6361733079
2285.6367370605	0.6361221075
2287.5655444335	0.6354575157
2289.4943518066	0.6379943490
2291.4231591796	0.6373808384
2293.3519665527	0.6334481239
2295.2807739257	0.6351651549
2297.2095812988	0.6386789083
2299.1383886718	0.6395517588
2301.0671960449	0.6348155141
2302.9960034179	0.6318704486
2304.9248107909	0.6348361969
2306.8536181640	0.6373324990
2308.7824255370	0.6377194524
2310.7112329101	0.6355244517
2312.6400402831	0.6335954666
2314.5688476562	0.6335214972
2316.4976550292	0.6292018294
2318.4264624023	0.6304535866
2320.3552697753	0.6321921945
2322.2840771484	0.6238778830
2324.2128845214	0.6229251623
2326.1416918945	0.6251601577
2328.0704992675	0.6253327131
2329.9993066406	0.6233338118
2331.9281140136	0.6208734512
2333.8569213866	0.6229534149
2335.7857287597	0.6192777157
2337.7145361327	0.6199366450
2339.6433435058	0.6227391958
2341.5721508788	0.6197682619
2343.5009582519	0.6222879887
2345.4297656249	0.6218748689
2347.3585729980	0.6196191311
2349.2873803710	0.6288608313
2351.2161877441	0.6322364211
2353.1449951171	0.6223507524
2355.0738024902	0.6173098683
2357.0026098632	0.6132883430
2358.9314172363	0.6150707006
2360.8602246093	0.6186020970
2362.7890319823	0.6181380153
2364.7178393554	0.6192749739
2366.6466467284	0.6138141155
2368.5754541015	0.6152961254
2370.5042614745	0.6218457818
2372.4330688476	0.6261967421
2374.3618762206	0.6295231581
2376.2906835937	0.6269192696
2378.2194909667	0.6232974529
2380.1482983398	0.6262754798
2382.0771057128	0.6294922829
2384.0059130859	0.6277208924
2385.9347204589	0.6391630769
2387.8635278320	0.6399754882
2389.7923352050	0.6272660494
2391.7211425780	0.6300589442
2393.6499499511	0.6318369508
2395.5787573241	0.6310489774
2397.5075646972	0.6287889481
2399.4363720702	0.6294377446
2401.3651794433	0.6293358207
2403.2939868163	0.6287385821
2405.2227941894	0.6355296373
2407.1516015624	0.6334099770
2409.0804089355	0.6314737797
2411.0092163085	0.6289723516
2412.9380236816	0.6288380027
2414.8668310546	0.6331775784
2416.7956384277	0.6331744790
2418.7244458007	0.6338241100
2420.6532531738	0.6296772957
2422.5820605468	0.6283631921
2424.5108679198	0.6285570860
2426.4396752929	0.6279758215
2428.3684826659	0.6259974241
2430.2972900390	0.6256113648
2432.2260974120	0.6304036975
2434.1549047851	0.6281155944
2436.0837121581	0.6248712540
2438.0125195312	0.6237747669
2439.9413269042	0.6267743111
2441.8701342773	0.6247448921
2443.7989416503	0.6247623563
2445.7277490234	0.6333186626
2447.6565563964	0.6268994212
2449.5853637695	0.6264042258
2451.5141711425	0.6285079122
2453.4429785155	0.6225800514
2455.3717858886	0.6259010434
2457.3005932616	0.6208944321
2459.2294006347	0.6186091900
2461.1582080077	0.6270849109
2463.0870153808	0.6264460683
2465.0158227538	0.6274281740
2466.9446301269	0.6258199811
2468.8734374999	0.6254858971
2470.8022448730	0.6279685497
2472.7310522460	0.6214203835
2474.6598596191	0.6272765398
2476.5886669921	0.6263186932
2478.5174743652	0.6194118857
2480.4462817382	0.6215033531
2482.3750891112	0.6207736135
2484.3038964843	0.6276120543
2486.2327038573	0.6207564473
2488.1615112304	0.6206845045
2490.0903186034	0.6274544001
2492.0191259765	0.6242265105
2493.9479333495	0.6283445954
2495.8767407226	0.6197538972
2497.8055480956	0.6220278144
2499.7343554687	0.6239562035
2501.6631628417	0.6217265129
2503.5919702148	0.6245970726
2505.5207775878	0.6156011224
2507.4495849609	0.6231390238
2509.3783923339	0.6226888895
2511.3071997069	0.6218451262
2513.2360070800	0.6262665391
2515.1648144530	0.6178320050
2517.0936218261	0.6226152182
2519.0224291991	0.6237532496
2520.9512365722	0.6185339689
2522.8800439452	0.6173706651
2524.8088513183	0.6240429878
2526.7376586913	0.6219652295
2528.6664660644	0.6132705212
2530.5952734374	0.6210426688
2532.5240808105	0.6218226552
2534.4528881835	0.6202461123
2536.3816955566	0.6192953587
2538.3105029296	0.6167274714
2540.2393103027	0.6196015477
2542.1681176757	0.6178205013
2544.0969250487	0.6165146828
2546.0257324218	0.6194182038
2547.9545397948	0.6216280460
2549.8833471679	0.6201447248
2551.8121545409	0.6197035313
2553.7409619140	0.6157641411
2555.6697692870	0.6147006154
2557.5985766601	0.6189931035
2559.5273840331	0.6177178025
2561.4561914062	0.6204254627
2563.3849987792	0.6216673255
2565.3138061523	0.6194470525
2567.2426135253	0.6168504953
2569.1714208984	0.6143929958
2571.1002282714	0.6179047823
2573.0290356444	0.6198565960
2574.9578430175	0.6162425280
2576.8866503905	0.6160960793
2578.8154577636	0.6179558635
2580.7442651366	0.6120861173
2582.6730725097	0.6126325130
2584.6018798827	0.6122614145
2586.5306872558	0.6113604903
2588.4594946288	0.6183221936
2590.3883020019	0.6117513180
2592.3171093749	0.6084233522
2594.2459167480	0.6090761423
2596.1747241210	0.6121306419
2598.1035314941	0.6158581376
2600.0323388671	0.6076415777
2601.9611462401	0.6123903990
2603.8899536132	0.6130294204
2605.8187609862	0.6075311899
2607.7475683593	0.6088234782
2609.6763757323	0.6082947254
2611.6051831054	0.6115650535
2613.5339904784	0.6081671119
2615.4627978515	0.6088999510
2617.3916052245	0.6095318794
2619.3204125976	0.6077845693
2621.2492199706	0.6119109988
2623.1780273437	0.6118301749
2625.1068347167	0.6166700125
2627.0356420898	0.6121000051
2628.9644494628	0.6083519459
2630.8932568358	0.6132932901
2632.8220642089	0.6084380150
2634.7508715819	0.6100914478
2636.6796789550	0.6120799184
2638.6084863280	0.6102292538
2640.5372937011	0.6128925085
2642.4661010741	0.6111329794
2644.3949084472	0.6075661182
2646.3237158202	0.6111197472
2648.2525231933	0.6077753901
2650.1813305663	0.6007372737
2652.1101379394	0.6071455479
2654.0389453124	0.6076499820
2655.9677526855	0.6056654453
2657.8965600585	0.6029957533
2659.8253674315	0.6037228107
2661.7541748046	0.6100828648
2663.6829821776	0.6018270254
2665.6117895507	0.6054001451
2667.5405969237	0.6090287566
2669.4694042968	0.6009327769
2671.3982116698	0.6011894941
2673.3270190429	0.6028928161
2675.2558264159	0.6077948213
2677.1846337890	0.6075213552
2679.1134411620	0.6048705578
2681.0422485351	0.6022779346
2682.9710559081	0.6019729376
2684.8998632812	0.6041249037
2686.8286706542	0.6025022268
2688.7574780273	0.6013401747
2690.6862854003	0.5990042686
2692.6150927733	0.6004720330
2694.5439001464	0.5964146852
2696.4727075194	0.5993591547
2698.4015148925	0.6055669188
2700.3303222655	0.6034631729
2702.2591296386	0.6030687094
2704.1879370116	0.5948392749
2706.1167443847	0.6015455127
2708.0455517577	0.6044791937
2709.9743591308	0.5997371078
2711.9031665038	0.6061723232
2713.8319738769	0.5977604985
2715.7607812499	0.5970485806
2717.6895886230	0.6066462994
2719.6183959960	0.6048826575
2721.5472033690	0.5978202224
2723.4760107421	0.6021240354
2725.4048181151	0.6029602289
2727.3336254882	0.5959271789
2729.2624328612	0.6037331223
2731.1912402343	0.5973741412
2733.1200476073	0.5921139121
2735.0488549804	0.5969015956
2736.9776623534	0.5932604074
2738.9064697265	0.5980615616
2740.8352770995	0.5957520604
2742.7640844726	0.5947067142
2744.6928918456	0.6013181210
2746.6216992187	0.5976195335
2748.5505065917	0.5954527855
2750.4793139647	0.5941280723
2752.4081213378	0.5880244970
2754.3369287108	0.5912491083
2756.2657360839	0.5966761112
2758.1945434569	0.5929147005
2760.1233508300	0.5891529322
2762.0521582030	0.5870233178
2763.9809655761	0.5940524936
2765.9097729491	0.5935648680
2767.8385803222	0.5855739117
2769.7673876952	0.5947387815
2771.6961950683	0.5957559943
2773.6250024413	0.5915604234
2775.5538098144	0.5958331823
2777.4826171874	0.5942427516
2779.4114245604	0.5928732753
2781.3402319335	0.5926904082
2783.2690393065	0.5920009613
2785.1978466796	0.5908981562
2787.1266540526	0.5904937983
2789.0554614257	0.5918595195
2790.9842687987	0.5869741440
2792.9130761718	0.5855540633
2794.8418835448	0.5894282460
2796.7706909179	0.5880392790
2798.6994982909	0.5878218412
2800.6283056640	0.5835391283
2802.5571130370	0.5823763609
2804.4859204101	0.5857545733
2806.4147277831	0.5869863629
2808.3435351562	0.5960351229
2810.2723425292	0.5889938474
2812.2011499022	0.5768945813
2814.1299572753	0.5817820430
2816.0587646483	0.5872697830
2817.9875720214	0.5884997845
2819.9163793944	0.5840247869
2821.8451867675	0.5874672532
2823.7739941405	0.5877417326
2825.7028015136	0.5818147659
2827.6316088866	0.5855236053
2829.5604162597	0.5843145847
2831.4892236327	0.5823202729
2833.4180310058	0.5806366801
2835.3468383788	0.5790489912
2837.2756457519	0.5838477015
2839.2044531249	0.5835464001
2841.1332604979	0.5785194635
2843.0620678710	0.5796422958
2844.9908752440	0.5795301199
2846.9196826171	0.5765879154
2848.8484899901	0.5808513165
2850.7772973632	0.5802821517
2852.7061047362	0.5768907070
2854.6349121093	0.5767091513
2856.5637194823	0.5747358203
2858.4925268554	0.5768344402
2860.4213342284	0.5820771456
2862.3501416015	0.5788778067
2864.2789489745	0.5697212219
2866.2077563476	0.5754083991
2868.1365637206	0.5787626505
2870.0653710936	0.5699639916
2871.9941784667	0.5695753098
2873.9229858397	0.5739552379
2875.8517932128	0.5750896931
2877.7806005858	0.5733060241
2879.7094079589	0.5774630904
2881.6382153319	0.5731170177
2883.5670227050	0.5691143870
2885.4958300780	0.5776784420
2887.4246374511	0.5740481615
2889.3534448241	0.5731850863
2891.2822521972	0.5754724145
2893.2110595702	0.5727664828
2895.1398669433	0.5676910281
2897.0686743163	0.5613095760
2898.9974816893	0.5662059784
2900.9262890624	0.5680335164
2902.8550964354	0.5664123297
2904.7839038085	0.5640894771
2906.7127111815	0.5645342469
2908.6415185546	0.5653789639
2910.5703259276	0.5588420033
2912.4991333007	0.5669989586
2914.4279406737	0.5682778955
2916.3567480468	0.5598488450
2918.2855554198	0.5608490109
2920.2143627929	0.5613391995
2922.1431701659	0.5662446618
2924.0719775390	0.5598580837
2926.0007849120	0.5594275594
2927.9295922851	0.5668559670
2929.8583996581	0.5551918149
2931.7872070311	0.5585491061
2933.7160144042	0.5667310357
2935.6448217772	0.5602656007
2937.5736291503	0.5625735521
2939.5024365233	0.5628306270
2941.4312438964	0.5588208437
2943.3600512694	0.5634093285
2945.2888586425	0.5593053102
2947.2176660155	0.5542708635
2949.1464733886	0.5635933876
2951.0752807616	0.5585972667
2953.0040881347	0.5520816445
2954.9328955077	0.5572360754
2956.8617028808	0.5549693108
2958.7905102538	0.5558239818
2960.7193176268	0.5532770753
2962.6481249999	0.5499144793
2964.5769323729	0.5526700616
2966.5057397460	0.5494030118
2968.4345471190	0.5532053113
2970.3633544921	0.5599739552
2972.2921618651	0.5499470830
2974.2209692382	0.5470480919
2976.1497766112	0.5505878925
2978.0785839843	0.5404411554
2980.0073913573	0.5474593639
2981.9361987304	0.5519502759
2983.8650061034	0.5474394560
2985.7938134765	0.5562002063
2987.7226208495	0.5492790341
2989.6514282225	0.5473363996
2991.5802355956	0.5501162410
2993.5090429686	0.5463500023
2995.4378503417	0.5454567671
2997.3666577147	0.5407020450
2999.2954650878	0.5444954038
3001.2242724608	0.5436893106
3003.1530798339	0.5416601300
3005.0818872069	0.5424156785
3007.0106945800	0.5467871428
3008.9395019530	0.5468389988
3010.8683093261	0.5331993699
3012.7971166991	0.5424268842
3014.7259240722	0.5457277894
3016.6547314452	0.5402657390
3018.5835388182	0.5476208925
3020.5123461913	0.5408733487
3022.4411535643	0.5427743196
3024.3699609374	0.5418202877
3026.2987683104	0.5349271297
3028.2275756835	0.5448977351
3030.1563830565	0.5394065380
3032.0851904296	0.5375483632
3034.0139978026	0.5480158329
3035.9428051757	0.5378093123
3037.8716125487	0.5315391421
3039.8004199218	0.5331291556
3041.7292272948	0.5363246202
3043.6580346679	0.5354776978
3045.5868420409	0.5291573405
3047.5156494139	0.5408476591
3049.4444567870	0.5345919728
3051.3732641600	0.5292256474
3053.3020715331	0.5388300419
3055.2308789061	0.5266190767
3057.1596862792	0.5350384712
3059.0884936522	0.5398100019
3061.0173010253	0.5311535001
3062.9461083983	0.5385194421
3064.8749157714	0.5264003277
3066.8037231444	0.5163094997
3068.7325305175	0.5249968171
3070.6613378905	0.5308623910
3072.5901452636	0.5269673467
3074.5189526366	0.5222255588
3076.4477600097	0.5274282694
3078.3765673827	0.5282812119
3080.3053747557	0.5226238370
3082.2341821288	0.5225541592
3084.1629895018	0.5225639343
3086.0917968749	0.5219552517
3088.0206042479	0.5260511041
3089.9494116210	0.5185042024
3091.8782189940	0.5146768689
3093.8070263671	0.5231796503
3095.7358337401	0.5191860199
3097.6646411132	0.5195187926
3099.5934484862	0.5212926865
3101.5222558593	0.5200821161
3103.4510632323	0.5220161080
3105.3798706054	0.5153126717
3107.3086779784	0.5188697577
3109.2374853514	0.5241243839
3111.1662927245	0.5199668407
3113.0951000975	0.5196401477
3115.0239074706	0.5186707973
3116.9527148436	0.5177869797
3118.8815222167	0.5175750256
3120.8103295897	0.5230518579
3122.7391369628	0.5209836960
3124.6679443358	0.5136302710
3126.5967517089	0.5231716633
3128.5255590819	0.5217607021
3130.4543664550	0.5158384442
3132.3831738280	0.5198008418
3134.3119812011	0.5128684640
3136.2407885741	0.5128915310
3138.1695959471	0.5186110139
3140.0984033202	0.5175558925
3142.0272106932	0.5186457634
3143.9560180663	0.5177791715
3145.8848254393	0.5109015107
3147.8136328124	0.5031750798
3149.7424401854	0.5055466294
3151.6712475585	0.5084806085
3153.6000549315	0.5062155724
3155.5288623046	0.5130505562
3157.4576696776	0.5122450590
3159.3864770507	0.5071883798
3161.3152844237	0.5162189007
3163.2440917968	0.5178934336
3165.1728991698	0.5138427615
3167.1017065428	0.5105304718
3169.0305139159	0.5138956308
3170.9593212889	0.5229422450
3172.8881286620	0.5131589770
3174.8169360350	0.5144812465
3176.7457434081	0.5230656862
3178.6745507811	0.5189616084
3180.6033581542	0.5240173340
3182.5321655272	0.5253347158
3184.4609729003	0.5201308131
3186.3897802733	0.5085611343
3188.3185876464	0.5111246705
3190.2473950194	0.5243246555
3192.1762023925	0.5212783813
3194.1050097655	0.5224568844
3196.0338171386	0.5163643956
3197.9626245116	0.5136390328
3199.8914318846	0.5251489282
3201.8202392577	0.5267963409
3203.7490466307	0.5199192762
3205.6778540038	0.5191961527
3207.6066613768	0.5301809311
3209.5354687499	0.5272310376
3211.4642761229	0.5278795362
3213.3930834960	0.5370347500
3215.3218908690	0.5291108489
3217.2506982421	0.5288199186
3219.1795056151	0.5353156924
3221.1083129882	0.5347281098
3223.0371203612	0.5333193541
3224.9659277343	0.5361049771
3226.8947351073	0.5362238884
3228.8235424803	0.5325887203
3230.7523498534	0.5388157964
3232.6811572264	0.5454870462
3234.6099645995	0.5446845293
3236.5387719725	0.5401555896
3238.4675793456	0.5390555859
3240.3963867186	0.5425868630
3242.3251940917	0.5411064029
3244.2540014647	0.5473305583
3246.1828088378	0.5537157059
3248.1116162108	0.5497035384
3250.0404235839	0.5570430160
3251.9692309569	0.5591734648
3253.8980383300	0.5513166785
3255.8268457030	0.5532443523
3257.7556530760	0.5631986856
3259.6844604491	0.5640278459
3261.6132678221	0.5540885925
3263.5420751952	0.5665497780
3265.4708825682	0.5670416355
3267.3996899413	0.5566015244
3269.3284973143	0.5684950948
3271.2573046874	0.5667741895
3273.1861120604	0.5668348074
3275.1149194335	0.5706616640
3277.0437268065	0.5791466236
3278.9725341796	0.5791657567
3280.9013415526	0.5705352426
3282.8301489257	0.5832235813
3284.7589562987	0.5718294382
3286.6877636717	0.5714756846
3288.6165710448	0.5865527391
3290.5453784178	0.5802534819
3292.4741857909	0.5847559571
3294.4029931639	0.5863899589
3296.3318005370	0.5832886696
3298.2606079100	0.5876080990
3300.1894152831	0.5991629362
3302.1182226561	0.5974073410
3304.0470300292	0.5862320662
3305.9758374022	0.5869920254
3307.9046447753	0.5900639892
3309.8334521483	0.5942306519
3311.7622595214	0.5996717215
3313.6910668944	0.6047783494
3315.6198742675	0.5959453583
3317.5486816405	0.5998065472
3319.4774890135	0.6034599543
3321.4062963866	0.5936223865
3323.3351037596	0.6102706790
3325.2639111327	0.6122642159
3327.1927185057	0.6026670337
3329.1215258788	0.6093559861
3331.0503332518	0.6174405217
3332.9791406249	0.6140564084
3334.9079479979	0.6088790894
3336.8367553710	0.6187025905
3338.7655627440	0.6180940866
3340.6943701171	0.6204291582
3342.6231774901	0.6250131130
3344.5519848632	0.6206855178
3346.4807922362	0.6253064275
3348.4095996092	0.6332957149
3350.3384069823	0.6277208328
3352.2672143553	0.6203453541
3354.1960217284	0.6408710480
3356.1248291014	0.6464825273
3358.0536364745	0.6339163184
3359.9824438475	0.6410040259
3361.9112512206	0.6459436417
3363.8400585936	0.6444734335
3365.7688659667	0.6486861110
3367.6976733397	0.6529188752
3369.6264807128	0.6514998674
3371.5552880858	0.6612762809
3373.4840954589	0.6644611955
3375.4129028319	0.6640677452
3377.3417102049	0.6670945287
3379.2705175780	0.6586895585
3381.1993249510	0.6743351817
3383.1281323241	0.6806585789
3385.0569396971	0.6743701696
3386.9857470702	0.6807432175
3388.9145544432	0.6762004495
3390.8433618163	0.6935744882
3392.7721691893	0.6959439516
3394.7009765624	0.6787684560
3396.6297839354	0.6963182688
3398.5585913085	0.6957358718
3400.4873986815	0.6875503659
3402.4162060546	0.7075033188
3404.3450134276	0.7143914700
3406.2738208006	0.7047446370
3408.2026281737	0.7047296166
3410.1314355467	0.7177036405
3412.0602429198	0.7227385044
3413.9890502928	0.7245601416
3415.9178576659	0.7234156132
3417.8466650389	0.7210314274
3419.7754724120	0.7355949879
3421.7042797850	0.7406949401
3423.6330871581	0.7397140265
3425.5618945311	0.7348152995
3427.4907019042	0.7372591496
3429.4195092772	0.7437334061
3431.3483166503	0.7382605076
3433.2771240233	0.7588264346
3435.2059313963	0.7561893463
3437.1347387694	0.7514870167
3439.0635461424	0.7743101120
3440.9923535155	0.7645970583
3442.9211608885	0.7630437016
3444.8499682616	0.7757681608
3446.7787756346	0.7682049274
3448.7075830077	0.7691357732
3450.6363903807	0.7927939892
3452.5651977538	0.7804789543
3454.4940051268	0.7740679383
3456.4228124999	0.7939935327
3458.3516198729	0.7797301412
3460.2804272460	0.7945025563
3462.2092346190	0.7978423238
3464.1380419921	0.7914661765
3466.0668493651	0.7993190885
3467.9956567381	0.7906419039
3469.9244641112	0.8136512637
3471.8532714842	0.8060183525
3473.7820788573	0.7987719774
3475.7108862303	0.8075376749
3477.6396936034	0.8058776855
3479.5685009764	0.8248431087
3481.4973083495	0.8145914674
3483.4261157225	0.8169753551
3485.3549230956	0.8269741535
3487.2837304686	0.8167848587
3489.2125378417	0.8185444474
3491.1413452147	0.8260276318
3493.0701525878	0.8285128474
3494.9989599608	0.8298984170
3496.9277673338	0.8359130621
3498.8565747069	0.8255860209
3500.7853820799	0.8363965750
3502.7141894530	0.8384296298
3504.6429968260	0.8284205794
3506.5718041991	0.8459780216
3508.5006115721	0.8401239514
3510.4294189452	0.8380646110
3512.3582263182	0.8377053142
3514.2870336913	0.8354966640
3516.2158410643	0.8395605683
3518.1446484374	0.8467466831
3520.0734558104	0.8533220291
3522.0022631835	0.8437285423
3523.9310705565	0.8475920558
3525.8598779295	0.8394811749
3527.7886853026	0.8568339348
3529.7174926756	0.8578709960
3531.6463000487	0.8253965974
3533.5751074217	0.8539401293
3535.5039147948	0.8608511686
3537.4327221678	0.8478654623
3539.3615295409	0.8448184133
3541.2903369139	0.8501600623
3543.2191442870	0.8665268421
3545.1479516600	0.8529629707
3547.0767590331	0.8555814028
3549.0055664061	0.8625429273
3550.9343737792	0.8671991825
3552.8631811522	0.8618083000
3554.7919885252	0.8531141281
3556.7207958983	0.8626902103
3558.6496032713	0.8589515686
3560.5784106444	0.8612270951
3562.5072180174	0.8576821089
3564.4360253905	0.8518577218
3566.3648327635	0.8495203257
3568.2936401366	0.8560374379
3570.2224475096	0.8518511653
3572.1512548827	0.8438645005
3574.0800622557	0.8686733842
3576.0088696288	0.8668949604
3577.9376770018	0.8647722602
3579.8664843749	0.8498780727
3581.7952917479	0.8461697102
3583.7240991210	0.8756543398
3585.6529064940	0.8520632982
3587.5817138670	0.8504834175
3589.5105212401	0.8637266755
3591.4393286131	0.8620657325
3593.3681359862	0.8598360419
3595.2969433592	0.8362323046
3597.2257507323	0.8397507071
3599.1545581053	0.8478876352
3601.0833654784	0.8462918997
3603.0121728514	0.8596832156
3604.9409802245	0.8705375195
3606.8697875975	0.8483363390
3608.7985949706	0.8464612961
3610.7274023436	0.8585280180
3612.6562097167	0.8532975316
3614.5850170897	0.8579964042
3616.5138244627	0.8433659673
3618.4426318358	0.8561025262
3620.3714392088	0.8548985720
3622.3002465819	0.8447273970
3624.2290539549	0.8562973142
3626.1578613280	0.8391314745
3628.0866687010	0.8415403366
3630.0154760741	0.8330239654
3631.9442834471	0.8433531523
3633.8730908202	0.8530350327
3635.8018981932	0.8260704875
3637.7307055663	0.8363381028
3639.6595129393	0.8531897068
3641.5883203124	0.8403759003
3643.5171276854	0.8289586902
3645.4459350584	0.8496094942
3647.3747424315	0.8395650387
3649.3035498045	0.8306675553
3651.2323571776	0.8415746689
3653.1611645506	0.8281136751
3655.0899719237	0.8365678787
3657.0187792967	0.8278781176
3658.9475866698	0.8336423039
3660.8763940428	0.8326057792
3662.8052014159	0.8272224665
3664.7340087889	0.8423727751
3666.6628161620	0.8293789029
3668.5916235350	0.8202399015
3670.5204309081	0.8154013157
3672.4492382811	0.8380841613
3674.3780456541	0.8245474696
3676.3068530272	0.8038234711
3678.2356604002	0.8147904277
3680.1644677733	0.8007665873
3682.0932751463	0.8291842341
3684.0220825194	0.8231742382
3685.9508898924	0.8028159142
3687.8796972655	0.8033630848
3689.8085046385	0.7917333841
3691.7373120116	0.7959792018
3693.6661193846	0.7928538918
3695.5949267577	0.8023093939
3697.5237341307	0.7885988355
3699.4525415038	0.7843952775
3701.3813488768	0.7981329560
3703.3101562499	0.7869686484
3705.2389636229	0.7850400209
3707.1677709959	0.7830567956
3709.0965783690	0.7924145460
3711.0253857420	0.7895644307
3712.9541931151	0.7676395178
3714.8830004881	0.7682604790
3716.8118078612	0.7781193256
3718.7406152342	0.7841488123
3720.6694226073	0.7853183746
3722.5982299803	0.7757038474
3724.5270373534	0.7665159106
3726.4558447264	0.7705274224
3728.3846520995	0.7649816871
3730.3134594725	0.7704660892
3732.2422668456	0.7746086717
3734.1710742186	0.7652072906
3736.0998815916	0.7618781328
3738.0286889647	0.7746586800
3739.9574963377	0.7831071615
3741.8863037108	0.7574757934
3743.8151110838	0.7522610426
3745.7439184569	0.7588423491
3747.6727258299	0.7579588294
3749.6015332030	0.7522638440
3751.5303405760	0.7465400100
3753.4591479491	0.7594788671
3755.3879553221	0.7576814294
3757.3167626952	0.7685769200
3759.2455700682	0.7551119328
3761.1743774413	0.7453797460
3763.1031848143	0.7520396113
3765.0319921873	0.7423546314
3766.9607995604	0.7506329417
3768.8896069334	0.7364197969
3770.8184143065	0.7340363264
3772.7472216795	0.7440755963
3774.6760290526	0.7489395738
3776.6048364256	0.7488918900
3778.5336437987	0.7430970073
3780.4624511717	0.7445755005
3782.3912585448	0.7375153899
3784.3200659178	0.7553617358
3786.2488732909	0.7419667244
3788.1776806639	0.7382765412
3790.1064880370	0.7440907359
3792.0352954100	0.7303651571
3793.9641027830	0.7592391372
3795.8929101561	0.7485213280
3797.8217175291	0.7442623377
3799.7505249022	0.7417942286
3801.6793322752	0.7178124785
3803.6081396483	0.7331009507
3805.5369470213	0.7297323346
3807.4657543944	0.7432189584
3809.3945617674	0.7392378449
3811.3233691405	0.7272271514
3813.2521765135	0.7407630682
3815.1809838866	0.7317774296
3817.1097912596	0.7229990363
3819.0385986327	0.7381126881
3820.9674060057	0.7358469963
3822.8962133787	0.7275816798
3824.8250207518	0.7423797846
3826.7538281248	0.7241243720
3828.6826354979	0.7187742591
3830.6114428709	0.7323696613
3832.5402502440	0.7226359844
3834.4690576170	0.7279066443
3836.3978649901	0.7229507565
3838.3266723631	0.7291973233
3840.2554797362	0.7379315495
3842.1842871092	0.7313088179
3844.1130944823	0.7215631604
3846.0419018553	0.7138130069
3847.9707092284	0.7245962620
3849.8995166014	0.7186400294
3851.8283239745	0.7255442142
3853.7571313475	0.7363346815
3855.6859387205	0.7173875570
3857.6147460936	0.7287615538
3859.5435534666	0.7327377796
3861.4723608397	0.7201823592
3863.4011682127	0.7157192826
3865.3299755858	0.7123268843
3867.2587829588	0.7231280804
3869.1875903319	0.7293182015
3871.1163977049	0.7051283121
3873.0452050780	0.7056419849
3874.9740124510	0.7237843871
3876.9028198241	0.7272885442
3878.8316271971	0.7195169330
3880.7604345702	0.7226514816
3882.6892419432	0.7291033268
3884.6180493162	0.7107340097
3886.5468566893	0.7220558524
3888.4756640623	0.7232538462
3890.4044714354	0.7064176202
3892.3332788084	0.7213724256
3894.2620861815	0.7064284086
3896.1908935545	0.7103871107
3898.1197009276	0.7229497433
3900.0485083006	0.7144013643
3901.9773156737	0.7193230987
3903.9061230467	0.7153633237
3905.8349304198	0.7230865359
3907.7637377928	0.7159117460
3909.6925451659	0.7051271796
3911.6213525389	0.7080656886
3913.5501599119	0.7051749825
3915.4789672850	0.7037420869
3917.4077746580	0.7101719379
3919.3365820311	0.7269042730
3921.2653894041	0.7128185630
3923.1941967772	0.6937262416
3925.1230041502	0.7022294402
3927.0518115233	0.7123349905
3928.9806188963	0.7150432467
3930.9094262694	0.7193418741
3932.8382336424	0.7182239890
3934.7670410155	0.7180287242
3936.6958483885	0.7389237881
3938.6246557616	0.7329607606
3940.5534631346	0.7124835253
3942.4822705076	0.7070264220
3944.4110778807	0.6976470351
3946.3398852537	0.7079657912
3948.2686926268	0.7155570388
3950.1974999998	0.7072259784
3952.1263073729	0.7046127915
3954.0551147459	0.7067737579
3955.9839221190	0.7067290545
3957.9127294920	0.7208682299
3959.8415368651	0.7294057608
3961.7703442381	0.7078448534
3963.6991516112	0.7036527991
3965.6279589842	0.7067008615
3967.5567663573	0.7017233372
3969.4855737303	0.7014201880
3971.4143811034	0.6986407638
3973.3431884764	0.7065702677
3975.2719958494	0.7263076901
3977.2008032225	0.7255804539
3979.1296105955	0.7130338550
3981.0584179686	0.7137390971
3982.9872253416	0.7035018206
3984.9160327147	0.7053729892
3986.8448400877	0.7035871744
3988.7736474608	0.6990295649
3990.7024548338	0.7153536081
3992.6312622069	0.7046325803
3994.5600695799	0.6978440881
3996.4888769530	0.7008926868
3998.4176843260	0.7148981690
4000.3464916991	0.7035966516
4002.2752990721	0.6847375631
4004.2041064451	0.7143039703
4006.1329138182	0.7019545436
4008.0617211912	0.7059126496
4009.9905285643	0.7090271115
4011.9193359373	0.6830042601
4013.8481433104	0.7111668587
4015.7769506834	0.7094897032
4017.7057580565	0.6999476552
4019.6345654295	0.7151031494
4021.5633728026	0.7171435952
4023.4921801756	0.7138200402
4025.4209875487	0.7100830674
4027.3497949217	0.7076618671
4029.2786022948	0.7084046006
4031.2074096678	0.6961641908
4033.1362170408	0.6691359282
4035.0650244139	0.6918717623
4036.9938317869	0.6954937577
4038.9226391600	0.6820711493
4040.8514465330	0.7027367353
4042.7802539061	0.6883142591
4044.7090612791	0.6926276684
4046.6378686522	0.7002978921
4048.5666760252	0.7052450776
4050.4954833983	0.7114783525
4052.4242907713	0.6867828369
4054.3530981444	0.6912423968
4056.2819055174	0.7012721896
4058.2107128905	0.7118985057
4060.1395202635	0.7189115882
4062.0683276365	0.7067950964
4063.9971350096	0.7041495442
4065.9259423826	0.6996499896
4067.8547497557	0.6878958344
4069.7835571287	0.6914144754
4071.7123645018	0.7083749175
4073.6411718748	0.6974169612
4075.5699792479	0.6988305449
4077.4987866209	0.7002457976
4079.4275939940	0.6846681833
4081.3564013670	0.7044216990
4083.2852087401	0.6939109564
4085.2140161131	0.6736719012
4087.1428234862	0.6969018579
4089.0716308592	0.7016545534
4091.0004382323	0.6868526340
4092.9292456053	0.6949360967
4094.8580529783	0.6942017078
4096.7868603514	0.6786615252
4098.7156677244	0.6850650311
4100.6444750975	0.6884155869
4102.5732824705	0.6932638288
4104.5020898436	0.6946762800
4106.4308972166	0.6928136945
4108.3597045897	0.7007076144
4110.2885119627	0.6912122965
4112.2173193358	0.6996920705
4114.1461267088	0.6949847937
4116.0749340819	0.6817303896
4118.0037414549	0.6941415071
4119.9325488280	0.6808719635
4121.8613562010	0.6818726063
4123.7901635740	0.6977530122
4125.7189709471	0.6932691932
4127.6477783201	0.6888984442
4129.5765856932	0.6963806748
4131.5053930662	0.6909844875
4133.4342004393	0.6804633737
4135.3630078123	0.7024479508
4137.2918151854	0.6909657121
4139.2206225584	0.6908280253
4141.1494299315	0.7052478194
4143.0782373045	0.6710007787
4145.0070446776	0.6766969562
4146.9358520506	0.6882571578
4148.8646594237	0.6949494481
4150.7934667967	0.6936575770
4152.7222741697	0.6791434884
4154.6510815428	0.7115917206
4156.5798889158	0.7244214416
4158.5086962889	0.7138199210
4160.4375036619	0.6832969785
4162.3663110350	0.6741187572
4164.2951184080	0.7064057589
4166.2239257811	0.7053146362
4168.1527331541	0.6989601851
4170.0815405272	0.6878156066
4172.0103479002	0.6831848621
4173.9391552733	0.6794055700
4175.8679626463	0.6806859374
4177.7967700194	0.6882517338
4179.7255773924	0.6825279593
4181.6543847654	0.6941892505
4183.5831921385	0.6922163963
4185.5119995115	0.6928341985
4187.4408068846	0.6868180633
4189.3696142576	0.6954568624
4191.2984216307	0.7037287951
4193.2272290037	0.6781530380
4195.1560363768	0.6906535029
4197.0848437498	0.6846569777
4199.0136511229	0.6829192638
4200.9424584959	0.6798085570
4202.8712658690	0.6630110145
4204.8000732420	0.6786004305
4206.7288806151	0.6896408796
4208.6576879881	0.6926705837
4210.5864953611	0.6679183245
4212.5153027342	0.6819256544
4214.4441101072	0.6842848063
4216.3729174803	0.6811581254
4218.3017248533	0.7147956491
4220.2305322264	0.6778935790
4222.1593395994	0.6846430302
4224.0881469725	0.7013071775
4226.0169543455	0.6879557371
4227.9457617186	0.6934267879
4229.8745690916	0.6834033728
4231.8033764647	0.6830736995
4233.7321838377	0.6798532605
4235.6609912108	0.7031949759
4237.5897985838	0.6930292845
4239.5186059569	0.6804500222
4241.4474133299	0.6968444586
4243.3762207029	0.6743271351
4245.3050280760	0.6802729964
4247.2338354490	0.6881648898
4249.1626428221	0.6867744327
4251.0914501951	0.6889294982
4253.0202575682	0.6923114061
4254.9490649412	0.6927906275
4256.8778723143	0.6793415546
4258.8066796873	0.6915375590
4260.7354870604	0.7072768211
4262.6642944334	0.6994327903
4264.5931018065	0.6854406595
4266.5219091795	0.7156581879
4268.4507165526	0.7133481503
4270.3795239256	0.6835777164
4272.3083312986	0.6987353563
4274.2371386717	0.6763745546
4276.1659460447	0.6722257733
4278.0947534178	0.6771001220
4280.0235607908	0.6818113327
4281.9523681639	0.6986667514
4283.8811755369	0.6696493030
4285.8099829100	0.6736535430
4287.7387902830	0.6858580112
4289.6675976561	0.6795787215
4291.5964050291	0.6822677851
4293.5252124022	0.6749726534
4295.4540197752	0.6773250699
4297.3828271483	0.6841612458
4299.3116345213	0.6853381395
4301.2404418943	0.6752356291
4303.1692492674	0.6660069823
4305.0980566404	0.6640573740
4307.0268640135	0.6847017407
4308.9556713865	0.7050969601
4310.8844787596	0.6890838146
4312.8132861326	0.6942866445
4314.7420935057	0.6979979873
4316.6709008787	0.6723051071
4318.5997082518	0.6702197194
4320.5285156248	0.6834713817
4322.4573229979	0.6804553866
4324.3861303709	0.6708835363
4326.3149377440	0.6728104353
4328.2437451170	0.6728294492
4330.1725524900	0.6801487207
4332.1013598631	0.6790400743
4334.0301672361	0.6713364720
4335.9589746092	0.6936087608
4337.8877819822	0.6610531211
4339.8165893553	0.6509560347
4341.7453967283	0.6998577118
4343.6742041014	0.6602309942
4345.6030114744	0.6662140489
4347.5318188475	0.6937682033
4349.4606262205	0.6770363450
4351.3894335936	0.7017355561
4353.3182409666	0.6757981777
4355.2470483397	0.6781166792
4357.1758557127	0.6771864295
4359.1046630858	0.6450885534
4361.0334704588	0.6895843148
4362.9622778318	0.6962584257
4364.8910852049	0.6809115410
4366.8198925779	0.6843162179
4368.7486999510	0.6793301105
4370.6775073240	0.6703518629
4372.6063146971	0.6627756357
4374.5351220701	0.6615250707
4376.4639294432	0.6629703641
4378.3927368162	0.7036756277
4380.3215441893	0.6880888343
4382.2503515623	0.6573922038
4384.1791589354	0.6921623945
4386.1079663084	0.6891313195
4388.0367736815	0.6683218479
4389.9655810545	0.6839873791
4391.8943884275	0.6995301843
4393.8231958006	0.6966475844
4395.7520031736	0.6967355013
4397.6808105467	0.6822646260
4399.6096179197	0.6803367734
4401.5384252928	0.6814352870
4403.4672326658	0.6613128185
4405.3960400389	0.6712441444
4407.3248474119	0.6794511676
4409.2536547850	0.6832853556
4411.1824621580	0.6616727710
4413.1112695311	0.6570152640
4415.0400769041	0.6778916121
4416.9688842772	0.6651654840
4418.8976916502	0.6710829139
4420.8264990232	0.6690050364
4422.7553063963	0.6753794551
4424.6841137693	0.6571104527
4426.6129211424	0.6558602452
4428.5417285154	0.7005656958
4430.4705358885	0.6597121358
4432.3993432615	0.6580893993
4434.3281506346	0.7085377574
4436.2569580076	0.6952280998
4438.1857653807	0.6513760090
4440.1145727537	0.6616782546
4442.0433801268	0.6935512424
4443.9721874998	0.6764226556
4445.9009948729	0.6734762788
4447.8298022459	0.6623667479
4449.7586096189	0.6700239778
4451.6874169920	0.6783783436
4453.6162243650	0.6837569475
4455.5450317381	0.6947953105
4457.4738391111	0.6865577102
4459.4026464842	0.7238140702
4461.3314538572	0.6851057410
4463.2602612303	0.6588336229
4465.1890686033	0.6964817643
4467.1178759764	0.6657309532
4469.0466833494	0.6523818970
4470.9754907225	0.6574102640
4472.9042980955	0.6695760489
4474.8331054686	0.6801507473
4476.7619128416	0.6753273606
4478.6907202147	0.6698004603
4480.6195275877	0.6714221239
4482.5483349607	0.6789672375
4484.4771423338	0.6683641076
4486.4059497068	0.6666139960
4488.3347570799	0.6718956828
4490.2635644529	0.6777570844
4492.1923718260	0.6689351201
4494.1211791990	0.6796253920
4496.0499865721	0.6818276048
4497.9787939451	0.6820396781
4499.9076013182	0.7075819969
4501.8364086912	0.6767846346
4503.7652160643	0.6854348779
4505.6940234373	0.6772134900
4507.6228308104	0.6454798579
4509.5516381834	0.6785230637
4511.4804455564	0.6889848113
4513.4092529295	0.6868271828
4515.3380603025	0.6724169254
4517.2668676756	0.6795198321
4519.1956750486	0.6989055872
4521.1244824217	0.6859213114
4523.0532897947	0.6487606168
4524.9820971678	0.6503431797
4526.9109045408	0.6819887161
4528.8397119139	0.6541627645
4530.7685192869	0.6596189141
4532.6973266600	0.6594022512
4534.6261340330	0.6572159529
4536.5549414061	0.6524457932
4538.4837487791	0.6302044988
4540.4125561521	0.6867166162
4542.3413635252	0.6960937977
4544.2701708982	0.6920781136
4546.1989782713	0.6865410805
4548.1277856443	0.6691882014
4550.0565930174	0.6814441681
4551.9854003904	0.6609761119
4553.9142077635	0.6668413877
4555.8430151365	0.6665421128
4557.7718225096	0.6895999312
4559.7006298826	0.7089939713
4561.6294372557	0.6675925255
4563.5582446287	0.6599900723
4565.4870520018	0.6640464664
4567.4158593748	0.6587226987
4569.3446667478	0.6504579782
4571.2734741209	0.6666419506
4573.2022814939	0.6777014732
4575.1310888670	0.6802902222
4577.0598962400	0.6693003178
4578.9887036131	0.6359665990
4580.9175109861	0.6447641253
4582.8463183592	0.6428282857
4584.7751257322	0.6492007375
4586.7039331053	0.6785477996
4588.6327404783	0.6871579289
4590.5615478514	0.6761627793
4592.4903552244	0.6751992702
4594.4191625975	0.6787424684
4596.3479699705	0.6665183306
4598.2767773435	0.6833861470
4600.2055847166	0.6757766008
4602.1343920896	0.6578139663
4604.0631994627	0.6582140326
4605.9920068357	0.6783415675
4607.9208142088	0.7003061771
4609.8496215818	0.6738024950
4611.7784289549	0.6753206253
4613.7072363279	0.6492931843
4615.6360437010	0.6350889802
4617.5648510740	0.6751338840
4619.4936584471	0.6624110937
4621.4224658201	0.6464863420
4623.3512731932	0.6700572968
4625.2800805662	0.6912576556
4627.2088879393	0.6599817276
4629.1376953123	0.6657765508
4631.0665026853	0.6867328286
4632.9953100584	0.6477690339
4634.9241174314	0.6522748470
4636.8529248045	0.6536897421
4638.7817321775	0.6555134654
4640.7105395506	0.6690688133
4642.6393469236	0.6435733438
4644.5681542967	0.6501610875
4646.4969616697	0.6553750038
4648.4257690428	0.6389518976
4650.3545764158	0.6613299847
4652.2833837889	0.6727503538
4654.2121911619	0.6615082026
4656.1409985350	0.6682902575
4658.0698059080	0.6385878921
4659.9986132810	0.6392595768
4661.9274206541	0.7020704746
4663.8562280271	0.6821476221
4665.7850354002	0.6466367245
4667.7138427732	0.6593993306
4669.6426501463	0.6627553701
4671.5714575193	0.6640743613
4673.5002648924	0.6621622443
4675.4290722654	0.6871089935
4677.3578796385	0.7032638192
4679.2866870115	0.6431368589
4681.2154943846	0.6440005302
4683.1443017576	0.6807897091
4685.0731091307	0.6635143757
4687.0019165037	0.6804932356
4688.9307238767	0.6724372506
4690.8595312498	0.6649813056
4692.7883386228	0.6634964347
4694.7171459959	0.6429455876
4696.6459533689	0.6748944521
4698.5747607420	0.6483340263
4700.5035681150	0.6512169242
4702.4323754881	0.6862633228
4704.3611828611	0.6668566465
4706.2899902342	0.7026943564
4708.2187976072	0.6615303755
4710.1476049803	0.6286908984
4712.0764123533	0.7051153779
4714.0052197264	0.6734470129
4715.9340270994	0.6252173781
4717.8628344724	0.6835995317
4719.7916418455	0.6973266602
4721.7204492185	0.6415048242
4723.6492565916	0.6601900458
4725.5780639646	0.6843291521
4727.5068713377	0.6744080186
4729.4356787107	0.6407197118
4731.3644860838	0.6435558200
4733.2932934568	0.7080568671
4735.2221008299	0.6775494218
4737.1509082029	0.6877621412
4739.0797155760	0.6871600747
4741.0085229490	0.6182325482
4742.9373303221	0.6771953106
4744.8661376951	0.6806296110
4746.7949450682	0.6409243345
4748.7237524412	0.6556180716
4750.6525598142	0.6842607856
4752.5813671873	0.7107313871
4754.5101745603	0.6642383337
4756.4389819334	0.6585700512
4758.3677893064	0.6594942808
4760.2965966795	0.6727895737
4762.2254040525	0.6887665391
4764.1542114256	0.6695191860
4766.0830187986	0.7389470935
4768.0118261717	0.6942657232
4769.9406335447	0.6468767524
4771.8694409178	0.6947147250
4773.7982482908	0.6432933807
4775.7270556639	0.6411409974
4777.6558630369	0.6721423864
4779.5846704099	0.6820268631
4781.5134777830	0.6767830849
4783.4422851560	0.6597550511
4785.3710925291	0.6874388456
4787.2998999021	0.6418365836
4789.2287072752	0.6409698725
4791.1575146482	0.6856865287
4793.0863220213	0.6579682231
4795.0151293943	0.6550816298
4796.9439367674	0.6405653358
4798.8727441404	0.6776790619
4800.8015515135	0.6725567579
4802.7303588865	0.6228612065
4804.6591662596	0.7127262950
4806.5879736326	0.7041034698
4808.5167810056	0.6506132483
4810.4455883787	0.6779448390
4812.3743957517	0.6636996269
4814.3032031248	0.6651698947
4816.2320104978	0.6648657918
4818.1608178709	0.6864542961
4820.0896252439	0.6731993556
4822.0184326170	0.6561768055
4823.9472399900	0.7013894320
4825.8760473631	0.6491451263
4827.8048547361	0.6367684603
4829.7336621092	0.6748305559
4831.6624694822	0.6705234051
4833.5912768553	0.6716836095
4835.5200842283	0.6408827901
4837.4488916013	0.6845338345
4839.3776989744	0.7036414742
4841.3065063474	0.6585023403
4843.2353137205	0.6919701099
4845.1641210935	0.6650515199
4847.0929284666	0.6365619898
4849.0217358396	0.6531204581
4850.9505432127	0.6846248507
4852.8793505857	0.7096303701
4854.8081579588	0.6194341183
4856.7369653318	0.6079189181
4858.6657727049	0.6814575791
4860.5945800779	0.6630486250
4862.5233874510	0.6437942386
4864.4521948240	0.6360436678
4866.3810021971	0.6574896574
4868.3098095701	0.6825109124
4870.2386169431	0.6849544644
4872.1674243162	0.6945366263
4874.0962316892	0.6835927367
4876.0250390623	0.7023566961
4877.9538464353	0.6840301156
4879.8826538084	0.6389106512
4881.8114611814	0.6572283506
4883.7402685545	0.6929909587
4885.6690759275	0.6988097429
4887.5978833006	0.6725407243
4889.5266906736	0.6689233780
4891.4554980467	0.6420861483
4893.3843054197	0.6095868945
4895.3131127928	0.6645041108
4897.2419201658	0.7269975543
4899.1707275388	0.6918372512
4901.0995349119	0.6097289324
4903.0283422849	0.6353697777
4904.9571496580	0.6994172931
4906.8859570310	0.6974979043
4908.8147644041	0.7075869441
4910.7435717771	0.6834406853
4912.6723791502	0.6349710226
4914.6011865232	0.6628991365
4916.5299938963	0.6855685711
4918.4588012693	0.6323376298
4920.3876086424	0.6302682757
4922.3164160154	0.6692931652
4924.2452233885	0.6935463548
4926.1740307615	0.7130555511
4928.1028381345	0.6410026550
4930.0316455076	0.6213018894
4931.9604528806	0.6526133418
4933.8892602537	0.6548537612
4935.8180676267	0.7191443443
4937.7468749998	0.6934140325
4939.6756823728	0.6608389616
4941.6044897459	0.6901640892
4943.5332971189	0.7039256692
4945.4621044920	0.7193253040
4947.3909118650	0.6427003145
4949.3197192381	0.6801462770
4951.2485266111	0.7419744730
4953.1773339842	0.6699206233
4955.1061413572	0.6637148261
4957.0349487302	0.6559290290
4958.9637561033	0.6810012460
4960.8925634763	0.6733660698
4962.8213708494	0.6298997402
4964.7501782224	0.6772670746
4966.6789855955	0.6895275712
4968.6077929685	0.6851013899
4970.5366003416	0.6880334616
4972.4654077146	0.6733899713
4974.3942150877	0.6540856957
4976.3230224607	0.6592456102
4978.2518298338	0.6639589071
4980.1806372068	0.6355928779
4982.1094445799	0.6678833365
4984.0382519529	0.7130299807
4985.9670593259	0.6782793403
4987.8958666990	0.6470371485
4989.8246740720	0.6842976809
4991.7534814451	0.6746004224
4993.6822888181	0.6616483331
4995.6110961912	0.6585410237
4997.5399035642	0.6245002747
4999.4687109373	0.6787222624
5001.3975183103	0.6623827815
5003.3263256834	0.6101979613
5005.2551330564	0.6445785761
5007.1839404295	0.6420845389
5009.1127478025	0.6267035604
5011.0415551756	0.6509174705
5012.9703625486	0.6786732674
5014.8991699217	0.6360262632
5016.8279772947	0.6347897053
5018.7567846677	0.6219131351
5020.6855920408	0.6357990503
5022.6143994138	0.7137591839
5024.5432067869	0.6300778985
5026.4720141599	0.5974615216
5028.4008215330	0.6179777980
5030.3296289060	0.5976975560
5032.2584362791	0.6529929638
5034.1872436521	0.6825189590
5036.1160510252	0.6238828897
5038.0448583982	0.6236424446
5039.9736657713	0.6809837818
5041.9024731443	0.6380281448
5043.8312805174	0.6507732868
5045.7600878904	0.6726717949
5047.6888952634	0.6441898942
5049.6177026365	0.6962530017
5051.5465100095	0.6650232077
5053.4753173826	0.6133762598
5055.4041247556	0.6048294902
5057.3329321287	0.6480422020
5059.2617395017	0.6803368926
5061.1905468748	0.6545853615
5063.1193542478	0.6979418993
5065.0481616209	0.7056894898
5066.9769689939	0.6825128198
5068.9057763670	0.7001889348
5070.8345837400	0.6930383444
5072.7633911131	0.7024350166
5074.6921984861	0.6938160658
5076.6210058591	0.6189936399
5078.5498132322	0.6254201531
5080.4786206052	0.6586049199
5082.4074279783	0.6404700279
5084.3362353513	0.6443399787
5086.2650427244	0.6294265985
5088.1938500974	0.6997414827
5090.1226574705	0.6872997880
5092.0514648435	0.6319216490
5093.9802722166	0.6645230055
5095.9090795896	0.6533641219
5097.8378869627	0.7206571698
5099.7666943357	0.6665910482
5101.6955017088	0.6227941513
5103.6243090818	0.6961566210
5105.5531164548	0.6523649693
5107.4819238279	0.6706438065
5109.4107312009	0.6880386472
5111.3395385740	0.6229768991
5113.2683459470	0.5981988907
5115.1971533201	0.6759542227
5117.1259606931	0.6556676030
5119.0547680662	0.6201308966
5120.9835754392	0.6818768382
5122.9123828123	0.6563704014
5124.8411901853	0.6691308618
5126.7699975584	0.6380472779
5128.6988049314	0.6770360470
5130.6276123045	0.7048352957
5132.5564196775	0.6229370236
5134.4852270506	0.6583377719
5136.4140344236	0.6136062741
5138.3428417966	0.6555906534
5140.2716491697	0.7039356232
5142.2004565427	0.6391435266
5144.1292639158	0.6657450795
5146.0580712888	0.6905090213
5147.9868786619	0.7015281916
5149.9156860349	0.6736898422
5151.8444934080	0.6429698467
5153.7733007810	0.5931049585
5155.7021081541	0.6514261365
5157.6309155271	0.6975012422
5159.5597229002	0.6346019506
5161.4885302732	0.6812077761
5163.4173376463	0.6746671796
5165.3461450193	0.6771114469
5167.2749523923	0.6534749269
5169.2037597654	0.6617541313
5171.1325671384	0.6941413283
5173.0613745115	0.5865340233
5174.9901818845	0.6633537412
5176.9189892576	0.6985331774
5178.8477966306	0.6333113313
5180.7766040037	0.6863686442
5182.7054113767	0.6701599360
5184.6342187498	0.6515386105
5186.5630261228	0.6987008452
5188.4918334959	0.7004870176
5190.4206408689	0.6514320374
5192.3494482420	0.7245596051
5194.2782556150	0.7452981472
5196.2070629880	0.6642334461
5198.1358703611	0.6772240996
5200.0646777341	0.5962811112
5201.9934851072	0.6168045402
5203.9222924802	0.6368951201
5205.8510998533	0.6213166118
5207.7799072263	0.6787623763
5209.7087145994	0.5915484428
5211.6375219724	0.7230293155
5213.5663293455	0.7692708373
5215.4951367185	0.6306335926
5217.4239440916	0.6447453499
5219.3527514646	0.5797434449
5221.2815588377	0.6919565201
5223.2103662107	0.6994146705
5225.1391735837	0.5959891081
5227.0679809568	0.6902889609
5228.9967883298	0.6867470145
5230.9255957029	0.6874723434
5232.8544030759	0.6778742671
5234.7832104490	0.7254889011
5236.7120178220	0.6955453753
5238.6408251951	0.6555607319
5240.5696325681	0.7191798091
5242.4984399412	0.6509910226
5244.4272473142	0.6250602603
5246.3560546873	0.5981010795
5248.2848620603	0.6546371579
5250.2136694334	0.6538372040
5252.1424768064	0.5747873783
5254.0712841795	0.6688608527
5256.0000915525	0.6490802765
5257.9288989255	0.6129077673
5259.8577062986	0.6868067384
5261.7865136716	0.7708851099
5263.7153210447	0.7091699839
5265.6441284177	0.6360399127
5267.5729357908	0.6329396367
5269.5017431638	0.5416216254
5271.4305505369	0.6424232721
5273.3593579099	0.6736285090
5275.2881652830	0.6617830992
5277.2169726560	0.7665467858
5279.1457800291	0.6946108937
5281.0745874021	0.6679036021
5283.0033947752	0.6194120049
5284.9322021482	0.6305955052
5286.8610095212	0.6716787219
5288.7898168943	0.6367569566
5290.7186242673	0.6757465601
5292.6474316404	0.6874009371
5294.5762390134	0.6878281832
5296.5050463865	0.7592417598
5298.4338537595	0.6833263040
5300.3626611326	0.5627031922
5302.2914685056	0.7625321746
5304.2202758787	0.7998390198
5306.1490832517	0.6515380740
5308.0778906248	0.6366755366
5310.0066979978	0.5865051746
5311.9355053709	0.6957029104
5313.8643127439	0.7265263200
5315.7931201169	0.6228098869
5317.7219274900	0.6800939441
5319.6507348630	0.7731556296
5321.5795422361	0.6911520958
5323.5083496091	0.5779067278
5325.4371569822	0.7041973472
5327.3659643552	0.6675541997
5329.2947717283	0.5790566802
5331.2235791013	0.6211508512
5333.1523864744	0.5919902325
5335.0811938474	0.6939816475
5337.0100012205	0.6870979667
5338.9388085935	0.6398912668
5340.8676159666	0.6487507224
5342.7964233396	0.6086777449
5344.7252307126	0.6073741317
5346.6540380857	0.6031566262
5348.5828454587	0.7250306010
5350.5116528318	0.7260250449
5352.4404602048	0.6384693980
5354.3692675779	0.6658299565
5356.2980749509	0.6483584642
5358.2268823240	0.6723619103
5360.1556896970	0.6502352357
5362.0844970701	0.6033825278
5364.0133044431	0.6330770850
5365.9421118162	0.6615697742
5367.8709191892	0.6881198287
5369.7997265623	0.6823765635
5371.7285339353	0.7144789696
5373.6573413083	0.6727046967
5375.5861486814	0.6268258691
5377.5149560544	0.6551830173
5379.4437634275	0.6266090274
5381.3725708005	0.7141852379
5383.3013781736	0.7062758207
5385.2301855466	0.6126013994
5387.1589929197	0.6447032094
5389.0878002927	0.6503745914
5391.0166076658	0.7234330773
5392.9454150388	0.7380564809
5394.8742224119	0.6938267350
5396.8030297849	0.6745370030
5398.7318371580	0.6609599590
5400.6606445310	0.6609124541
5402.5894519041	0.6328704953
5404.5182592771	0.6794206500
5406.4470666501	0.6631297469
5408.3758740232	0.6920697093
5410.3046813962	0.6789105535
5412.2334887693	0.6429015398
5414.1622961423	0.6807664633
5416.0911035154	0.6168856025
5418.0199108884	0.7181400061
5419.9487182615	0.7392554283
5421.8775256345	0.7248637080
5423.8063330076	0.7752364278
5425.7351403806	0.6661947966
5427.6639477537	0.6521102786
5429.5927551267	0.6597029567
5431.5215624998	0.7269522548
5433.4503698728	0.6412445903
5435.3791772458	0.5286602378
5437.3079846189	0.6305121183
5439.2367919919	0.6967158914
5441.1655993650	0.7628930211
5443.0944067380	0.6663175821
5445.0232141111	0.6567243338
5446.9520214841	0.6657891870
5448.8808288572	0.5907598734
5450.8096362302	0.6297277808
5452.7384436033	0.6196819544
5454.6672509763	0.6295583248
5456.5960583494	0.6790633202
5458.5248657224	0.6712526083
5460.4536730955	0.5864343643
5462.3824804685	0.6139045358
5464.3112878415	0.6499267817
5466.2400952146	0.5517501831
5468.1689025876	0.5916184187
5470.0977099607	0.6408184171
5472.0265173337	0.6199568510
5473.9553247068	0.5930868983
5475.8841320798	0.5925202370
5477.8129394529	0.5800645351
5479.7417468259	0.6797018647
5481.6705541990	0.8070794344
5483.5993615720	0.6355440021
5485.5281689451	0.6459967494
5487.4569763181	0.7109122276
5489.3857836912	0.6444840431
5491.3145910642	0.6369636655
5493.2433984372	0.5495312214
5495.1722058103	0.6406258941
5497.1010131833	0.7506087422
5499.0298205564	0.6572310925
5500.9586279294	0.5319275856
5502.8874353025	0.5597407818
5504.8162426755	0.6874241233
5506.7450500486	0.6485128999
5508.6738574216	0.6526709795
5510.6026647947	0.7164080143
5512.5314721677	0.7047884464
5514.4602795408	0.6696872711
5516.3890869138	0.7045795918
5518.3178942869	0.6979445815
5520.2467016599	0.5977817774
5522.1755090330	0.5933813453
5524.1043164060	0.6852117777
5526.0331237790	0.7002562881
5527.9619311521	0.5891715884
5529.8907385251	0.6047762632
5531.8195458982	0.6672014594
5533.7483532712	0.7052045465
5535.6771606443	0.7391313910
5537.6059680173	0.6489887834
5539.5347753904	0.6901060343
5541.4635827634	0.6927912235
5543.3923901365	0.6224030852
5545.3211975095	0.7920178771
5547.2500048826	0.6919202209
5549.1788122556	0.5044388175
5551.1076196287	0.6682631969
5553.0364270017	0.7839355469
5554.9652343747	0.6620522141
5556.8940417478	0.6414307356
5558.8228491208	0.6214780211
5560.7516564939	0.5789889693
5562.6804638669	0.6234444976
5564.6092712400	0.6393569112
5566.5380786130	0.5562971830
5568.4668859861	0.5635334849
5570.3956933591	0.6067981124
5572.3245007322	0.7197396159
5574.2533081052	0.7734987140
5576.1821154783	0.5286039710
5578.1109228513	0.5679844618
5580.0397302244	0.7262044549
5581.9685375974	0.6738288403
5583.8973449704	0.6178742647
5585.8261523435	0.5053817630
5587.7549597165	0.6387168765
5589.6837670896	0.6937054396
5591.6125744626	0.5982273221
5593.5413818357	0.7642184496
5595.4701892087	0.7913810611
5597.3989965818	0.6713548303
5599.3278039548	0.6531274319
5601.2566113279	0.6486826539
5603.1854187009	0.6008527279
5605.1142260740	0.7018948793
5607.0430334470	0.6496327519
5608.9718408201	0.5726845264
5610.9006481931	0.7036879659
5612.8294555661	0.6583839059
5614.7582629392	0.6548312306
5616.6870703122	0.6277707815
5618.6158776853	0.6711621881
5620.5446850583	0.7572478652
5622.4734924314	0.6328317523
5624.4022998044	0.6323817968
5626.3311071775	0.5528948307
5628.2599145505	0.5895029902
5630.1887219236	0.7396167517
5632.1175292966	0.6929721832
5634.0463366697	0.6791561246
5635.9751440427	0.6036842465
5637.9039514158	0.6298072338
5639.8327587888	0.6871376634
5641.7615661619	0.5594831705
5643.6903735349	0.6213445663
5645.6191809079	0.7507682443
5647.5479882810	0.7841875553
5649.4767956540	0.7189509273
5651.4056030271	0.6381015182
5653.3344104001	0.7478583455
5655.2632177732	0.6813739538
5657.1920251462	0.7246666551
5659.1208325193	0.7981390357
5661.0496398923	0.5173875093
5662.9784472654	0.5279856920
5664.9072546384	0.6646957397
5666.8360620115	0.7642475367
5668.7648693845	0.6055613756
5670.6936767576	0.5604286790
5672.6224841306	0.8623487353
5674.5512915036	0.7334478498
5676.4800988767	0.6741481423
5678.4089062497	0.7167762518
5680.3377136228	0.6118884683
5682.2665209958	0.6807957292
5684.1953283689	0.6368426681
5686.1241357419	0.6413452029
5688.0529431150	0.6259263158
5689.9817504880	0.6282064915
5691.9105578611	0.7220613956
5693.8393652341	0.6816884279
5695.7681726072	0.6871231794
5697.6969799802	0.7758732438
5699.6257873533	0.7560608387
5701.5545947263	0.6226528883
5703.4834020993	0.7394108772
5705.4122094724	0.6968131661
5707.3410168454	0.5240831971
5709.2698242185	0.6818976998
5711.1986315915	0.6618732214
5713.1274389646	0.5398961306
5715.0562463376	0.5768415928
5716.9850537107	0.7728290558
5718.9138610837	0.8027839065
5720.8426684568	0.7303709388
5722.7714758298	0.7195829749
5724.7002832029	0.6108340621
5726.6290905759	0.6290622950
5728.5578979490	0.5513030887
5730.4867053220	0.6233242750
5732.4155126950	0.7169446349
5734.3443200681	0.5397174954
5736.2731274411	0.6610795856
5738.2019348142	0.6196748614
5740.1307421872	0.5810514092
5742.0595495603	0.8340678215
5743.9883569333	0.6840927601
5745.9171643064	0.4513498247
5747.8459716794	0.5858088732
5749.7747790525	0.7586466670
5751.7035864255	0.7027271390
5753.6323937986	0.6929750443
5755.5612011716	0.6807978749
5757.4900085447	0.6811550260
5759.4188159177	0.5732554197
5761.3476232907	0.6337633133
5763.2764306638	0.8092247844
5765.2052380368	0.5702377558
5767.1340454099	0.6202994585
5769.0628527829	0.6428838968
5770.9916601560	0.4857015908
5772.9204675290	0.7465911508
5774.8492749021	0.8327916861
5776.7780822751	0.6921586990
5778.7068896482	0.5804197788
5780.6356970212	0.6237221360
5782.5645043943	0.7225854397
5784.4933117673	0.6898640990
5786.4221191404	0.6915304065
5788.3509265134	0.7590211630
5790.2797338865	0.8067833185
5792.2085412595	0.6286710501
5794.1373486325	0.5441581607
5796.0661560056	0.6087637544
5797.9949633786	0.7914689779
5799.9237707517	0.8029807806
5801.8525781247	0.5017383099
5803.7813854978	0.4779463410
5805.7101928708	0.5805550218
5807.6390002439	0.6927911639
5809.5678076169	0.7392883897
5811.4966149900	0.6424707770
5813.4254223630	0.7880373001
5815.3542297361	0.7803832293
5817.2830371091	0.6115201116
5819.2118444822	0.6916380525
5821.1406518552	0.7083561420
5823.0694592282	0.6792568564
5824.9982666013	0.7195776105
5826.9270739743	0.6565315127
5828.8558813474	0.5569416881
5830.7846887204	0.4793568552
5832.7134960935	0.6996724606
5834.6423034665	0.8455039859
5836.5711108396	0.5696086287
5838.4999182126	0.7004866600
5840.4287255857	0.7812362313
5842.3575329587	0.5729622841
5844.2863403318	0.6812534928
5846.2151477048	0.6357342601
5848.1439550779	0.7308301330
5850.0727624509	0.8963524699
5852.0015698239	0.6512199640
5853.9303771970	0.7142218947
5855.8591845700	0.7552738786
5857.7879919431	0.5144939423
5859.7167993161	0.4766843319
5861.6456066892	0.6885805726
5863.5744140622	0.6373200417
5865.5032214353	0.6734163761
5867.4320288083	0.6258588433
5869.3608361814	0.5228638649
5871.2896435544	0.8402921557
5873.2184509275	0.7306255102
5875.1472583005	0.6550047994
5877.0760656736	0.7737206221
5879.0048730466	0.7529217005
5880.9336804196	0.7881674767
5882.8624877927	0.6023138165
5884.7912951657	0.7336763740
5886.7201025388	0.7063956261
5888.6489099118	0.5079830885
5890.5777172849	0.7823485136
5892.5065246579	0.7962865233
5894.4353320310	0.8102150559
5896.3641394040	0.8098677397
5898.2929467771	0.5645163059
5900.2217541501	0.5003388524
5902.1505615232	0.6871815920
5904.0793688962	0.5910631418
5906.0081762693	0.4433126152
5907.9369836423	0.6316075921
5909.8657910154	0.7339929938
5911.7945983884	0.7453126907
5913.7234057614	0.5427650213
5915.6522131345	0.5450661778
5917.5810205075	0.6560554504
5919.5098278806	0.5675117373
5921.4386352536	0.5523524880
5923.3674426267	0.4696093500
5925.2962499997	0.6633626223
5927.2250573728	0.7175987959
5929.1538647458	0.7726944685
5931.0826721189	1.0030773878
5933.0114794919	0.6766999960
5934.9402868650	0.6707866788
5936.8690942380	0.6478368640
5938.7979016111	0.7636143565
5940.7267089841	0.9032934904
5942.6555163571	0.6512395144
5944.5843237302	0.8582851887
5946.5131311032	0.7538886070
5948.4419384763	0.4148638844
5950.3707458493	0.6540921330
5952.2995532224	0.7152623534
5954.2283605954	0.5152123570
5956.1571679685	0.5443021655
5958.0859753415	0.6701293588
5960.0147827146	0.6947044134
5961.9435900876	0.7026642561
5963.8723974607	0.9518303871
5965.8012048337	0.7349976301
5967.7300122068	0.5589945316
5969.6588195798	0.6929042339
5971.5876269528	0.5391102433
5973.5164343259	0.9494417906
5975.4452416989	0.8999260664
5977.3740490720	0.4991158843
5979.3028564450	0.8762518764
5981.2316638181	0.7181871533
5983.1604711911	0.6116434336
5985.0892785642	0.6714220047
5987.0180859372	0.5549354553
5988.9468933103	0.6285513639
5990.8757006833	0.4076679349
5992.8045080564	0.5617184043
5994.7333154294	0.5874321461
5996.6621228025	0.5352127552
5998.5909301755	0.8391605616
6000.5197375485	0.6559780240
