399.2631262207	1.1783354282
401.1919335938	0.4718267918
403.1207409668	0.3421986103
405.0495483398	0.8221364617
406.9783557129	0.4814277589
408.9071630859	0.5073501468
410.8359704590	0.6018235087
412.7647778320	0.5423206091
414.6935852051	0.6478154063
416.6223925781	0.4685017169
418.5511999512	0.6581738591
420.4800073242	0.6075754166
422.4088146973	0.4967098534
424.3376220703	0.5841208696
426.2664294434	0.4956354499
428.1952368164	0.6526407003
430.1240441895	0.6003714800
432.0528515625	0.5168529749
433.9816589355	0.6080672145
435.9104663086	0.5169661045
437.8392736816	0.7006087303
439.7680810547	0.7645487189
441.6968884277	0.6548223495
443.6256958008	0.6618866324
445.5545031738	0.6247989535
447.4833105469	0.6898106933
449.4121179199	0.5735272765
451.3409252930	0.5284041762
453.2697326660	0.6324437261
455.1985400391	0.6583423018
457.1273474121	0.7877835631
459.0561547852	0.7053158283
460.9849621582	0.6625041962
462.9137695313	0.6278100610
464.8425769043	0.3955262899
466.7713842773	0.7636945844
468.7001916504	0.9012715220
470.6289990234	0.2665291429
472.5578063965	0.1864493340
474.4866137695	0.8685339689
476.4154211426	0.8348689675
478.3442285156	0.3173270226
480.2730358887	0.7148771286
482.2018432617	0.9906118512
484.1306506348	0.6159539819
486.0594580078	1.1631724834
487.9882653809	0.0773265287
489.9170727539	0.4834560752
491.8458801270	11.6424541473
493.7746875000	-0.0558494292
495.7034948730	0.5357909203
497.6323022461	0.8095875382
499.5611096191	0.4109398425
501.4899169922	1.0136258602
503.4187243652	-0.3079129457
505.3475317383	-0.0682243556
507.2763391113	0.9583621621
509.2051464844	0.6404418945
511.1339538574	-0.1903754920
513.0627612305	-0.0991161913
514.9915686035	0.7774478197
516.9203759766	1.2785407305
518.8491833496	-0.0204298720
520.7779907227	0.4686725438
522.7067980957	0.7277430892
524.6356054688	-0.1216390133
526.5644128418	1.2020778656
528.4932202148	4.4342942238
530.4220275879	0.0372355878
532.3508349609	1.0363503695
534.2796423340	1.0171521902
536.2084497070	1.0171521902
538.1372570801	0.4814438224
540.0660644531	0.9736985564
541.9948718262	-2.1948595047
543.9236791992	0.5981681943
545.8524865723	1.3777126074
547.7812939453	0.4539153576
549.7101013184	0.4958169162
551.6389086914	0.4885624349
553.5677160645	0.3302471340
555.4965234375	1.8723804951
557.4253308105	0.1694371551
559.3541381836	0.6249549389
561.2829455566	1.4031411409
563.2117529297	-0.0199306700
565.1405603027	0.6463217735
567.0693676758	0.6032339931
568.9981750488	1.7030942440
570.9269824219	2.3037943840
572.8557897949	1.0314857960
574.7845971680	0.7623258829
576.7134045410	0.1128404215
578.6422119141	0.3023396730
580.5710192871	0.3312921524
582.4998266602	0.2991840541
584.4286340332	1.2103108168
586.3574414063	0.6645353436
588.2862487793	1.4604551792
590.2150561523	40.4753417969
592.1438635254	0.7333115935
594.0726708984	1.6209821701
596.0014782715	0.4699871540
597.9302856445	1.1862777472
599.8590930176	11.4128236771
601.7879003906	0.7809646130
603.7167077637	0.8948286772
605.6455151367	1.0328763723
607.5743225098	-0.5233036876
609.5031298828	1.4579780102
611.4319372559	4.8386960030
613.3607446289	-4.7902855873
615.2895520020	1.7684922218
617.2183593750	-0.0365788974
619.1471667480	-0.0276140738
621.0759741211	2.7141380310
623.0047814941	-0.2210274339
624.9335888672	-0.3424986899
626.8623962402	-0.1008635461
628.7912036133	-0.0061200242
630.7200109863	0.6159453392
632.6488183594	0.6402975917
634.5776257324	0.5996893048
636.5064331055	0.5367974639
638.4352404785	0.5865383148
640.3640478516	0.4918294847
642.2928552246	0.5950520635
644.2216625977	0.5793697834
646.1504699707	0.6801397204
648.0792773438	0.8636833429
650.0080847168	0.6268410087
651.9368920898	0.6149451137
653.8656994629	0.6006180048
655.7945068359	0.6160723567
657.7233142090	0.6608223319
659.6521215820	0.7253196836
661.5809289551	0.6421415210
663.5097363281	0.5110186338
665.4385437012	0.6675769687
667.3673510742	0.6641682982
669.2961584473	0.6634443402
671.2249658203	0.6702291369
673.1537731934	0.5828586817
675.0825805664	0.6734638214
677.0113879395	0.6673791409
678.9401953125	0.6724272966
680.8690026855	0.6959902048
682.7978100586	0.7126964927
684.7266174316	0.7449945211
686.6554248047	0.6917247772
688.5842321777	0.6628817320
690.5130395508	0.6606581807
692.4418469238	0.7344793677
694.3706542969	0.6997926831
696.2994616699	0.6734538674
698.2282690430	0.7189623713
700.1570764160	0.6732094884
702.0858837891	0.6788192391
704.0146911621	0.6824212670
705.9434985352	0.6837922931
707.8723059082	0.7326039672
709.8011132813	0.6827968955
711.7299206543	0.6282028556
713.6587280273	0.6695292592
715.5875354004	0.8909887075
717.5163427734	0.6413396597
719.4451501465	0.3654058874
721.3739575195	0.5959625244
723.3027648926	0.8784834743
725.2315722656	0.1735819429
727.1603796387	-0.1143828854
729.0891870117	0.9169073105
731.0179943848	0.4750619829
732.9468017578	0.2690503895
734.8756091309	1.7979270220
736.8044165039	-0.0971147940
738.7332238770	0.0568706729
740.6620312500	1.1358486414
742.5908386230	-0.9392729998
744.5196459961	4.1201906204
746.4484533691	0.3874947131
748.3772607422	0.0590099134
750.3060681152	1.0506392717
752.2348754883	0.0990073681
754.1636828613	1.0225453377
756.0924902344	1.6259181499
758.0212976074	1.4245749712
759.9501049805	5.0061287880
761.8789123535	0.3502582312
763.8077197266	0.7972104549
765.7365270996	9.8709144592
767.6653344727	0.4927991927
769.5941418457	0.1222538427
771.5229492188	0.8566823602
773.4517565918	0.3922919929
775.3805639648	0.6666335464
777.3093713379	1.3567426205
779.2381787109	0.4443758726
781.1669860840	0.5180773139
783.0957934570	0.5268371105
785.0246008301	0.0999149233
786.9534082031	0.4502973557
788.8822155762	0.9848809242
790.8110229492	1.7243084908
792.7398303223	1.1618026495
794.6686376953	0.8227025270
796.5974450684	0.5806851983
798.5262524414	0.6614880562
800.4550598145	0.5803968906
802.3838671875	0.4531166852
804.3126745605	0.7591285706
806.2414819336	0.6241357923
808.1702893066	0.8680018187
810.0990966797	1.2009925842
812.0279040527	0.4981032312
813.9567114258	0.9999808073
815.8855187988	1.0276123285
817.8143261719	0.5881909132
819.7431335449	0.9016231298
821.6719409180	0.5810482502
823.6007482910	0.4710238278
825.5295556641	1.1509350538
827.4583630371	1.0819963217
829.3871704102	0.8419539928
831.3159777832	0.8029901981
833.2447851563	0.8611417413
835.1735925293	0.9114829302
837.1023999023	0.8618136644
839.0312072754	1.0105202198
840.9600146484	0.8188481331
842.8888220215	0.6887910366
844.8176293945	0.9577996135
846.7464367676	0.8726702929
848.6752441406	0.9157497287
850.6040515137	0.9321871400
852.5328588867	0.7553725839
854.4616662598	0.7438573241
856.3904736328	1.0765060186
858.3192810059	1.5263892412
860.2480883789	1.3585039377
862.1768957520	1.1130356789
864.1057031250	0.9297541976
866.0345104980	0.7437120080
867.9633178711	0.8478466272
869.8921252441	2.2204279900
871.8209326172	1.6418830156
873.7497399902	0.4905419052
875.6785473633	0.8211948872
877.6073547363	1.4993885756
879.5361621094	1.6818375587
881.4649694824	1.8476042747
883.3937768555	0.6153590083
885.3225842285	0.5473058820
887.2513916016	1.1507726908
889.1801989746	1.6326112747
891.1090063477	1.5108665228
893.0378137207	0.8276383877
894.9666210938	0.6443912387
896.8954284668	0.4511933923
898.8242358398	0.5297328234
900.7530432129	0.5746378303
902.6818505859	0.7187277079
904.6106579590	0.9276676774
906.5394653320	1.0395277739
908.4682727051	1.2425547838
910.3970800781	1.5067390203
912.3258874512	1.1041746140
914.2546948242	0.9481148720
916.1835021973	1.1594563723
918.1123095703	0.8951003551
920.0411169434	0.9091420174
921.9699243164	0.8684943914
923.8987316895	0.9080575705
925.8275390625	1.1320104599
927.7563464355	0.9546412826
929.6851538086	1.1568764448
931.6139611816	1.1028820276
933.5427685547	1.0221996307
935.4715759277	1.1217277050
937.4003833008	0.9341613650
939.3291906738	1.0108921528
941.2579980469	0.9390227795
943.1868054199	1.0338201523
945.1156127930	1.0703911781
947.0444201660	0.8382508159
948.9732275391	1.0656182766
950.9020349121	1.0265406370
952.8308422852	0.9383556247
954.7596496582	1.0797626972
956.6884570313	0.9485252500
958.6172644043	0.9570151567
960.5460717773	1.0119881630
962.4748791504	0.8787850142
964.4036865234	0.8649793863
966.3324938965	0.9486448765
968.2613012695	0.9406107664
970.1901086426	1.0010280609
972.1189160156	0.9888013601
974.0477233887	0.9605914950
975.9765307617	1.0207443237
977.9053381348	1.0039495230
979.8341455078	0.9620034695
981.7629528809	0.9298162460
983.6917602539	0.9649416208
985.6205676270	0.9573838115
987.5493750000	0.9651836753
989.4781823730	0.9995732307
991.4069897461	0.9808478951
993.3357971191	0.9757327437
995.2646044922	0.9902716875
997.1934118652	1.0461666584
999.1222192383	1.0248862505
1001.0510266113	0.9833763242
1002.9798339844	0.9808184505
1004.9086413574	0.9785882235
1006.8374487305	1.0005922318
1008.7662561035	0.9987101555
1010.6950634766	1.0047698021
1012.6238708496	0.9939190149
1014.5526782227	0.9953628778
1016.4814855957	1.0094605684
1018.4102929688	0.9957536459
1020.3391003418	1.0069171190
1022.2679077148	0.9917076230
1024.1967150879	0.9987741113
1026.1255224609	1.0169521570
1028.0543298340	1.0016076565
1029.9831372070	1.0060681105
1031.9119445801	1.0015631914
1033.8407519531	1.0083447695
1035.7695593262	1.0033134222
1037.6983666992	0.9877935648
1039.6271740723	1.0028016567
1041.5559814453	1.0056216717
1043.4847888184	1.0037750006
1045.4135961914	1.0049310923
1047.3424035645	1.0082552433
1049.2712109375	1.0120891333
1051.2000183105	1.0041723251
1053.1288256836	1.0052622557
1055.0576330566	1.0100842714
1056.9864404297	1.0078924894
1058.9152478027	0.9980781078
1060.8440551758	0.9951890707
1062.7728625488	1.0086729527
1064.7016699219	1.0014618635
1066.6304772949	0.9948747158
1068.5592846680	1.0042794943
1070.4880920410	0.9920579791
1072.4168994141	1.0070798397
1074.3457067871	1.0276906490
1076.2745141602	1.0031913519
1078.2033215332	1.0013538599
1080.1321289062	1.0067412853
1082.0609362793	1.0040733814
1083.9897436523	1.0256596804
1085.9185510254	1.0211097002
1087.8473583984	0.9987939596
1089.7761657715	1.0061360598
1091.7049731445	1.0003892183
1093.6337805176	1.0028128624
1095.5625878906	0.9940355420
1097.4913952637	0.9699747562
1099.4202026367	0.9997360110
1101.3490100098	0.9995175600
1103.2778173828	1.0037186146
1105.2066247559	0.9949447513
1107.1354321289	0.9795855284
1109.0642395019	1.0414675474
1110.9930468750	1.0168567896
1112.9218542480	0.9849365354
1114.8506616211	1.0004519224
1116.7794689941	1.0014804602
1118.7082763672	0.9828749895
1120.6370837402	0.9572350979
1122.5658911133	1.0343781710
1124.4946984863	1.0654006004
1126.4235058594	0.9795772433
1128.3523132324	0.9712501168
1130.2811206055	1.0210902691
1132.2099279785	0.9919012189
1134.1387353516	0.9926934838
1136.0675427246	1.0385198593
1137.9963500977	0.9902074337
1139.9251574707	0.9908192158
1141.8539648437	1.0231287479
1143.7827722168	1.0145605803
1145.7115795898	1.0074133873
1147.6403869629	1.0080335140
1149.5691943359	1.0104603767
1151.4980017090	1.0006089211
1153.4268090820	1.0205273628
1155.3556164551	1.0113825798
1157.2844238281	0.9959272146
1159.2132312012	1.0127909184
1161.1420385742	1.0085287094
1163.0708459473	1.0076731443
1164.9996533203	1.0025407076
1166.9284606934	1.0023592710
1168.8572680664	0.9957110286
1170.7860754394	0.9924230576
1172.7148828125	1.0119906664
1174.6436901855	1.0140377283
1176.5724975586	1.0085979700
1178.5013049316	0.9996850491
1180.4301123047	1.0047399998
1182.3589196777	1.0117404461
1184.2877270508	1.0022970438
1186.2165344238	1.0044587851
1188.1453417969	1.0058803558
1190.0741491699	1.0019695759
1192.0029565430	1.0023657084
1193.9317639160	1.0043170452
1195.8605712891	1.0048193932
1197.7893786621	0.9985759854
1199.7181860351	0.9939845800
1201.6469934082	1.0085741282
1203.5758007812	1.0166565180
1205.5046081543	1.0088427067
1207.4334155273	1.0089017153
1209.3622229004	1.0079696178
1211.2910302734	1.0098509789
1213.2198376465	1.0091570616
1215.1486450195	1.0072816610
1217.0774523926	1.0106109381
1219.0062597656	1.0072364807
1220.9350671387	1.0051416159
1222.8638745117	1.0056016445
1224.7926818848	1.0099351406
1226.7214892578	1.0061765909
1228.6502966308	1.0026851892
1230.5791040039	1.0039540529
1232.5079113769	1.0004352331
1234.4367187500	1.0110821724
1236.3655261230	1.0101292133
1238.2943334961	1.0058240891
1240.2231408691	1.0110259056
1242.1519482422	1.0085411072
1244.0807556152	1.0088976622
1246.0095629883	1.0040355921
1247.9383703613	1.0097693205
1249.8671777344	1.0112839937
1251.7959851074	1.0035144091
1253.7247924805	1.0097179413
1255.6535998535	1.0107185841
1257.5824072266	1.0119920969
1259.5112145996	1.0075317621
1261.4400219726	1.0037034750
1263.3688293457	1.0095465183
1265.2976367187	1.0090520382
1267.2264440918	1.0078934431
1269.1552514648	1.0059878826
1271.0840588379	1.0064439774
1273.0128662109	1.0075802803
1274.9416735840	1.0074609518
1276.8704809570	1.0056798458
1278.7992883301	1.0073931217
1280.7280957031	1.0078972578
1282.6569030762	1.0056300163
1284.5857104492	1.0146732330
1286.5145178223	1.0055359602
1288.4433251953	1.0000042915
1290.3721325683	1.0167456865
1292.3009399414	1.0161151886
1294.2297473144	1.0061329603
1296.1585546875	1.0010336637
1298.0873620605	1.0096347332
1300.0161694336	1.0132302046
1301.9449768066	1.0105198622
1303.8737841797	1.0122706890
1305.8025915527	1.0038743019
1307.7313989258	1.0112309456
1309.6602062988	1.0127743483
1311.5890136719	1.0024237633
1313.5178210449	1.0105892420
1315.4466284180	1.0120224953
1317.3754357910	1.0104241371
1319.3042431640	1.0108995438
1321.2330505371	1.0092937946
1323.1618579101	1.0103361607
1325.0906652832	1.0082672834
1327.0194726562	1.0092062950
1328.9482800293	1.0084452629
1330.8770874023	1.0079836845
1332.8058947754	1.0119416714
1334.7347021484	1.0123561621
1336.6635095215	1.0084089041
1338.5923168945	1.0053933859
1340.5211242676	1.0108810663
1342.4499316406	1.0138341188
1344.3787390137	1.0109391212
1346.3075463867	1.0121181011
1348.2363537597	1.0134973526
1350.1651611328	1.0116899014
1352.0939685058	1.0074584484
1354.0227758789	1.0063250065
1355.9515832519	1.0096986294
1357.8803906250	1.0073736906
1359.8091979980	1.0040856600
1361.7380053711	1.0083013773
1363.6668127441	1.0098946095
1365.5956201172	1.0081450939
1367.5244274902	1.0076839924
1369.4532348633	1.0089607239
1371.3820422363	1.0089153051
1373.3108496094	1.0068325996
1375.2396569824	1.0100922585
1377.1684643555	1.0076540709
1379.0972717285	1.0062767267
1381.0260791015	1.0086890459
1382.9548864746	1.0071407557
1384.8836938476	1.0089137554
1386.8125012207	1.0051665306
1388.7413085937	1.0091326237
1390.6701159668	1.0150135756
1392.5989233398	1.0077869892
1394.5277307129	1.0033026934
1396.4565380859	1.0082300901
1398.3853454590	1.0098844767
1400.3141528320	1.0041081905
1402.2429602051	1.0102037191
1404.1717675781	1.0115188360
1406.1005749512	1.0060248375
1408.0293823242	1.0069966316
1409.9581896972	1.0034404993
1411.8869970703	1.0065343380
1413.8158044433	1.0068550110
1415.7446118164	1.0078691244
1417.6734191894	1.0065507889
1419.6022265625	1.0015420914
1421.5310339355	1.0080950260
1423.4598413086	1.0050785542
1425.3886486816	1.0067247152
1427.3174560547	1.0105960369
1429.2462634277	1.0048958063
1431.1750708008	1.0031806231
1433.1038781738	1.0066667795
1435.0326855469	1.0035684109
1436.9614929199	0.9995624423
1438.8903002929	1.0112310648
1440.8191076660	1.0094047785
1442.7479150390	1.0086050034
1444.6767224121	1.0117828846
1446.6055297851	1.0071260929
1448.5343371582	1.0062249899
1450.4631445312	1.0050504208
1452.3919519043	1.0062564611
1454.3207592773	1.0007474422
1456.2495666504	1.0022016764
1458.1783740234	1.0061917305
1460.1071813965	1.0025271177
1462.0359887695	1.0046359301
1463.9647961426	1.0073478222
1465.8936035156	1.0086177588
1467.8224108886	1.0052785873
1469.7512182617	1.0060238838
1471.6800256347	1.0028578043
1473.6088330078	1.0024850368
1475.5376403808	1.0093396902
1477.4664477539	1.0080151558
1479.3952551269	1.0076874495
1481.3240625000	1.0067139864
1483.2528698730	1.0028091669
1485.1816772461	1.0014561415
1487.1104846191	1.0055966377
1489.0392919922	1.0046733618
1490.9680993652	0.9998949170
1492.8969067383	1.0046161413
1494.8257141113	1.0041642189
1496.7545214843	1.0013204813
1498.6833288574	1.0015877485
1500.6121362304	1.0011210442
1502.5409436035	1.0042558908
1504.4697509765	1.0026313066
1506.3985583496	0.9976189733
1508.3273657226	0.9996472001
1510.2561730957	0.9999912977
1512.1849804687	1.0008921623
1514.1137878418	1.0022100210
1516.0425952148	0.9988133311
1517.9714025879	0.9986450672
1519.9002099609	0.9966303706
1521.8290173340	0.9940794110
1523.7578247070	0.9992702603
1525.6866320801	0.9968910813
1527.6154394531	0.9950546622
1529.5442468261	0.9984250069
1531.4730541992	0.9978742599
1533.4018615722	0.9943521023
1535.3306689453	0.9941772223
1537.2594763183	0.9945949912
1539.1882836914	0.9895808697
1541.1170910644	0.9919284582
1543.0458984375	0.9938442707
1544.9747058105	0.9912708402
1546.9035131836	0.9920467734
1548.8323205566	0.9911304116
1550.7611279297	0.9906594157
1552.6899353027	0.9904403687
1554.6187426758	0.9908090830
1556.5475500488	0.9899569750
1558.4763574218	0.9835551381
1560.4051647949	0.9833725691
1562.3339721679	0.9870062470
1564.2627795410	0.9864240289
1566.1915869140	0.9864457846
1568.1203942871	0.9839179516
1570.0492016601	0.9801728129
1571.9780090332	0.9805747867
1573.9068164062	0.9801210761
1575.8356237793	0.9792388082
1577.7644311523	0.9767870903
1579.6932385254	0.9758050442
1581.6220458984	0.9756833911
1583.5508532715	0.9733339548
1585.4796606445	0.9712706208
1587.4084680175	0.9698984623
1589.3372753906	0.9676251411
1591.2660827636	0.9627911448
1593.1948901367	0.9614098072
1595.1236975097	0.9588139057
1597.0525048828	0.9556592703
1598.9813122558	0.9547750354
1600.9101196289	0.9492316842
1602.8389270019	0.9461131692
1604.7677343750	0.9421076179
1606.6965417480	0.9369881749
1608.6253491211	0.9344791770
1610.5541564941	0.9292975664
1612.4829638672	0.9250754118
1614.4117712402	0.9210981727
1616.3405786132	0.9154772162
1618.2693859863	0.9132027626
1620.1981933593	0.9093762636
1622.1270007324	0.9044038057
1624.0558081054	0.9020313621
1625.9846154785	0.8979692459
1627.9134228515	0.8958338499
1629.8422302246	0.8921527863
1631.7710375976	0.8897984028
1633.6998449707	0.8903719187
1635.6286523437	0.8852500319
1637.5574597168	0.8867036700
1639.4862670898	0.8890581131
1641.4150744629	0.8850111365
1643.3438818359	0.8859645128
1645.2726892090	0.8884717822
1647.2014965820	0.8886725903
1649.1303039550	0.8940132856
1651.0591113281	0.8941187263
1652.9879187011	0.8901147842
1654.9167260742	0.8987008929
1656.8455334472	0.9032464623
1658.7743408203	0.9064157605
1660.7031481933	0.9086718559
1662.6319555664	0.9103094339
1664.5607629394	0.9148483276
1666.4895703125	0.9198053479
1668.4183776855	0.9242583513
1670.3471850586	0.9238194227
1672.2759924316	0.9289351106
1674.2047998047	0.9353758693
1676.1336071777	0.9360249639
1678.0624145507	0.9424579144
1679.9912219238	0.9469512105
1681.9200292968	0.9476606250
1683.8488366699	0.9493768811
1685.7776440429	0.9542683363
1687.7064514160	0.9606716037
1689.6352587890	0.9618074894
1691.5640661621	0.9681355357
1693.4928735351	0.9720069170
1695.4216809082	0.9707572460
1697.3504882812	0.9761437774
1699.2792956543	0.9766336083
1701.2081030273	0.9798412919
1703.1369104004	0.9845207930
1705.0657177734	0.9875211120
1706.9945251464	0.9918733239
1708.9233325195	0.9924092293
1710.8521398925	0.9955388308
1712.7809472656	0.9963673949
1714.7097546386	0.9989702702
1716.6385620117	1.0011476278
1718.5673693847	1.0000253916
1720.4961767578	1.0063762665
1722.4249841308	1.0087258816
1724.3537915039	1.0086853504
1726.2825988769	1.0119063854
1728.2114062500	1.0131268501
1730.1402136230	1.0123546124
1732.0690209961	1.0127029419
1733.9978283691	1.0113081932
1735.9266357421	1.0149378777
1737.8554431152	1.0188467503
1739.7842504882	1.0173617601
1741.7130578613	1.0188205242
1743.6418652343	1.0190055370
1745.5706726074	1.0191715956
1747.4994799804	1.0205925703
1749.4282873535	1.0183764696
1751.3570947265	1.0182884932
1753.2859020996	1.0229296684
1755.2147094726	1.0267766714
1757.1435168457	1.0241603851
1759.0723242187	1.0241407156
1761.0011315918	1.0249718428
1762.9299389648	1.0241730213
1764.8587463379	1.0278190374
1766.7875537109	1.0265467167
1768.7163610839	1.0266125202
1770.6451684570	1.0273997784
1772.5739758300	1.0250922441
1774.5027832031	1.0277580023
1776.4315905761	1.0288929939
1778.3603979492	1.0293623209
1780.2892053222	1.0304013491
1782.2180126953	1.0302568674
1784.1468200683	1.0299795866
1786.0756274414	1.0298751593
1788.0044348144	1.0297492743
1789.9332421875	1.0291945934
1791.8620495605	1.0289105177
1793.7908569336	1.0302399397
1795.7196643066	1.0327630043
1797.6484716796	1.0330849886
1799.5772790527	1.0317075253
1801.5060864257	1.0299756527
1803.4348937988	1.0311166048
1805.3637011718	1.0341346264
1807.2925085449	1.0333172083
1809.2213159179	1.0323960781
1811.1501232910	1.0317215919
1813.0789306640	1.0323247910
1815.0077380371	1.0334296227
1816.9365454101	1.0326687098
1818.8653527832	1.0340800285
1820.7941601562	1.0334835052
1822.7229675293	1.0325174332
1824.6517749023	1.0332981348
1826.5805822753	1.0335501432
1828.5093896484	1.0333212614
1830.4381970214	1.0333175659
1832.3670043945	1.0358151197
1834.2958117675	1.0344468355
1836.2246191406	1.0333144665
1838.1534265136	1.0332089663
1840.0822338867	1.0332657099
1842.0110412597	1.0357911587
1843.9398486328	1.0313746929
1845.8686560058	1.0326822996
1847.7974633789	1.0352787971
1849.7262707519	1.0335315466
1851.6550781250	1.0370328426
1853.5838854980	1.0358158350
1855.5126928710	1.0358186960
1857.4415002441	1.0348685980
1859.3703076171	1.0339592695
1861.2991149902	1.0377522707
1863.2279223632	1.0350987911
1865.1567297363	1.0356656313
1867.0855371093	1.0355933905
1869.0143444824	1.0334067345
1870.9431518554	1.0366572142
1872.8719592285	1.0352596045
1874.8007666015	1.0341998339
1876.7295739746	1.0360696316
1878.6583813476	1.0341836214
1880.5871887207	1.0337911844
1882.5159960937	1.0360951424
1884.4448034667	1.0359447002
1886.3736108398	1.0361350775
1888.3024182128	1.0357902050
1890.2312255859	1.0346595049
1892.1600329589	1.0352709293
1894.0888403320	1.0361567736
1896.0176477050	1.0344908237
1897.9464550781	1.0317393541
1899.8752624511	1.0350319147
1901.8040698242	1.0362069607
1903.7328771972	1.0352622271
1905.6616845703	1.0356773138
1907.5904919433	1.0334682465
1909.5192993164	1.0343817472
1911.4481066894	1.0336416960
1913.3769140625	1.0339347124
1915.3057214355	1.0350785255
1917.2345288085	1.0334712267
1919.1633361816	1.0343976021
1921.0921435546	1.0333256721
1923.0209509277	1.0334525108
1924.9497583007	1.0345548391
1926.8785656738	1.0330120325
1928.8073730468	1.0335884094
1930.7361804199	1.0354046822
1932.6649877929	1.0335755348
1934.5937951660	1.0327949524
1936.5226025390	1.0347803831
1938.4514099121	1.0340744257
1940.3802172851	1.0338565111
1942.3090246582	1.0325880051
1944.2378320312	1.0333824158
1946.1666394042	1.0339710712
1948.0954467773	1.0320119858
1950.0242541503	1.0343747139
1951.9530615234	1.0338596106
1953.8818688964	1.0337103605
1955.8106762695	1.0340417624
1957.7394836425	1.0325331688
1959.6682910156	1.0329431295
1961.5970983886	1.0307757854
1963.5259057617	1.0312392712
1965.4547131347	1.0324397087
1967.3835205078	1.0310931206
1969.3123278808	1.0315970182
1971.2411352539	1.0314673185
1973.1699426269	1.0305641890
1975.0987499999	1.0312602520
1977.0275573730	1.0315448046
1978.9563647460	1.0309288502
1980.8851721191	1.0323804617
1982.8139794921	1.0331513882
1984.7427868652	1.0326502323
1986.6715942382	1.0325300694
1988.6004016113	1.0313868523
1990.5292089843	1.0297441483
1992.4580163574	1.0296345949
1994.3868237304	1.0306001902
1996.3156311035	1.0296165943
1998.2444384765	1.0304838419
2000.1732458496	1.0311386585
2002.1020532226	1.0286340714
2004.0308605956	1.0294604301
2005.9596679687	1.0306071043
2007.8884753417	1.0305104256
2009.8172827148	1.0306895971
2011.7460900878	1.0291043520
2013.6748974609	1.0291893482
2015.6037048339	1.0303521156
2017.5325122070	1.0305367708
2019.4613195800	1.0290938616
2021.3901269531	1.0285719633
2023.3189343261	1.0300531387
2025.2477416992	1.0279698372
2027.1765490722	1.0286412239
2029.1053564453	1.0298242569
2031.0341638183	1.0284919739
2032.9629711914	1.0297921896
2034.8917785644	1.0273159742
2036.8205859374	1.0264784098
2038.7493933105	1.0265762806
2040.6782006835	1.0275156498
2042.6070080566	1.0297436714
2044.5358154296	1.0263540745
2046.4646228027	1.0276191235
2048.3934301757	1.0291219950
2050.3222375488	1.0277155638
2052.2510449218	1.0255825520
2054.1798522949	1.0249465704
2056.1086596679	1.0278617144
2058.0374670410	1.0257390738
2059.9662744140	1.0259844065
2061.8950817871	1.0254590511
2063.8238891601	1.0251309872
2065.7526965331	1.0271441936
2067.6815039062	1.0244836807
2069.6103112792	1.0255089998
2071.5391186523	1.0254206657
2073.4679260253	1.0250570774
2075.3967333984	1.0265479088
2077.3255407714	1.0260183811
2079.2543481445	1.0259399414
2081.1831555175	1.0255637169
2083.1119628906	1.0245519876
2085.0407702636	1.0227149725
2086.9695776367	1.0237857103
2088.8983850097	1.0239111185
2090.8271923828	1.0250918865
2092.7559997558	1.0258984566
2094.6848071288	1.0224114656
2096.6136145019	1.0235403776
2098.5424218749	1.0240912437
2100.4712292480	1.0243996382
2102.4000366210	1.0239597559
2104.3288439941	1.0219159126
2106.2576513671	1.0241045952
2108.1864587402	1.0242711306
2110.1152661132	1.0233244896
2112.0440734863	1.0226304531
2113.9728808593	1.0237574577
2115.9016882324	1.0254676342
2117.8304956054	1.0235631466
2119.7593029785	1.0241065025
2121.6881103515	1.0242859125
2123.6169177245	1.0240190029
2125.5457250976	1.0246453285
2127.4745324706	1.0224431753
2129.4033398437	1.0238697529
2131.3321472167	1.0246843100
2133.2609545898	1.0231838226
2135.1897619628	1.0251245499
2137.1185693359	1.0242210627
2139.0473767089	1.0237493515
2140.9761840820	1.0245419741
2142.9049914550	1.0243804455
2144.8337988281	1.0252382755
2146.7626062011	1.0231373310
2148.6914135742	1.0214548111
2150.6202209472	1.0208539963
2152.5490283203	1.0227028131
2154.4778356933	1.0261735916
2156.4066430663	1.0252153873
2158.3354504394	1.0243986845
2160.2642578124	1.0245546103
2162.1930651855	1.0245018005
2164.1218725585	1.0254105330
2166.0506799316	1.0250511169
2167.9794873046	1.0239859819
2169.9082946777	1.0249935389
2171.8371020507	1.0244923830
2173.7659094238	1.0230737925
2175.6947167968	1.0241371393
2177.6235241699	1.0242444277
2179.5523315429	1.0258415937
2181.4811389160	1.0259342194
2183.4099462890	1.0243823528
2185.3387536620	1.0253696442
2187.2675610351	1.0249105692
2189.1963684081	1.0256711245
2191.1251757812	1.0254288912
2193.0539831542	1.0229625702
2194.9827905273	1.0240292549
2196.9115979003	1.0265096426
2198.8404052734	1.0268317461
2200.7692126464	1.0263198614
2202.6980200195	1.0264419317
2204.6268273925	1.0260728598
2206.5556347656	1.0263363123
2208.4844421386	1.0268683434
2210.4132495117	1.0258466005
2212.3420568847	1.0260889530
2214.2708642577	1.0287230015
2216.1996716308	1.0290119648
2218.1284790038	1.0272704363
2220.0572863769	1.0265458822
2221.9860937499	1.0256412029
2223.9149011230	1.0254008770
2225.8437084960	1.0271793604
2227.7725158691	1.0279878378
2229.7013232421	1.0261076689
2231.6301306152	1.0276083946
2233.5589379882	1.0285727978
2235.4877453613	1.0274245739
2237.4165527343	1.0291419029
2239.3453601074	1.0290654898
2241.2741674804	1.0294264555
2243.2029748534	1.0274050236
2245.1317822265	1.0261404514
2247.0605895995	1.0282734632
2248.9893969726	1.0279479027
2250.9182043456	1.0296671391
2252.8470117187	1.0298991203
2254.7758190917	1.0298414230
2256.7046264648	1.0299764872
2258.6334338378	1.0297877789
2260.5622412109	1.0297659636
2262.4910485839	1.0278060436
2264.4198559570	1.0298808813
2266.3486633300	1.0314048529
2268.2774707031	1.0310786963
2270.2062780761	1.0295715332
2272.1350854491	1.0285420418
2274.0638928222	1.0294979811
2275.9927001952	1.0292483568
2277.9215075683	1.0304121971
2279.8503149413	1.0300465822
2281.7791223144	1.0301338434
2283.7079296874	1.0312302113
2285.6367370605	1.0321093798
2287.5655444335	1.0316778421
2289.4943518066	1.0304425955
2291.4231591796	1.0303379297
2293.3519665527	1.0285351276
2295.2807739257	1.0301615000
2297.2095812988	1.0302406549
2299.1383886718	1.0287811756
2301.0671960449	1.0294964314
2302.9960034179	1.0297398567
2304.9248107909	1.0292407274
2306.8536181640	1.0269520283
2308.7824255370	1.0286973715
2310.7112329101	1.0274146795
2312.6400402831	1.0251990557
2314.5688476562	1.0247570276
2316.4976550292	1.0225061178
2318.4264624023	1.0234692097
2320.3552697753	1.0197209120
2322.2840771484	1.0175464153
2324.2128845214	1.0190508366
2326.1416918945	1.0177659988
2328.0704992675	1.0158782005
2329.9993066406	1.0131936073
2331.9281140136	1.0138254166
2333.8569213866	1.0148806572
2335.7857287597	1.0138307810
2337.7145361327	1.0128436089
2339.6433435058	1.0146993399
2341.5721508788	1.0167955160
2343.5009582519	1.0158817768
2345.4297656249	1.0159354210
2347.3585729980	1.0206475258
2349.2873803710	1.0251283646
2351.2161877441	1.0219192505
2353.1449951171	1.0156859159
2355.0738024902	1.0118558407
2357.0026098632	1.0123009682
2358.9314172363	1.0101121664
2360.8602246093	1.0056712627
2362.7890319823	1.0072665215
2364.7178393554	1.0076504946
2366.6466467284	1.0087023973
2368.5754541015	1.0110518932
2370.5042614745	1.0171598196
2372.4330688476	1.0206681490
2374.3618762206	1.0201202631
2376.2906835937	1.0265311003
2378.2194909667	1.0283061266
2380.1482983398	1.0299499035
2382.0771057128	1.0333490372
2384.0059130859	1.0328924656
2385.9347204589	1.0353648663
2387.8635278320	1.0349234343
2389.7923352050	1.0338485241
2391.7211425780	1.0353578329
2393.6499499511	1.0336377621
2395.5787573241	1.0331864357
2397.5075646972	1.0359396935
2399.4363720702	1.0358490944
2401.3651794433	1.0351201296
2403.2939868163	1.0330193043
2405.2227941894	1.0317577124
2407.1516015624	1.0356311798
2409.0804089355	1.0357389450
2411.0092163085	1.0357708931
2412.9380236816	1.0363465548
2414.8668310546	1.0354660749
2416.7956384277	1.0360821486
2418.7244458007	1.0348097086
2420.6532531738	1.0353776217
2422.5820605468	1.0349125862
2424.5108679198	1.0341354609
2426.4396752929	1.0359274149
2428.3684826659	1.0365653038
2430.2972900390	1.0375120640
2432.2260974120	1.0376973152
2434.1549047851	1.0360134840
2436.0837121581	1.0351369381
2438.0125195312	1.0356183052
2439.9413269042	1.0358395576
2441.8701342773	1.0374574661
2443.7989416503	1.0362111330
2445.7277490234	1.0343848467
2447.6565563964	1.0358089209
2449.5853637695	1.0363879204
2451.5141711425	1.0365935564
2453.4429785155	1.0337350368
2455.3717858886	1.0347553492
2457.3005932616	1.0355159044
2459.2294006347	1.0340424776
2461.1582080077	1.0366711617
2463.0870153808	1.0344313383
2465.0158227538	1.0351980925
2466.9446301269	1.0352470875
2468.8734374999	1.0330804586
2470.8022448730	1.0372838974
2472.7310522460	1.0381568670
2474.6598596191	1.0364127159
2476.5886669921	1.0354470015
2478.5174743652	1.0361260176
2480.4462817382	1.0356789827
2482.3750891112	1.0366355181
2484.3038964843	1.0378266573
2486.2327038573	1.0350017548
2488.1615112304	1.0364350080
2490.0903186034	1.0370417833
2492.0191259765	1.0366361141
2493.9479333495	1.0363503695
2495.8767407226	1.0357675552
2497.8055480956	1.0381042957
2499.7343554687	1.0371444225
2501.6631628417	1.0361902714
2503.5919702148	1.0367704630
2505.5207775878	1.0352939367
2507.4495849609	1.0341053009
2509.3783923339	1.0357539654
2511.3071997069	1.0353882313
2513.2360070800	1.0359296799
2515.1648144530	1.0390959978
2517.0936218261	1.0361483097
2519.0224291991	1.0372844934
2520.9512365722	1.0383634567
2522.8800439452	1.0350952148
2524.8088513183	1.0375232697
2526.7376586913	1.0394209623
2528.6664660644	1.0399191380
2530.5952734374	1.0355488062
2532.5240808105	1.0327494144
2534.4528881835	1.0379943848
2536.3816955566	1.0379608870
2538.3105029296	1.0354228020
2540.2393103027	1.0369255543
2542.1681176757	1.0370274782
2544.0969250487	1.0367467403
2546.0257324218	1.0389273167
2547.9545397948	1.0368685722
2549.8833471679	1.0352542400
2551.8121545409	1.0371979475
2553.7409619140	1.0359832048
2555.6697692870	1.0359575748
2557.5985766601	1.0358864069
2559.5273840331	1.0355228186
2561.4561914062	1.0360834599
2563.3849987792	1.0371246338
2565.3138061523	1.0384278297
2567.2426135253	1.0364396572
2569.1714208984	1.0353584290
2571.1002282714	1.0354857445
2573.0290356444	1.0357998610
2574.9578430175	1.0349330902
2576.8866503905	1.0358164310
2578.8154577636	1.0386415720
2580.7442651366	1.0361187458
2582.6730725097	1.0368287563
2584.6018798827	1.0382392406
2586.5306872558	1.0369812250
2588.4594946288	1.0398939848
2590.3883020019	1.0379507542
2592.3171093749	1.0340931416
2594.2459167480	1.0369478464
2596.1747241210	1.0366857052
2598.1035314941	1.0332041979
2600.0323388671	1.0347791910
2601.9611462401	1.0357013941
2603.8899536132	1.0353443623
2605.8187609862	1.0360584259
2607.7475683593	1.0376861095
2609.6763757323	1.0403816700
2611.6051831054	1.0379767418
2613.5339904784	1.0355696678
2615.4627978515	1.0368621349
2617.3916052245	1.0386124849
2619.3204125976	1.0381097794
2621.2492199706	1.0349627733
2623.1780273437	1.0358108282
2625.1068347167	1.0372320414
2627.0356420898	1.0362070799
2628.9644494628	1.0356097221
2630.8932568358	1.0372495651
2632.8220642089	1.0385298729
2634.7508715819	1.0372488499
2636.6796789550	1.0379735231
2638.6084863280	1.0371673107
2640.5372937011	1.0353138447
2642.4661010741	1.0372939110
2644.3949084472	1.0386514664
2646.3237158202	1.0352655649
2648.2525231933	1.0352537632
2650.1813305663	1.0382938385
2652.1101379394	1.0360049009
2654.0389453124	1.0374742746
2655.9677526855	1.0372943878
2657.8965600585	1.0339030027
2659.8253674315	1.0360730886
2661.7541748046	1.0350797176
2663.6829821776	1.0345820189
2665.6117895507	1.0360901356
2667.5405969237	1.0354489088
2669.4694042968	1.0352110863
2671.3982116698	1.0357224941
2673.3270190429	1.0365141630
2675.2558264159	1.0364482403
2677.1846337890	1.0371481180
2679.1134411620	1.0358290672
2681.0422485351	1.0342499018
2682.9710559081	1.0355793238
2684.8998632812	1.0352332592
2686.8286706542	1.0342613459
2688.7574780273	1.0355978012
2690.6862854003	1.0350285769
2692.6150927733	1.0353374481
2694.5439001464	1.0387463570
2696.4727075194	1.0348546505
2698.4015148925	1.0344514847
2700.3303222655	1.0368658304
2702.2591296386	1.0331550837
2704.1879370116	1.0374755859
2706.1167443847	1.0357741117
2708.0455517577	1.0310460329
2709.9743591308	1.0359674692
2711.9031665038	1.0347069502
2713.8319738769	1.0342320204
2715.7607812499	1.0347955227
2717.6895886230	1.0338666439
2719.6183959960	1.0362715721
2721.5472033690	1.0342025757
2723.4760107421	1.0335670710
2725.4048181151	1.0350908041
2727.3336254882	1.0340272188
2729.2624328612	1.0340318680
2731.1912402343	1.0332741737
2733.1200476073	1.0339303017
2735.0488549804	1.0346369743
2736.9776623534	1.0327388048
2738.9064697265	1.0341771841
2740.8352770995	1.0349876881
2742.7640844726	1.0328749418
2744.6928918456	1.0326248407
2746.6216992187	1.0326731205
2748.5505065917	1.0329862833
2750.4793139647	1.0317944288
2752.4081213378	1.0305005312
2754.3369287108	1.0330929756
2756.2657360839	1.0330461264
2758.1945434569	1.0303691626
2760.1233508300	1.0316015482
2762.0521582030	1.0325639248
2763.9809655761	1.0315876007
2765.9097729491	1.0332145691
2767.8385803222	1.0338569880
2769.7673876952	1.0316092968
2771.6961950683	1.0311242342
2773.6250024413	1.0313477516
2775.5538098144	1.0300812721
2777.4826171874	1.0307279825
2779.4114245604	1.0324612856
2781.3402319335	1.0313370228
2783.2690393065	1.0303815603
2785.1978466796	1.0301496983
2787.1266540526	1.0301980972
2789.0554614257	1.0308871269
2790.9842687987	1.0300334692
2792.9130761718	1.0313407183
2794.8418835448	1.0322822332
2796.7706909179	1.0315735340
2798.6994982909	1.0328828096
2800.6283056640	1.0313754082
2802.5571130370	1.0312705040
2804.4859204101	1.0329997540
2806.4147277831	1.0313065052
2808.3435351562	1.0303261280
2810.2723425292	1.0282924175
2812.2011499022	1.0278644562
2814.1299572753	1.0294134617
2816.0587646483	1.0271787643
2817.9875720214	1.0256133080
2819.9163793944	1.0275822878
2821.8451867675	1.0289220810
2823.7739941405	1.0261676311
2825.7028015136	1.0295562744
2827.6316088866	1.0318289995
2829.5604162597	1.0243264437
2831.4892236327	1.0271056890
2833.4180310058	1.0284577608
2835.3468383788	1.0257312059
2837.2756457519	1.0286717415
2839.2044531249	1.0248626471
2841.1332604979	1.0258095264
2843.0620678710	1.0272206068
2844.9908752440	1.0223519802
2846.9196826171	1.0212260485
2848.8484899901	1.0221642256
2850.7772973632	1.0227913857
2852.7061047362	1.0204780102
2854.6349121093	1.0223985910
2856.5637194823	1.0228408575
2858.4925268554	1.0209358931
2860.4213342284	1.0231714249
2862.3501416015	1.0204964876
2864.2789489745	1.0195045471
2866.2077563476	1.0214996338
2868.1365637206	1.0208276510
2870.0653710936	1.0200518370
2871.9941784667	1.0199918747
2873.9229858397	1.0183885098
2875.8517932128	1.0179209709
2877.7806005858	1.0198063850
2879.7094079589	1.0189148188
2881.6382153319	1.0215543509
2883.5670227050	1.0223367214
2885.4958300780	1.0187762976
2887.4246374511	1.0182155371
2889.3534448241	1.0175613165
2891.2822521972	1.0168545246
2893.2110595702	1.0158644915
2895.1398669433	1.0165444613
2897.0686743163	1.0152506828
2898.9974816893	1.0159177780
2900.9262890624	1.0168632269
2902.8550964354	1.0134159327
2904.7839038085	1.0165131092
2906.7127111815	1.0147131681
2908.6415185546	1.0124154091
2910.5703259276	1.0160007477
2912.4991333007	1.0106122494
2914.4279406737	1.0060940981
2916.3567480468	1.0071645975
2918.2855554198	1.0071524382
2920.2143627929	1.0087165833
2922.1431701659	1.0107812881
2924.0719775390	1.0074955225
2926.0007849120	1.0063397884
2927.9295922851	1.0105929375
2929.8583996581	1.0092858076
2931.7872070311	1.0043298006
2933.7160144042	1.0043069124
2935.6448217772	1.0073647499
2937.5736291503	1.0081732273
2939.5024365233	1.0074173212
2941.4312438964	1.0027651787
2943.3600512694	1.0028432608
2945.2888586425	1.0064862967
2947.2176660155	1.0014257431
2949.1464733886	1.0015392303
2951.0752807616	1.0036627054
2953.0040881347	1.0024979115
2954.9328955077	1.0026578903
2956.8617028808	1.0003571510
2958.7905102538	0.9996041656
2960.7193176268	1.0004870892
2962.6481249999	1.0026416779
2964.5769323729	0.9987111092
2966.5057397460	0.9969476461
2968.4345471190	1.0004520416
2970.3633544921	0.9960526228
2972.2921618651	0.9963644147
2974.2209692382	0.9965210557
2976.1497766112	0.9943749905
2978.0785839843	0.9964455366
2980.0073913573	0.9945371151
2981.9361987304	0.9940794706
2983.8650061034	0.9934927225
2985.7938134765	0.9920017123
2987.7226208495	0.9903113246
2989.6514282225	0.9869750142
2991.5802355956	0.9878844619
2993.5090429686	0.9892734885
2995.4378503417	0.9891871810
2997.3666577147	0.9864692092
2999.2954650878	0.9842708111
3001.2242724608	0.9855253696
3003.1530798339	0.9827952385
3005.0818872069	0.9815281034
3007.0106945800	0.9829223752
3008.9395019530	0.9804625511
3010.8683093261	0.9783424735
3012.7971166991	0.9781668186
3014.7259240722	0.9776708484
3016.6547314452	0.9771060944
3018.5835388182	0.9766827822
3020.5123461913	0.9721584320
3022.4411535643	0.9707159996
3024.3699609374	0.9747291803
3026.2987683104	0.9711740017
3028.2275756835	0.9683949351
3030.1563830565	0.9686425924
3032.0851904296	0.9666623473
3034.0139978026	0.9671514034
3035.9428051757	0.9640112519
3037.8716125487	0.9617226720
3039.8004199218	0.9623600841
3041.7292272948	0.9605891705
3043.6580346679	0.9602640271
3045.5868420409	0.9583277106
3047.5156494139	0.9570345879
3049.4444567870	0.9564619660
3051.3732641600	0.9515003562
3053.3020715331	0.9514498711
3055.2308789061	0.9522405267
3057.1596862792	0.9465156198
3059.0884936522	0.9451649189
3061.0173010253	0.9460260272
3062.9461083983	0.9436709881
3064.8749157714	0.9411179423
3066.8037231444	0.9395385385
3068.7325305175	0.9385962486
3070.6613378905	0.9368252754
3072.5901452636	0.9355469942
3074.5189526366	0.9345103502
3076.4477600097	0.9356832504
3078.3765673827	0.9332092404
3080.3053747557	0.9275891781
3082.2341821288	0.9282763600
3084.1629895018	0.9254400730
3086.0917968749	0.9215325713
3088.0206042479	0.9227522016
3089.9494116210	0.9213377237
3091.8782189940	0.9176388383
3093.8070263671	0.9169678688
3095.7358337401	0.9163511395
3097.6646411132	0.9106719494
3099.5934484862	0.9092691541
3101.5222558593	0.9094203711
3103.4510632323	0.9058685899
3105.3798706054	0.9022125602
3107.3086779784	0.8988105655
3109.2374853514	0.9003500938
3111.1662927245	0.8980135322
3113.0951000975	0.8933247328
3115.0239074706	0.8920409679
3116.9527148436	0.8891624808
3118.8815222167	0.8886893392
3120.8103295897	0.8870227337
3122.7391369628	0.8846556544
3124.6679443358	0.8811774850
3126.5967517089	0.8775186539
3128.5255590819	0.8783203363
3130.4543664550	0.8746104836
3132.3831738280	0.8700774312
3134.3119812011	0.8667151332
3136.2407885741	0.8635383248
3138.1695959471	0.8629047275
3140.0984033202	0.8580607772
3142.0272106932	0.8559668660
3143.9560180663	0.8558058143
3145.8848254393	0.8512246609
3147.8136328124	0.8490313292
3149.7424401854	0.8487811089
3151.6712475585	0.8461276293
3153.6000549315	0.8408915401
3155.5288623046	0.8403076530
3157.4576696776	0.8400636911
3159.3864770507	0.8365838528
3161.3152844237	0.8344623446
3163.2440917968	0.8298706412
3165.1728991698	0.8289287090
3167.1017065428	0.8261680007
3169.0305139159	0.8206171393
3170.9593212889	0.8208347559
3172.8881286620	0.8180885911
3174.8169360350	0.8152393699
3176.7457434081	0.8122101426
3178.6745507811	0.8084687591
3180.6033581542	0.8079488277
3182.5321655272	0.8043490648
3184.4609729003	0.8008629084
3186.3897802733	0.7983571291
3188.3185876464	0.7931095362
3190.2473950194	0.7922118902
3192.1762023925	0.7940386534
3194.1050097655	0.7909809351
3196.0338171386	0.7891163826
3197.9626245116	0.7863118052
3199.8914318846	0.7823139429
3201.8202392577	0.7805808187
3203.7490466307	0.7759599090
3205.6778540038	0.7754747272
3207.6066613768	0.7751047015
3209.5354687499	0.7714142799
3211.4642761229	0.7699871659
3213.3930834960	0.7678651214
3215.3218908690	0.7680559754
3217.2506982421	0.7671495080
3219.1795056151	0.7616143227
3221.1083129882	0.7577378750
3223.0371203612	0.7589563131
3224.9659277343	0.7582120299
3226.8947351073	0.7556881905
3228.8235424803	0.7573518753
3230.7523498534	0.7556408644
3232.6811572264	0.7528666258
3234.6099645995	0.7520829439
3236.5387719725	0.7503502965
3238.4675793456	0.7497286201
3240.3963867186	0.7482867837
3242.3251940917	0.7467896342
3244.2540014647	0.7469530106
3246.1828088378	0.7451814413
3248.1116162108	0.7418116927
3250.0404235839	0.7431408763
3251.9692309569	0.7434375286
3253.8980383300	0.7409060597
3255.8268457030	0.7400216460
3257.7556530760	0.7371094227
3259.6844604491	0.7386017442
3261.6132678221	0.7397839427
3263.5420751952	0.7379289269
3265.4708825682	0.7405488491
3267.3996899413	0.7384496927
3269.3284973143	0.7356697321
3271.2573046874	0.7365719080
3273.1861120604	0.7332692742
3275.1149194335	0.7288095355
3277.0437268065	0.7289143205
3278.9725341796	0.7313308120
3280.9013415526	0.7316198349
3282.8301489257	0.7319147587
3284.7589562987	0.7318166494
3286.6877636717	0.7331752777
3288.6165710448	0.7318794727
3290.5453784178	0.7263971567
3292.4741857909	0.7279583812
3294.4029931639	0.7279630303
3296.3318005370	0.7270492315
3298.2606079100	0.7281582952
3300.1894152831	0.7253641486
3302.1182226561	0.7259557843
3304.0470300292	0.7246553898
3305.9758374022	0.7226071954
3307.9046447753	0.7235714793
3309.8334521483	0.7251779437
3311.7622595214	0.7263549566
3313.6910668944	0.7260326147
3315.6198742675	0.7269444466
3317.5486816405	0.7239839435
3319.4774890135	0.7228903174
3321.4062963866	0.7211636901
3323.3351037596	0.7200121880
3325.2639111327	0.7232775092
3327.1927185057	0.7199243903
3329.1215258788	0.7220328450
3331.0503332518	0.7230206132
3332.9791406249	0.7199591994
3334.9079479979	0.7217265368
3336.8367553710	0.7188914418
3338.7655627440	0.7216895223
3340.6943701171	0.7229738235
3342.6231774901	0.7182185054
3344.5519848632	0.7199599743
3346.4807922362	0.7188920379
3348.4095996092	0.7189021111
3350.3384069823	0.7200363278
3352.2672143553	0.7157674432
3354.1960217284	0.7168844342
3356.1248291014	0.7182909846
3358.0536364745	0.7184528708
3359.9824438475	0.7190058827
3361.9112512206	0.7155576348
3363.8400585936	0.7174513340
3365.7688659667	0.7184231281
3367.6976733397	0.7172489762
3369.6264807128	0.7184556723
3371.5552880858	0.7205253839
3373.4840954589	0.7230257392
3375.4129028319	0.7198573947
3377.3417102049	0.7213543057
3379.2705175780	0.7226765752
3381.1993249510	0.7218375206
3383.1281323241	0.7247900963
3385.0569396971	0.7232289314
3386.9857470702	0.7217126489
3388.9145544432	0.7230095863
3390.8433618163	0.7260860205
3392.7721691893	0.7235968113
3394.7009765624	0.7248047590
3396.6297839354	0.7280506492
3398.5585913085	0.7269026041
3400.4873986815	0.7332180738
3402.4162060546	0.7321940660
3404.3450134276	0.7341531515
3406.2738208006	0.7369627953
3408.2026281737	0.7326015830
3410.1314355467	0.7369237542
3412.0602429198	0.7373657227
3413.9890502928	0.7370075583
3415.9178576659	0.7393385768
3417.8466650389	0.7418631911
3419.7754724120	0.7418097854
3421.7042797850	0.7444481850
3423.6330871581	0.7506554723
3425.5618945311	0.7463765740
3427.4907019042	0.7500982881
3429.4195092772	0.7536652684
3431.3483166503	0.7527438998
3433.2771240233	0.7571010590
3435.2059313963	0.7546006441
3437.1347387694	0.7608284950
3439.0635461424	0.7651758790
3440.9923535155	0.7625063062
3442.9211608885	0.7675538063
3444.8499682616	0.7654340863
3446.7787756346	0.7695034146
3448.7075830077	0.7774404287
3450.6363903807	0.7723427415
3452.5651977538	0.7753983140
3454.4940051268	0.7804440260
3456.4228124999	0.7803257108
3458.3516198729	0.7826470137
3460.2804272460	0.7823320627
3462.2092346190	0.7862904668
3464.1380419921	0.7885553241
3466.0668493651	0.7897644639
3467.9956567381	0.7955168486
3469.9244641112	0.7949225903
3471.8532714842	0.7956675291
3473.7820788573	0.7998745441
3475.7108862303	0.8018804789
3477.6396936034	0.8021467328
3479.5685009764	0.8026778698
3481.4973083495	0.8067095280
3483.4261157225	0.8087388873
3485.3549230956	0.8092309237
3487.2837304686	0.8099762797
3489.2125378417	0.8133543134
3491.1413452147	0.8177818656
3493.0701525878	0.8166823387
3494.9989599608	0.8217582107
3496.9277673338	0.8268132210
3498.8565747069	0.8246078491
3500.7853820799	0.8277306557
3502.7141894530	0.8289865851
3504.6429968260	0.8315172195
3506.5718041991	0.8348473907
3508.5006115721	0.8357071877
3510.4294189452	0.8387129307
3512.3582263182	0.8376427889
3514.2870336913	0.8440856338
3516.2158410643	0.8487603068
3518.1446484374	0.8469375372
3520.0734558104	0.8517438173
3522.0022631835	0.8547541499
3523.9310705565	0.8563840985
3525.8598779295	0.8557862043
3527.7886853026	0.8583076000
3529.7174926756	0.8604335189
3531.6463000487	0.8592018485
3533.5751074217	0.8618232608
3535.5039147948	0.8641298413
3537.4327221678	0.8681399226
3539.3615295409	0.8677515388
3541.2903369139	0.8691372275
3543.2191442870	0.8716695309
3545.1479516600	0.8719035387
3547.0767590331	0.8790444732
3549.0055664061	0.8826636672
3550.9343737792	0.8831081986
3552.8631811522	0.8839606643
3554.7919885252	0.8858689070
3556.7207958983	0.8880598545
3558.6496032713	0.8915915489
3560.5784106444	0.8932536840
3562.5072180174	0.8916710019
3564.4360253905	0.8948071003
3566.3648327635	0.8964304924
3568.2936401366	0.9001779556
3570.2224475096	0.9009495378
3572.1512548827	0.9019374847
3574.0800622557	0.9064921141
3576.0088696288	0.9092358947
3577.9376770018	0.9134852290
3579.8664843749	0.9108014107
3581.7952917479	0.9153820276
3583.7240991210	0.9155352116
3585.6529064940	0.9125306010
3587.5817138670	0.9203206301
3589.5105212401	0.9180220962
3591.4393286131	0.9244273305
3593.3681359862	0.9243221879
3595.2969433592	0.9190044999
3597.2257507323	0.9275841713
3599.1545581053	0.9243798852
3601.0833654784	0.9249601960
3603.0121728514	0.9310586452
3604.9409802245	0.9325429201
3606.8697875975	0.9349020123
3608.7985949706	0.9357047081
3610.7274023436	0.9379391670
3612.6562097167	0.9390644431
3614.5850170897	0.9418905973
3616.5138244627	0.9447102547
3618.4426318358	0.9445450902
3620.3714392088	0.9455091357
3622.3002465819	0.9495356083
3624.2290539549	0.9515917301
3626.1578613280	0.9505985975
3628.0866687010	0.9525049925
3630.0154760741	0.9550052881
3631.9442834471	0.9598223567
3633.8730908202	0.9601900578
3635.8018981932	0.9576593637
3637.7307055663	0.9629231095
3639.6595129393	0.9623991251
3641.5883203124	0.9652982354
3643.5171276854	0.9691777825
3645.4459350584	0.9663588405
3647.3747424315	0.9729672074
3649.3035498045	0.9700915813
3651.2323571776	0.9688245058
3653.1611645506	0.9783307910
3655.0899719237	0.9787271023
3657.0187792967	0.9839871526
3658.9475866698	0.9815774560
3660.8763940428	0.9792529345
3662.8052014159	0.9858839512
3664.7340087889	0.9882683158
3666.6628161620	0.9955606461
3668.5916235350	0.9926813245
3670.5204309081	0.9865497947
3672.4492382811	0.9959932566
3674.3780456541	0.9981302619
3676.3068530272	0.9955909848
3678.2356604002	0.9981442094
3680.1644677733	1.0031890869
3682.0932751463	1.0039221048
3684.0220825194	1.0043100119
3685.9508898924	1.0097798109
3687.8796972655	1.0048648119
3689.8085046385	1.0008159876
3691.7373120116	1.0073206425
3693.6661193846	1.0070329905
3695.5949267577	1.0108433962
3697.5237341307	1.0138125420
3699.4525415038	1.0146551132
3701.3813488768	1.0177689791
3703.3101562499	1.0119436979
3705.2389636229	1.0151779652
3707.1677709959	1.0177838802
3709.0965783690	1.0085977316
3711.0253857420	1.0115711689
3712.9541931151	1.0183373690
3714.8830004881	1.0161668062
3716.8118078612	1.0120657682
3718.7406152342	1.0124161243
3720.6694226073	1.0168083906
3722.5982299803	1.0168446302
3724.5270373534	1.0129187107
3726.4558447264	1.0144339800
3728.3846520995	1.0184571743
3730.3134594725	1.0177021027
3732.2422668456	1.0207455158
3734.1710742186	1.0191102028
3736.0998815916	1.0140533447
3738.0286889647	1.0133682489
3739.9574963377	1.0164387226
3741.8863037108	1.0225284100
3743.8151110838	1.0160393715
3745.7439184569	1.0108448267
3747.6727258299	1.0176811218
3749.6015332030	1.0193212032
3751.5303405760	1.0192062855
3753.4591479491	1.0208138227
3755.3879553221	1.0210286379
3757.3167626952	1.0167814493
3759.2455700682	1.0201637745
3761.1743774413	1.0173001289
3763.1031848143	1.0154336691
3765.0319921873	1.0244256258
3766.9607995604	1.0205148458
3768.8896069334	1.0216016769
3770.8184143065	1.0225527287
3772.7472216795	1.0190398693
3774.6760290526	1.0225739479
3776.6048364256	1.0212051868
3778.5336437987	1.0215156078
3780.4624511717	1.0203162432
3782.3912585448	1.0217673779
3784.3200659178	1.0205409527
3786.2488732909	1.0160784721
3788.1776806639	1.0233432055
3790.1064880370	1.0195986032
3792.0352954100	1.0175946951
3793.9641027830	1.0253325701
3795.8929101561	1.0191813707
3797.8217175291	1.0201468468
3799.7505249022	1.0250779390
3801.6793322752	1.0200548172
3803.6081396483	1.0210163593
3805.5369470213	1.0194774866
3807.4657543944	1.0156302452
3809.3945617674	1.0181078911
3811.3233691405	1.0202300549
3813.2521765135	1.0223411322
3815.1809838866	1.0188438892
3817.1097912596	1.0198544264
3819.0385986327	1.0236674547
3820.9674060057	1.0194156170
3822.8962133787	1.0160377026
3824.8250207518	1.0164294243
3826.7538281248	1.0193115473
3828.6826354979	1.0213296413
3830.6114428709	1.0190001726
3832.5402502440	1.0196722746
3834.4690576170	1.0229384899
3836.3978649901	1.0209739208
3838.3266723631	1.0186150074
3840.2554797362	1.0181537867
3842.1842871092	1.0147618055
3844.1130944823	1.0220476389
3846.0419018553	1.0229942799
3847.9707092284	1.0150506496
3849.8995166014	1.0204783678
3851.8283239745	1.0175393820
3853.7571313475	1.0134119987
3855.6859387205	1.0179510117
3857.6147460936	1.0153129101
3859.5435534666	1.0212991238
3861.4723608397	1.0209534168
3863.4011682127	1.0158290863
3865.3299755858	1.0192639828
3867.2587829588	1.0230805874
3869.1875903319	1.0237480402
3871.1163977049	1.0154341459
3873.0452050780	1.0160919428
3874.9740124510	1.0185608864
3876.9028198241	1.0171089172
3878.8316271971	1.0195467472
3880.7604345702	1.0135258436
3882.6892419432	1.0154949427
3884.6180493162	1.0214457512
3886.5468566893	1.0173135996
3888.4756640623	1.0209224224
3890.4044714354	1.0223823786
3892.3332788084	1.0175952911
3894.2620861815	1.0226310492
3896.1908935545	1.0251189470
3898.1197009276	1.0187679529
3900.0485083006	1.0158267021
3901.9773156737	1.0176908970
3903.9061230467	1.0178245306
3905.8349304198	1.0162856579
3907.7637377928	1.0200911760
3909.6925451659	1.0209922791
3911.6213525389	1.0158498287
3913.5501599119	1.0215278864
3915.4789672850	1.0206464529
3917.4077746580	1.0133961439
3919.3365820311	1.0170609951
3921.2653894041	1.0136481524
3923.1941967772	1.0155112743
3925.1230041502	1.0198293924
3927.0518115233	1.0159375668
3928.9806188963	1.0220776796
3930.9094262694	1.0228434801
3932.8382336424	1.0156313181
3934.7670410155	1.0194689035
3936.6958483885	1.0206111670
3938.6246557616	1.0140322447
3940.5534631346	1.0174506903
3942.4822705076	1.0206059217
3944.4110778807	1.0168626308
3946.3398852537	1.0202240944
3948.2686926268	1.0204538107
3950.1974999998	1.0179674625
3952.1263073729	1.0200097561
3954.0551147459	1.0203180313
3955.9839221190	1.0152418613
3957.9127294920	1.0122869015
3959.8415368651	1.0191063881
3961.7703442381	1.0212352276
3963.6991516112	1.0207567215
3965.6279589842	1.0199221373
3967.5567663573	1.0188912153
3969.4855737303	1.0221954584
3971.4143811034	1.0160447359
3973.3431884764	1.0149894953
3975.2719958494	1.0171388388
3977.2008032225	1.0160610676
3979.1296105955	1.0219731331
3981.0584179686	1.0204180479
3982.9872253416	1.0207504034
3984.9160327147	1.0165120363
3986.8448400877	1.0099104643
3988.7736474608	1.0193954706
3990.7024548338	1.0213104486
3992.6312622069	1.0181236267
3994.5600695799	1.0151149035
3996.4888769530	1.0128358603
3998.4176843260	1.0186407566
4000.3464916991	1.0175513029
4002.2752990721	1.0138942003
4004.2041064451	1.0190216303
4006.1329138182	1.0215737820
4008.0617211912	1.0169698000
4009.9905285643	1.0192556381
4011.9193359373	1.0172882080
4013.8481433104	1.0160275698
4015.7769506834	1.0248981714
4017.7057580565	1.0180797577
4019.6345654295	1.0165948868
4021.5633728026	1.0201678276
4023.4921801756	1.0131393671
4025.4209875487	1.0199688673
4027.3497949217	1.0249541998
4029.2786022948	1.0175679922
4031.2074096678	1.0166857243
4033.1362170408	1.0193898678
4035.0650244139	1.0153151751
4036.9938317869	1.0159926414
4038.9226391600	1.0188231468
4040.8514465330	1.0155494213
4042.7802539061	1.0161777735
4044.7090612791	1.0140032768
4046.6378686522	1.0158015490
4048.5666760252	1.0203846693
4050.4954833983	1.0188008547
4052.4242907713	1.0183612108
4054.3530981444	1.0132567883
4056.2819055174	1.0129622221
4058.2107128905	1.0178651810
4060.1395202635	1.0114033222
4062.0683276365	1.0126978159
4063.9971350096	1.0279748440
4065.9259423826	1.0222507715
4067.8547497557	1.0167210102
4069.7835571287	1.0266618729
4071.7123645018	1.0168638229
4073.6411718748	1.0114809275
4075.5699792479	1.0154511929
4077.4987866209	1.0141489506
4079.4275939940	1.0168275833
4081.3564013670	1.0132181644
4083.2852087401	1.0124785900
4085.2140161131	1.0163801908
4087.1428234862	1.0177888870
4089.0716308592	1.0179913044
4091.0004382323	1.0159628391
4092.9292456053	1.0151668787
4094.8580529783	1.0181070566
4096.7868603514	1.0212893486
4098.7156677244	1.0159766674
4100.6444750975	1.0138357878
4102.5732824705	1.0152453184
4104.5020898436	1.0132777691
4106.4308972166	1.0194407701
4108.3597045897	1.0240796804
4110.2885119627	1.0170304775
4112.2173193358	1.0132398605
4114.1461267088	1.0151246786
4116.0749340819	1.0162004232
4118.0037414549	1.0225468874
4119.9325488280	1.0182402134
4121.8613562010	1.0101852417
4123.7901635740	1.0168929100
4125.7189709471	1.0150042772
4127.6477783201	1.0153698921
4129.5765856932	1.0176905394
4131.5053930662	1.0133118629
4133.4342004393	1.0200095177
4135.3630078123	1.0157227516
4137.2918151854	1.0138705969
4139.2206225584	1.0228914022
4141.1494299315	1.0138086081
4143.0782373045	1.0129621029
4145.0070446776	1.0191814899
4146.9358520506	1.0167474747
4148.8646594237	1.0175483227
4150.7934667967	1.0132060051
4152.7222741697	1.0131856203
4154.6510815428	1.0187145472
4156.5798889158	1.0192914009
4158.5086962889	1.0193552971
4160.4375036619	1.0205347538
4162.3663110350	1.0187506676
4164.2951184080	1.0113288164
4166.2239257811	1.0149915218
4168.1527331541	1.0183478594
4170.0815405272	1.0157246590
4172.0103479002	1.0183722973
4173.9391552733	1.0176070929
4175.8679626463	1.0207567215
4177.7967700194	1.0142616034
4179.7255773924	1.0124089718
4181.6543847654	1.0210517645
4183.5831921385	1.0111576319
4185.5119995115	1.0135520697
4187.4408068846	1.0206505060
4189.3696142576	1.0113296509
4191.2984216307	1.0083577633
4193.2272290037	1.0091156960
4195.1560363768	1.0105926991
4197.0848437498	1.0170205832
4199.0136511229	1.0166994333
4200.9424584959	1.0132701397
4202.8712658690	1.0196802616
4204.8000732420	1.0158450603
4206.7288806151	1.0142933130
4208.6576879881	1.0182180405
4210.5864953611	1.0097653866
4212.5153027342	1.0142676830
4214.4441101072	1.0200084448
4216.3729174803	1.0229455233
4218.3017248533	1.0221512318
4220.2305322264	1.0173612833
4222.1593395994	1.0226976871
4224.0881469725	1.0143235922
4226.0169543455	1.0091850758
4227.9457617186	1.0121179819
4229.8745690916	1.0186231136
4231.8033764647	1.0231276751
4233.7321838377	1.0098197460
4235.6609912108	1.0102989674
4237.5897985838	1.0147724152
4239.5186059569	1.0179964304
4241.4474133299	1.0171105862
4243.3762207029	1.0141962767
4245.3050280760	1.0168038607
4247.2338354490	1.0052729845
4249.1626428221	1.0169422626
4251.0914501951	1.0234208107
4253.0202575682	1.0139800310
4254.9490649412	1.0192937851
4256.8778723143	1.0106077194
4258.8066796873	1.0148446560
4260.7354870604	1.0152332783
4262.6642944334	1.0079158545
4264.5931018065	1.0163445473
4266.5219091795	1.0141373873
4268.4507165526	1.0175997019
4270.3795239256	1.0226026773
4272.3083312986	1.0165389776
4274.2371386717	1.0123240948
4276.1659460447	1.0161497593
4278.0947534178	1.0138874054
4280.0235607908	1.0102787018
4281.9523681639	1.0172606707
4283.8811755369	1.0131162405
4285.8099829100	1.0173772573
4287.7387902830	1.0213999748
4289.6675976561	1.0146089792
4291.5964050291	1.0200971365
4293.5252124022	1.0144172907
4295.4540197752	1.0095313787
4297.3828271483	1.0185098648
4299.3116345213	1.0139756203
4301.2404418943	1.0059807301
4303.1692492674	1.0092817545
4305.0980566404	1.0070725679
4307.0268640135	1.0088099241
4308.9556713865	1.0176029205
4310.8844787596	1.0171083212
4312.8132861326	1.0199106932
4314.7420935057	1.0182869434
4316.6709008787	1.0120817423
4318.5997082518	1.0091919899
4320.5285156248	1.0087630749
4322.4573229979	1.0125365257
4324.3861303709	1.0113443136
4326.3149377440	1.0141998529
4328.2437451170	1.0157979727
4330.1725524900	1.0135118961
4332.1013598631	1.0113263130
4334.0301672361	1.0072090626
4335.9589746092	1.0091615915
4337.8877819822	1.0127835274
4339.8165893553	1.0135630369
4341.7453967283	1.0074503422
4343.6742041014	1.0081112385
4345.6030114744	1.0163059235
4347.5318188475	1.0193270445
4349.4606262205	1.0127862692
4351.3894335936	1.0079391003
4353.3182409666	1.0196124315
4355.2470483397	1.0131981373
4357.1758557127	1.0097697973
4359.1046630858	1.0178453922
4361.0334704588	1.0111088753
4362.9622778318	1.0191603899
4364.8910852049	1.0144491196
4366.8198925779	1.0075410604
4368.7486999510	1.0154601336
4370.6775073240	1.0115528107
4372.6063146971	1.0117393732
4374.5351220701	1.0071076155
4376.4639294432	1.0142852068
4378.3927368162	1.0221154690
4380.3215441893	1.0130237341
4382.2503515623	1.0160971880
4384.1791589354	1.0106686354
4386.1079663084	1.0052944422
4388.0367736815	1.0072754622
4389.9655810545	1.0104811192
4391.8943884275	1.0176703930
4393.8231958006	1.0133347511
4395.7520031736	1.0101532936
4397.6808105467	1.0082536936
4399.6096179197	1.0142456293
4401.5384252928	1.0183413029
4403.4672326658	1.0143373013
4405.3960400389	1.0177440643
4407.3248474119	1.0088982582
4409.2536547850	1.0101606846
4411.1824621580	1.0124088526
4413.1112695311	1.0048035383
4415.0400769041	1.0142838955
4416.9688842772	1.0183206797
4418.8976916502	1.0127843618
4420.8264990232	1.0012173653
4422.7553063963	1.0052654743
4424.6841137693	1.0129767656
4426.6129211424	0.9977040291
4428.5417285154	1.0054342747
4430.4705358885	1.0154753923
4432.3993432615	1.0033264160
4434.3281506346	1.0085958242
4436.2569580076	1.0186365843
4438.1857653807	1.0107822418
4440.1145727537	1.0109419823
4442.0433801268	1.0148731470
4443.9721874998	1.0067205429
4445.9009948729	1.0072505474
4447.8298022459	1.0127890110
4449.7586096189	1.0178337097
4451.6874169920	1.0158984661
4453.6162243650	1.0128246546
4455.5450317381	1.0140427351
4457.4738391111	1.0096278191
4459.4026464842	1.0125741959
4461.3314538572	1.0074839592
4463.2602612303	1.0103745461
4465.1890686033	1.0139642954
4467.1178759764	1.0005741119
4469.0466833494	1.0151984692
4470.9754907225	1.0158898830
4472.9042980955	0.9992209673
4474.8331054686	1.0066205263
4476.7619128416	1.0093367100
4478.6907202147	1.0099164248
4480.6195275877	1.0089712143
4482.5483349607	1.0092046261
4484.4771423338	1.0163578987
4486.4059497068	1.0109908581
4488.3347570799	1.0089863539
4490.2635644529	1.0123314857
4492.1923718260	1.0050544739
4494.1211791990	1.0069301128
4496.0499865721	1.0084912777
4497.9787939451	1.0045535564
4499.9076013182	1.0137215853
4501.8364086912	1.0101482868
4503.7652160643	1.0067669153
4505.6940234373	1.0186357498
4507.6228308104	1.0095604658
4509.5516381834	1.0015511513
4511.4804455564	1.0158151388
4513.4092529295	1.0209845304
4515.3380603025	1.0136470795
4517.2668676756	1.0127667189
4519.1956750486	1.0130009651
4521.1244824217	1.0082130432
4523.0532897947	1.0101830959
4524.9820971678	1.0181832314
4526.9109045408	1.0141614676
4528.8397119139	1.0051116943
4530.7685192869	1.0102456808
4532.6973266600	1.0149796009
4534.6261340330	1.0092834234
4536.5549414061	1.0070726871
4538.4837487791	1.0091105700
4540.4125561521	1.0069965124
4542.3413635252	1.0056881905
4544.2701708982	1.0079003572
4546.1989782713	1.0107897520
4548.1277856443	1.0116411448
4550.0565930174	1.0045093298
4551.9854003904	1.0041348934
4553.9142077635	1.0046067238
4555.8430151365	1.0081781149
4557.7718225096	1.0210665464
4559.7006298826	1.0098983049
4561.6294372557	1.0110139847
4563.5582446287	1.0201753378
4565.4870520018	1.0081487894
4567.4158593748	1.0128777027
4569.3446667478	1.0133502483
4571.2734741209	1.0063023567
4573.2022814939	0.9982823730
4575.1310888670	1.0073220730
4577.0598962400	1.0235420465
4578.9887036131	1.0008465052
4580.9175109861	1.0048956871
4582.8463183592	1.0072441101
4584.7751257322	0.9963836670
4586.7039331053	1.0138869286
4588.6327404783	1.0019601583
4590.5615478514	1.0033730268
4592.4903552244	1.0102692842
4594.4191625975	1.0020060539
4596.3479699705	1.0075694323
4598.2767773435	1.0032863617
4600.2055847166	1.0095336437
4602.1343920896	1.0078158379
4604.0631994627	1.0160638094
4605.9920068357	1.0218666792
4607.9208142088	1.0034847260
4609.8496215818	1.0167340040
4611.7784289549	1.0155962706
4613.7072363279	1.0064070225
4615.6360437010	1.0105878115
4617.5648510740	1.0083681345
4619.4936584471	1.0128923655
4621.4224658201	1.0073777437
4623.3512731932	1.0058472157
4625.2800805662	1.0165441036
4627.2088879393	1.0146137476
4629.1376953123	1.0007470846
4631.0665026853	1.0109394789
4632.9953100584	1.0129616261
4634.9241174314	1.0025696754
4636.8529248045	1.0107398033
4638.7817321775	0.9938263893
4640.7105395506	1.0007569790
4642.6393469236	1.0109062195
4644.5681542967	0.9978602529
4646.4969616697	1.0061658621
4648.4257690428	1.0033690929
4650.3545764158	1.0122319460
4652.2833837889	1.0050575733
4654.2121911619	0.9985554814
4656.1409985350	1.0168054104
4658.0698059080	1.0081380606
4659.9986132810	1.0079898834
4661.9274206541	1.0034476519
4663.8562280271	1.0006610155
4665.7850354002	1.0113064051
4667.7138427732	1.0082710981
4669.6426501463	1.0035218000
4671.5714575193	0.9989113212
4673.5002648924	1.0005095005
4675.4290722654	1.0057672262
4677.3578796385	1.0142809153
4679.2866870115	1.0094374418
4681.2154943846	0.9988844395
4683.1443017576	0.9984397292
4685.0731091307	0.9999812245
4687.0019165037	1.0033814907
4688.9307238767	1.0000447035
4690.8595312498	1.0112289190
4692.7883386228	1.0083105564
4694.7171459959	0.9943397045
4696.6459533689	1.0112414360
4698.5747607420	1.0182276964
4700.5035681150	1.0121669769
4702.4323754881	0.9999744892
4704.3611828611	0.9962916970
4706.2899902342	1.0124598742
4708.2187976072	1.0050381422
4710.1476049803	0.9988182187
4712.0764123533	1.0084826946
4714.0052197264	0.9999219775
4715.9340270994	1.0029597282
4717.8628344724	1.0090584755
4719.7916418455	1.0076617002
4721.7204492185	1.0182247162
4723.6492565916	1.0063929558
4725.5780639646	1.0093631744
4727.5068713377	1.0164128542
4729.4356787107	0.9915288687
4731.3644860838	0.9980893135
4733.2932934568	1.0042753220
4735.2221008299	0.9977576733
4737.1509082029	1.0074057579
4739.0797155760	1.0051766634
4741.0085229490	0.9975702167
4742.9373303221	1.0039048195
4744.8661376951	1.0114787817
4746.7949450682	1.0028190613
4748.7237524412	0.9948401451
4750.6525598142	0.9988119006
4752.5813671873	1.0043975115
4754.5101745603	0.9994024634
4756.4389819334	0.9974697828
4758.3677893064	1.0040855408
4760.2965966795	1.0103837252
4762.2254040525	1.0159819126
4764.1542114256	1.0039978027
4766.0830187986	0.9950301051
4768.0118261717	0.9947839379
4769.9406335447	1.0010242462
4771.8694409178	1.0059742928
4773.7982482908	1.0026742220
4775.7270556639	1.0098646879
4777.6558630369	1.0065957308
4779.5846704099	1.0070047379
4781.5134777830	1.0109690428
4783.4422851560	1.0060148239
4785.3710925291	0.9965248108
4787.2998999021	0.9994872212
4789.2287072752	1.0111197233
4791.1575146482	1.0003007650
4793.0863220213	1.0077360868
4795.0151293943	0.9965607524
4796.9439367674	0.9914428592
4798.8727441404	1.0107599497
4800.8015515135	0.9979388714
4802.7303588865	1.0047091246
4804.6591662596	0.9996784925
4806.5879736326	1.0001672506
4808.5167810056	1.0085945129
4810.4455883787	0.9960315824
4812.3743957517	1.0013198853
4814.3032031248	0.9988915920
4816.2320104978	1.0064615011
4818.1608178709	1.0066770315
4820.0896252439	0.9997975826
4822.0184326170	1.0000182390
4823.9472399900	1.0007249117
4825.8760473631	1.0136371851
4827.8048547361	1.0100964308
4829.7336621092	1.0107935667
4831.6624694822	1.0093753338
4833.5912768553	1.0052849054
4835.5200842283	1.0122836828
4837.4488916013	1.0114067793
4839.3776989744	1.0028847456
4841.3065063474	0.9990038872
4843.2353137205	0.9962152839
4845.1641210935	0.9876598716
4847.0929284666	1.0035669804
4849.0217358396	1.0067317486
4850.9505432127	0.9992134571
4852.8793505857	1.0017055273
4854.8081579588	0.9959146380
4856.7369653318	1.0056601763
4858.6657727049	1.0148932934
4860.5945800779	1.0167615414
4862.5233874510	1.0142427683
4864.4521948240	1.0185376406
4866.3810021971	1.0035417080
4868.3098095701	0.9941079021
4870.2386169431	1.0138560534
4872.1674243162	0.9959515929
4874.0962316892	1.0008192062
4876.0250390623	1.0172448158
4877.9538464353	1.0040562153
4879.8826538084	0.9991222024
4881.8114611814	0.9977208376
4883.7402685545	0.9937739968
4885.6690759275	0.9860894084
4887.5978833006	0.9990913868
4889.5266906736	0.9984189272
4891.4554980467	0.9913108349
4893.3843054197	1.0063340664
4895.3131127928	1.0010067225
4897.2419201658	0.9892772436
4899.1707275388	1.0036796331
4901.0995349119	1.0035122633
4903.0283422849	0.9808149338
4904.9571496580	0.9981315136
4906.8859570310	0.9951832294
4908.8147644041	0.9798508286
4910.7435717771	0.9950318933
4912.6723791502	0.9935640097
4914.6011865232	0.9960291386
4916.5299938963	0.9985230565
4918.4588012693	1.0080077648
4920.3876086424	0.9969737530
4922.3164160154	0.9880258441
4924.2452233885	1.0077214241
4926.1740307615	1.0068157911
4928.1028381345	1.0047616959
4930.0316455076	0.9918956757
4931.9604528806	0.9985129237
4933.8892602537	1.0026407242
4935.8180676267	0.9937664866
4937.7468749998	1.0037660599
4939.6756823728	0.9935567975
4941.6044897459	0.9951615930
4943.5332971189	1.0013281107
4945.4621044920	1.0134336948
4947.3909118650	1.0172107220
4949.3197192381	1.0011675358
4951.2485266111	1.0059745312
4953.1773339842	1.0054531097
4955.1061413572	0.9961481690
4957.0349487302	0.9948914051
4958.9637561033	1.0133616924
4960.8925634763	1.0067293644
4962.8213708494	0.9911859035
4964.7501782224	0.9967797399
4966.6789855955	0.9902789593
4968.6077929685	1.0010824203
4970.5366003416	1.0038614273
4972.4654077146	1.0011239052
4974.3942150877	0.9961321354
4976.3230224607	0.9893616438
4978.2518298338	1.0029432774
4980.1806372068	0.9887738824
4982.1094445799	0.9884380102
4984.0382519529	1.0120209455
4985.9670593259	1.0043231249
4987.8958666990	0.9850761294
4989.8246740720	0.9923099279
4991.7534814451	1.0094612837
4993.6822888181	0.9998614192
4995.6110961912	0.9990572929
4997.5399035642	1.0002052784
4999.4687109373	0.9906535149
5001.3975183103	0.9898509979
5003.3263256834	0.9914470911
5005.2551330564	1.0075179338
5007.1839404295	1.0068079233
5009.1127478025	0.9898743629
5011.0415551756	0.9903995991
5012.9703625486	0.9985277653
5014.8991699217	1.0056567192
5016.8279772947	0.9896968603
5018.7567846677	0.9884017110
5020.6855920408	1.0078240633
5022.6143994138	1.0013213158
5024.5432067869	1.0032634735
5026.4720141599	0.9953514934
5028.4008215330	0.9828349948
5030.3296289060	0.9996670485
5032.2584362791	1.0005873442
5034.1872436521	0.9961122870
5036.1160510252	0.9916860461
5038.0448583982	0.9889344573
5039.9736657713	1.0007688999
5041.9024731443	1.0037301779
5043.8312805174	0.9968733788
5045.7600878904	0.9877592921
5047.6888952634	0.9988842607
5049.6177026365	0.9961655140
5051.5465100095	0.9828054905
5053.4753173826	1.0029563904
5055.4041247556	0.9937202334
5057.3329321287	0.9681819081
5059.2617395017	0.9745391011
5061.1905468748	0.9919047356
5063.1193542478	0.9850672483
5065.0481616209	0.9819619656
5066.9769689939	1.0058966875
5068.9057763670	0.9862065911
5070.8345837400	0.9940507412
5072.7633911131	1.0090074539
5074.6921984861	0.9707025886
5076.6210058591	0.9842432141
5078.5498132322	0.9919930100
5080.4786206052	0.9933943152
5082.4074279783	0.9950522184
5084.3362353513	0.9704835415
5086.2650427244	0.9854916334
5088.1938500974	0.9980897307
5090.1226574705	1.0040173531
5092.0514648435	1.0051929951
5093.9802722166	1.0017569065
5095.9090795896	0.9931375980
5097.8378869627	0.9899659753
5099.7666943357	0.9921180606
5101.6955017088	0.9766560793
5103.6243090818	0.9927939773
5105.5531164548	0.9875873923
5107.4819238279	1.0092664957
5109.4107312009	1.0254176855
5111.3395385740	0.9773667455
5113.2683459470	0.9903923869
5115.1971533201	0.9977775812
5117.1259606931	0.9999887943
5119.0547680662	1.0073190928
5120.9835754392	1.0035021305
5122.9123828123	0.9946182966
5124.8411901853	0.9852124453
5126.7699975584	1.0089097023
5128.6988049314	0.9853773117
5130.6276123045	0.9897310138
5132.5564196775	1.0026507378
5134.4852270506	1.0017926693
5136.4140344236	1.0133104324
5138.3428417966	0.9778722525
5140.2716491697	0.9853963852
5142.2004565427	0.9883734584
5144.1292639158	0.9889400005
5146.0580712888	0.9924577475
5147.9868786619	0.9919947386
5149.9156860349	1.0074090958
5151.8444934080	0.9743027687
5153.7733007810	0.9881299138
5155.7021081541	1.0015920401
5157.6309155271	0.9910165668
5159.5597229002	1.0012845993
5161.4885302732	0.9934690595
5163.4173376463	1.0002632141
5165.3461450193	0.9914003611
5167.2749523923	0.9885846376
5169.2037597654	0.9975721240
5171.1325671384	0.9845733643
5173.0613745115	0.9736889601
5174.9901818845	0.9883775711
5176.9189892576	1.0065208673
5178.8477966306	0.9932378531
5180.7766040037	0.9877724648
5182.7054113767	0.9926843643
5184.6342187498	0.9712206721
5186.5630261228	0.9645121694
5188.4918334959	0.9850078225
5190.4206408689	0.9715567231
5192.3494482420	0.9809672832
5194.2782556150	0.9819952846
5196.2070629880	0.9558344483
5198.1358703611	0.9897720218
5200.0646777341	1.0004802942
5201.9934851072	0.9850328565
5203.9222924802	0.9727428555
5205.8510998533	0.9914054871
5207.7799072263	0.9974552989
5209.7087145994	0.9657495618
5211.6375219724	0.9916409254
5213.5663293455	0.9821479917
5215.4951367185	0.9812026024
5217.4239440916	0.9999644756
5219.3527514646	0.9872437716
5221.2815588377	0.9883478284
5223.2103662107	0.9702736139
5225.1391735837	0.9800647497
5227.0679809568	0.9852708578
5228.9967883298	0.9857850671
5230.9255957029	0.9888442159
5232.8544030759	0.9858233333
5234.7832104490	1.0137952566
5236.7120178220	0.9981148839
5238.6408251951	0.9744982719
5240.5696325681	0.9913598895
5242.4984399412	1.0017031431
5244.4272473142	0.9792059064
5246.3560546873	0.9784430861
5248.2848620603	0.9970657229
5250.2136694334	0.9903592467
5252.1424768064	0.9923474193
5254.0712841795	0.9799265862
5256.0000915525	0.9764486551
5257.9288989255	0.9906518459
5259.8577062986	0.9807173014
5261.7865136716	0.9761114120
5263.7153210447	0.9975600243
5265.6441284177	0.9988175631
5267.5729357908	0.9746562839
5269.5017431638	0.9838178754
5271.4305505369	1.0026489496
5273.3593579099	0.9969032407
5275.2881652830	0.9691870809
5277.2169726560	0.9651269317
5279.1457800291	0.9849581122
5281.0745874021	0.9949799180
5283.0033947752	0.9977194667
5284.9322021482	0.9862903357
5286.8610095212	0.9986522794
5288.7898168943	0.9966854453
5290.7186242673	0.9928244948
5292.6474316404	0.9904130697
5294.5762390134	0.9716585875
5296.5050463865	0.9865931869
5298.4338537595	0.9691841006
5300.3626611326	0.9827268720
5302.2914685056	1.0065618753
5304.2202758787	0.9745497704
5306.1490832517	0.9868895411
5308.0778906248	0.9869022369
5310.0066979978	0.9777321219
5311.9355053709	0.9818339348
5313.8643127439	0.9822512269
5315.7931201169	0.9815338850
5317.7219274900	0.9677696824
5319.6507348630	0.9840240479
5321.5795422361	0.9810559154
5323.5083496091	0.9852919579
5325.4371569822	1.0055726767
5327.3659643552	0.9843158126
5329.2947717283	0.9802920222
5331.2235791013	0.9757553339
5333.1523864744	0.9704234600
5335.0811938474	0.9731071591
5337.0100012205	0.9827223420
5338.9388085935	0.9862678647
5340.8676159666	0.9718108177
5342.7964233396	0.9938148856
5344.7252307126	0.9944064021
5346.6540380857	0.9988771677
5348.5828454587	0.9977672100
5350.5116528318	0.9684578776
5352.4404602048	0.9853558540
5354.3692675779	0.9830646515
5356.2980749509	0.9964978099
5358.2268823240	1.0016933680
5360.1556896970	0.9982579350
5362.0844970701	1.0077480078
5364.0133044431	0.9780840278
5365.9421118162	0.9789717197
5367.8709191892	0.9799833298
5369.7997265623	0.9967067242
5371.7285339353	0.9714178443
5373.6573413083	0.9476323128
5375.5861486814	0.9997625351
5377.5149560544	1.0080466270
5379.4437634275	0.9984312057
5381.3725708005	0.9673035741
5383.3013781736	0.9814550877
5385.2301855466	0.9837153554
5387.1589929197	0.9607384801
5389.0878002927	1.0099219084
5391.0166076658	1.0049062967
5392.9454150388	0.9989030361
5394.8742224119	0.9879261851
5396.8030297849	0.9766977429
5398.7318371580	0.9829913974
5400.6606445310	0.9819298983
5402.5894519041	0.9733230472
5404.5182592771	0.9608464241
5406.4470666501	1.0048470497
5408.3758740232	0.9795780182
5410.3046813962	0.9857798815
5412.2334887693	1.0083602667
5414.1622961423	0.9788296223
5416.0911035154	1.0033986568
5418.0199108884	0.9814094305
5419.9487182615	0.9873683453
5421.8775256345	0.9726046324
5423.8063330076	0.9642383456
5425.7351403806	1.0006626844
5427.6639477537	0.9892508984
5429.5927551267	0.9960035682
5431.5215624998	0.9835059643
5433.4503698728	0.9907268286
5435.3791772458	0.9998196363
5437.3079846189	1.0126795769
5439.2367919919	1.0110716820
5441.1655993650	0.9967213273
5443.0944067380	1.0091062784
5445.0232141111	0.9851424098
5446.9520214841	1.0112246275
5448.8808288572	0.9797396660
5450.8096362302	0.9695664644
5452.7384436033	1.0101294518
5454.6672509763	0.9503498077
5456.5960583494	0.9627100229
5458.5248657224	0.9912623167
5460.4536730955	0.9691683650
5462.3824804685	0.9481444955
5464.3112878415	0.9601709247
5466.2400952146	0.9948313832
5468.1689025876	0.9901078343
5470.0977099607	1.0044537783
5472.0265173337	0.9798974395
5473.9553247068	0.9826391339
5475.8841320798	1.0144957304
5477.8129394529	0.9736876488
5479.7417468259	0.9822061658
5481.6705541990	0.9958605170
5483.5993615720	0.9707624316
5485.5281689451	0.9811639786
5487.4569763181	0.9928280711
5489.3857836912	0.9875665307
5491.3145910642	0.9953783751
5493.2433984372	1.0098198652
5495.1722058103	0.9835537076
5497.1010131833	0.9594060779
5499.0298205564	0.9877657890
5500.9586279294	0.9860148430
5502.8874353025	0.9666394591
5504.8162426755	0.9881454110
5506.7450500486	0.9927293658
5508.6738574216	0.9795761108
5510.6026647947	0.9837056398
5512.5314721677	0.9980497360
5514.4602795408	1.0074805021
5516.3890869138	0.9926487207
5518.3178942869	0.9661900997
5520.2467016599	0.9622316360
5522.1755090330	0.9739652276
5524.1043164060	0.9828758240
5526.0331237790	0.9886869788
5527.9619311521	0.9805989265
5529.8907385251	0.9709790945
5531.8195458982	0.9694592953
5533.7483532712	0.9661454558
5535.6771606443	0.9597922564
5537.6059680173	0.9729864001
5539.5347753904	0.9765821099
5541.4635827634	0.9729670882
5543.3923901365	1.0080909729
5545.3211975095	0.9778171182
5547.2500048826	0.9504833817
5549.1788122556	1.0051623583
5551.1076196287	0.9938002825
5553.0364270017	0.9652791023
5554.9652343747	0.9808729291
5556.8940417478	0.9583207369
5558.8228491208	0.9554758072
5560.7516564939	0.9892643094
5562.6804638669	0.9733104110
5564.6092712400	0.9742447734
5566.5380786130	0.9793419838
5568.4668859861	0.9700552821
5570.3956933591	0.9920285940
5572.3245007322	0.9602279067
5574.2533081052	0.9674429297
5576.1821154783	0.9969193339
5578.1109228513	0.9632285833
5580.0397302244	0.9840915799
5581.9685375974	1.0016160011
5583.8973449704	0.9643239975
5585.8261523435	0.9593260884
5587.7549597165	0.9747573733
5589.6837670896	0.9753273726
5591.6125744626	0.9900124669
5593.5413818357	0.9975934029
5595.4701892087	1.0049660206
5597.3989965818	1.0019778013
5599.3278039548	0.9832980037
5601.2566113279	0.9853444099
5603.1854187009	0.9514375329
5605.1142260740	0.9686155319
5607.0430334470	0.9758161902
5608.9718408201	0.9532097578
5610.9006481931	1.0090200901
5612.8294555661	0.9815803170
5614.7582629392	0.9738782644
5616.6870703122	1.0076886415
5618.6158776853	0.9853305817
5620.5446850583	0.9821653366
5622.4734924314	0.9649370909
5624.4022998044	0.9605515599
5626.3311071775	0.9553629160
5628.2599145505	0.9765747190
5630.1887219236	0.9968751669
5632.1175292966	0.9665212035
5634.0463366697	0.9624100924
5635.9751440427	0.9363737106
5637.9039514158	0.9749482274
5639.8327587888	1.0213360786
5641.7615661619	0.9481689334
5643.6903735349	0.9612795711
5645.6191809079	0.9841136336
5647.5479882810	0.9639764428
5649.4767956540	1.0059547424
5651.4056030271	0.9908853173
5653.3344104001	0.9734439254
5655.2632177732	0.9481032491
5657.1920251462	0.9642096758
5659.1208325193	1.0071606636
5661.0496398923	0.9496862888
5662.9784472654	0.9902301431
5664.9072546384	0.9863262773
5666.8360620115	0.9341547489
5668.7648693845	0.9908158779
5670.6936767576	0.9894033074
5672.6224841306	0.9813116789
5674.5512915036	0.9756725430
5676.4800988767	0.9845698476
5678.4089062497	1.0075161457
5680.3377136228	0.9970054626
5682.2665209958	0.9825959802
5684.1953283689	0.9693120718
5686.1241357419	0.9868491888
5688.0529431150	0.9441602230
5689.9817504880	0.9434525967
5691.9105578611	1.0160703659
5693.8393652341	0.9751375914
5695.7681726072	0.9490958452
5697.6969799802	1.0069490671
5699.6257873533	1.0138983727
5701.5545947263	0.9935774207
5703.4834020993	0.9754385352
5705.4122094724	0.9750584364
5707.3410168454	0.9966918230
5709.2698242185	0.9389353991
5711.1986315915	0.9600973725
5713.1274389646	1.0144621134
5715.0562463376	0.9695684910
5716.9850537107	0.9658982158
5718.9138610837	0.9441979527
5720.8426684568	0.9539994597
5722.7714758298	0.9547287822
5724.7002832029	0.9398546815
5726.6290905759	0.9557804465
5728.5578979490	0.9616833925
5730.4867053220	1.0175533295
5732.4155126950	1.0044101477
5734.3443200681	1.0044687986
5736.2731274411	1.0017938614
5738.2019348142	0.9730071425
5740.1307421872	0.9821851850
5742.0595495603	0.9557693005
5743.9883569333	0.9926628470
5745.9171643064	0.9984029531
5747.8459716794	0.9776540399
5749.7747790525	0.9830815196
5751.7035864255	0.9789866209
5753.6323937986	1.0076637268
5755.5612011716	0.9738678932
5757.4900085447	0.9613575935
5759.4188159177	1.0033854246
5761.3476232907	0.9839929938
5763.2764306638	0.9604613185
5765.2052380368	0.9744331241
5767.1340454099	0.9713715911
5769.0628527829	0.9774188399
5770.9916601560	0.9817472100
5772.9204675290	0.9945594072
5774.8492749021	0.9749786258
5776.7780822751	0.9046931863
5778.7068896482	0.9797853231
5780.6356970212	1.0293188095
5782.5645043943	0.9850053191
5784.4933117673	1.0092179775
5786.4221191404	0.9692640901
5788.3509265134	0.9536235929
5790.2797338865	0.9703257084
5792.2085412595	0.9854126573
5794.1373486325	0.9846023917
5796.0661560056	0.9634811282
5797.9949633786	0.9913208485
5799.9237707517	0.9812741280
5801.8525781247	0.9502655268
5803.7813854978	0.9765551090
5805.7101928708	0.9891571999
5807.6390002439	0.9620007873
5809.5678076169	0.9961135387
5811.4966149900	0.9814604521
5813.4254223630	0.9450921416
5815.3542297361	0.9875935316
5817.2830371091	0.9863894582
5819.2118444822	0.9963735938
5821.1406518552	0.9717440009
5823.0694592282	0.9588277936
5824.9982666013	0.9973909855
5826.9270739743	0.9576896429
5828.8558813474	0.9627711177
5830.7846887204	1.0198342800
5832.7134960935	0.9873034358
5834.6423034665	0.9397491217
5836.5711108396	0.9636591673
5838.4999182126	0.9852793813
5840.4287255857	1.0154966116
5842.3575329587	0.9961391687
5844.2863403318	0.9405466318
5846.2151477048	0.9611298442
5848.1439550779	0.9543890953
5850.0727624509	0.9392428398
5852.0015698239	0.9369172454
5853.9303771970	0.9651519656
5855.8591845700	0.9499786496
5857.7879919431	0.9200029373
5859.7167993161	0.9908198118
5861.6456066892	0.9774989486
5863.5744140622	0.9881285429
5865.5032214353	1.0004581213
5867.4320288083	0.9392750263
5869.3608361814	0.9787768722
5871.2896435544	1.0364922285
5873.2184509275	0.9921570420
5875.1472583005	0.9515894651
5877.0760656736	0.9800477028
5879.0048730466	0.9579250216
5880.9336804196	0.9546307921
5882.8624877927	0.9626210928
5884.7912951657	0.9598713517
5886.7201025388	0.9890816808
5888.6489099118	0.9517342448
5890.5777172849	0.9719355702
5892.5065246579	1.0218836069
5894.4353320310	1.0165733099
5896.3641394040	0.9663185477
5898.2929467771	0.9686014056
5900.2217541501	1.0190601349
5902.1505615232	0.9653744698
5904.0793688962	0.9346259832
5906.0081762693	0.9366306067
5907.9369836423	0.9660423398
5909.8657910154	0.9364676476
5911.7945983884	0.8945976496
5913.7234057614	0.9814943671
5915.6522131345	0.9639069438
5917.5810205075	0.9443472028
5919.5098278806	0.9925609231
5921.4386352536	0.9729341269
5923.3674426267	0.9765737057
5925.2962499997	0.9651235342
5927.2250573728	0.9448580742
5929.1538647458	0.9783090949
5931.0826721189	0.9941743612
5933.0114794919	0.9800589085
5934.9402868650	0.9975657463
5936.8690942380	0.9819230437
5938.7979016111	0.9574865103
5940.7267089841	0.9803854227
5942.6555163571	0.9393501878
5944.5843237302	0.9223990440
5946.5131311032	0.9890428185
5948.4419384763	0.9773270488
5950.3707458493	1.0100221634
5952.2995532224	1.0392311811
5954.2283605954	0.9359802008
5956.1571679685	0.9548460245
5958.0859753415	0.9249262810
5960.0147827146	0.8770431280
5961.9435900876	0.9652516246
5963.8723974607	0.9694448113
5965.8012048337	0.9797949791
5967.7300122068	0.9527379870
5969.6588195798	0.9187405705
5971.5876269528	0.9663960338
5973.5164343259	0.9658117294
5975.4452416989	0.9679879546
5977.3740490720	0.9992083311
5979.3028564450	1.0070574284
5981.2316638181	0.9486720562
5983.1604711911	0.9400212765
5985.0892785642	0.9722915888
5987.0180859372	0.9869369268
5988.9468933103	0.9779807329
5990.8757006833	0.9494846463
5992.8045080564	0.9851399064
5994.7333154294	0.9305663109
5996.6621228025	0.9319024682
5998.5909301755	0.9708831906
6000.5197375485	0.9449636936
