399.2631262207	0.0003728297
401.1919335938	0.0012857013
403.1207409668	0.0011814403
405.0495483398	0.0008798339
406.9783557129	0.0012245975
408.9071630859	0.0008811908
410.8359704590	0.0012332796
412.7647778320	0.0013847562
414.6935852051	0.0011989666
416.6223925781	0.0015227152
418.5511999512	0.0010639399
420.4800073242	0.0011476536
422.4088146973	0.0014562700
424.3376220703	0.0011638420
426.2664294434	0.0012690465
428.1952368164	0.0014348949
430.1240441895	0.0013218975
432.0528515625	0.0007919553
433.9816589355	0.0013847608
435.9104663086	0.0019848589
437.8392736816	0.0011949099
439.7680810547	0.0011555983
441.6968884277	0.0010568341
443.6256958008	0.0009495294
445.5545031738	0.0013197784
447.4833105469	0.0013109745
449.4121179199	0.0013952379
451.3409252930	0.0009807760
453.2697326660	0.0007820211
455.1985400391	0.0012968008
457.1273474121	0.0010656297
459.0561547852	0.0003336217
460.9849621582	0.0005780457
462.9137695313	0.0010231391
464.8425769043	0.0005208349
466.7713842773	0.0004932098
468.7001916504	0.0006832904
470.6289990234	0.0003643650
472.5578063965	0.0005224473
474.4866137695	0.0006472097
476.4154211426	0.0003922262
478.3442285156	0.0004016505
480.2730358887	0.0003686409
482.2018432617	0.0004293001
484.1306506348	0.0007164454
486.0594580078	0.0002870917
487.9882653809	0.0001022183
489.9170727539	0.0005469662
491.8458801270	0.0005561012
493.7746875000	0.0002916422
495.7034948730	0.0001569067
497.6323022461	0.0005157720
499.5611096191	0.0003154046
501.4899169922	0.0001438990
503.4187243652	0.0003316978
505.3475317383	0.0000220842
507.2763391113	0.0001009060
509.2051464844	0.0001639300
511.1339538574	0.0005329213
513.0627612305	0.0002132216
514.9915686035	-0.0003004934
516.9203759766	0.0004522135
518.8491833496	0.0003040968
520.7779907227	0.0000788332
522.7067980957	0.0001315919
524.6356054688	0.0000465317
526.5644128418	0.0002608460
528.4932202148	0.0003733031
530.4220275879	0.0003647899
532.3508349609	0.0001978573
534.2796423340	-0.0000054910
536.2084497070	-0.0004939120
538.1372570801	-0.0001476095
540.0660644531	0.0001428994
541.9948718262	-0.0001441572
543.9236791992	0.0003570782
545.8524865723	0.0001975022
547.7812939453	-0.0001047441
549.7101013184	0.0001649327
551.6389086914	0.0003998039
553.5677160645	0.0002410408
555.4965234375	-0.0000054868
557.4253308105	0.0000675620
559.3541381836	0.0001119819
561.2829455566	0.0004606165
563.2117529297	0.0002391319
565.1405603027	0.0003912670
567.0693676758	0.0004635251
568.9981750488	-0.0000739588
570.9269824219	0.0005393626
572.8557897949	0.0003634858
574.7845971680	0.0000157875
576.7134045410	0.0001705383
578.6422119141	0.0001093640
580.5710192871	0.0006061388
582.4998266602	0.0003719956
584.4286340332	0.0000916678
586.3574414063	0.0003888250
588.2862487793	0.0002094110
590.2150561523	0.0001442092
592.1438635254	0.0002501697
594.0726708984	0.0001613771
596.0014782715	0.0001937662
597.9302856445	0.0001736952
599.8590930176	0.0000535461
601.7879003906	-0.0000813918
603.7167077637	-0.0001571055
605.6455151367	0.0001022757
607.5743225098	0.0004048116
609.5031298828	0.0002600128
611.4319372559	-0.0000025591
613.3607446289	-0.0001908668
615.2895520020	0.0000793254
617.2183593750	0.0001225075
619.1471667480	-0.0002048089
621.0759741211	-0.0002011343
623.0047814941	-0.0002383702
624.9335888672	-0.0001291246
626.8623962402	-0.0002795421
628.7912036133	-0.0000949668
630.7200109863	0.0003051824
632.6488183594	0.0006072525
634.5776257324	0.0007822019
636.5064331055	0.0008043435
638.4352404785	0.0011012838
640.3640478516	0.0013010745
642.2928552246	0.0015109143
644.2216625977	0.0017132612
646.1504699707	0.0014316952
648.0792773438	0.0013907969
650.0080847168	0.0019201213
651.9368920898	0.0019517690
653.8656994629	0.0019890806
655.7945068359	0.0021183114
657.7233142090	0.0018591054
659.6521215820	0.0021668929
661.5809289551	0.0022132364
663.5097363281	0.0023312951
665.4385437012	0.0026106793
667.3673510742	0.0021311687
669.2961584473	0.0023183103
671.2249658203	0.0029108562
673.1537731934	0.0031611156
675.0825805664	0.0030900142
677.0113879395	0.0030445913
678.9401953125	0.0032402393
680.8690026855	0.0030584142
682.7978100586	0.0029954533
684.7266174316	0.0031153581
686.6554248047	0.0031529199
688.5842321777	0.0032275203
690.5130395508	0.0034343875
692.4418469238	0.0036449931
694.3706542969	0.0038677861
696.2994616699	0.0044601625
698.2282690430	0.0049533406
700.1570764160	0.0051490068
702.0858837891	0.0050284686
704.0146911621	0.0046812450
705.9434985352	0.0042160950
707.8723059082	0.0035325382
709.8011132813	0.0027798726
711.7299206543	0.0020724339
713.6587280273	0.0014188003
715.5875354004	0.0007821997
717.5163427734	0.0006678430
719.4451501465	0.0003005334
721.3739575195	-0.0000598938
723.3027648926	0.0003281531
725.2315722656	0.0001440384
727.1603796387	0.0000988921
729.0891870117	0.0001584982
731.0179943848	0.0000173376
732.9468017578	0.0000416434
734.8756091309	-0.0001503455
736.8044165039	-0.0000068539
738.7332238770	-0.0000193542
740.6620312500	-0.0000176854
742.5908386230	0.0001048565
744.5196459961	0.0003553870
746.4484533691	0.0002798664
748.3772607422	-0.0001433017
750.3060681152	0.0002022501
752.2348754883	-0.0001513824
754.1636828613	-0.0000090348
756.0924902344	0.0001201534
758.0212976074	0.0000891683
759.9501049805	0.0004727491
761.8789123535	0.0000255277
763.8077197266	0.0002119049
765.7365270996	0.0001610677
767.6653344727	0.0002767436
769.5941418457	0.0002659070
771.5229492188	-0.0000034647
773.4517565918	0.0002318939
775.3805639648	0.0002724367
777.3093713379	0.0001898316
779.2381787109	0.0002784856
781.1669860840	0.0004503404
783.0957934570	0.0002393405
785.0246008301	0.0000719755
786.9534082031	0.0003445243
788.8822155762	0.0003859895
790.8110229492	0.0002795317
792.7398303223	0.0003252012
794.6686376953	0.0003522478
796.5974450684	0.0003940760
798.5262524414	0.0009445316
800.4550598145	0.0009988459
802.3838671875	0.0004781578
804.3126745605	0.0005045191
806.2414819336	0.0003939812
808.1702893066	0.0003535743
810.0990966797	0.0005746799
812.0279040527	0.0005409387
813.9567114258	0.0004726574
815.8855187988	0.0003636667
817.8143261719	0.0001558038
819.7431335449	0.0001737482
821.6719409180	0.0002454759
823.6007482910	0.0002502997
825.5295556641	0.0003274185
827.4583630371	0.0004525009
829.3871704102	0.0008984813
831.3159777832	0.0010155418
833.2447851563	0.0011051574
835.1735925293	0.0011575907
837.1023999023	0.0010157926
839.0312072754	0.0013711113
840.9600146484	0.0011955765
842.8888220215	0.0012037016
844.8176293945	0.0012640134
846.7464367676	0.0010190451
848.6752441406	0.0011365871
850.6040515137	0.0009665036
852.5328588867	0.0009277696
854.4616662598	0.0006797559
856.3904736328	0.0005912565
858.3192810059	0.0006254413
860.2480883789	0.0005254116
862.1768957520	0.0003633546
864.1057031250	0.0001086461
866.0345104980	0.0005562615
867.9633178711	0.0005262714
869.8921252441	0.0005612759
871.8209326172	0.0004619156
873.7497399902	0.0002093834
875.6785473633	0.0005933500
877.6073547363	0.0002703504
879.5361621094	0.0002604530
881.4649694824	0.0003409280
883.3937768555	0.0002617048
885.3225842285	0.0002645460
887.2513916016	0.0001197519
889.1801989746	0.0002690059
891.1090063477	0.0002195732
893.0378137207	0.0004994681
894.9666210938	0.0004890520
896.8954284668	0.0003719250
898.8242358398	0.0003740882
900.7530432129	0.0003115410
902.6818505859	0.0006912189
904.6106579590	0.0004888992
906.5394653320	0.0004427713
908.4682727051	0.0005339754
910.3970800781	0.0005164233
912.3258874512	0.0006928167
914.2546948242	0.0006975760
916.1835021973	0.0006942012
918.1123095703	0.0007053714
920.0411169434	0.0009398448
921.9699243164	0.0009653959
923.8987316895	0.0012217178
925.8275390625	0.0016616436
927.7563464355	0.0017382408
929.6851538086	0.0015888812
931.6139611816	0.0016355678
933.5427685547	0.0017752815
935.4715759277	0.0016743669
937.4003833008	0.0019056285
939.3291906738	0.0019477466
941.2579980469	0.0023940597
943.1868054199	0.0023604978
945.1156127930	0.0019479368
947.0444201660	0.0024802466
948.9732275391	0.0022304840
950.9020349121	0.0021235950
952.8308422852	0.0020681485
954.7596496582	0.0018532708
956.6884570313	0.0020061031
958.6172644043	0.0018234531
960.5460717773	0.0018676298
962.4748791504	0.0018391726
964.4036865234	0.0020526988
966.3324938965	0.0020888192
968.2613012695	0.0021674600
970.1901086426	0.0025973297
972.1189160156	0.0024443683
974.0477233887	0.0025434489
975.9765307617	0.0028616807
977.9053381348	0.0031781243
979.8341455078	0.0034883441
981.7629528809	0.0037595227
983.6917602539	0.0042936252
985.6205676270	0.0048465254
987.5493750000	0.0052150497
989.4781823730	0.0057575749
991.4069897461	0.0064903228
993.3357971191	0.0070832223
995.2646044922	0.0078693377
997.1934118652	0.0083247721
999.1222192383	0.0088503249
1001.0510266113	0.0097013712
1002.9798339844	0.0102820676
1004.9086413574	0.0109847831
1006.8374487305	0.0117220841
1008.7662561035	0.0125750704
1010.6950634766	0.0131116156
1012.6238708496	0.0137982089
1014.5526782227	0.0147532970
1016.4814855957	0.0152110150
1018.4102929688	0.0158072710
1020.3391003418	0.0167054795
1022.2679077148	0.0177511238
1024.1967150879	0.0182703957
1026.1255224609	0.0188684203
1028.0543298340	0.0196620040
1029.9831372070	0.0200580452
1031.9119445801	0.0207741261
1033.8407519531	0.0211537089
1035.7695593262	0.0215450302
1037.6983666992	0.0219470561
1039.6271740723	0.0220090747
1041.5559814453	0.0219766032
1043.4847888184	0.0215327367
1045.4135961914	0.0214028973
1047.3424035645	0.0211684816
1049.2712109375	0.0207558833
1051.2000183105	0.0204174034
1053.1288256836	0.0200469177
1055.0576330566	0.0197761618
1056.9864404297	0.0192291252
1058.9152478027	0.0188348182
1060.8440551758	0.0183795467
1062.7728625488	0.0179352239
1064.7016699219	0.0171927195
1066.6304772949	0.0161350090
1068.5592846680	0.0157894492
1070.4880920410	0.0153094539
1072.4168994141	0.0145876184
1074.3457067871	0.0138956290
1076.2745141602	0.0131955771
1078.2033215332	0.0125512648
1080.1321289062	0.0119514400
1082.0609362793	0.0113716982
1083.9897436523	0.0105863651
1085.9185510254	0.0102120219
1087.8473583984	0.0097096544
1089.7761657715	0.0093591008
1091.7049731445	0.0092794020
1093.6337805176	0.0085659977
1095.5625878906	0.0080949944
1097.4913952637	0.0080147572
1099.4202026367	0.0080338269
1101.3490100098	0.0077891578
1103.2778173828	0.0075294822
1105.2066247559	0.0072191576
1107.1354321289	0.0070149652
1109.0642395019	0.0073011764
1110.9930468750	0.0068827886
1112.9218542480	0.0067588184
1114.8506616211	0.0068712067
1116.7794689941	0.0067438632
1118.7082763672	0.0069669532
1120.6370837402	0.0067274682
1122.5658911133	0.0066979844
1124.4946984863	0.0068817297
1126.4235058594	0.0070518088
1128.3523132324	0.0072624269
1130.2811206055	0.0073399572
1132.2099279785	0.0076544126
1134.1387353516	0.0079135392
1136.0675427246	0.0082149887
1137.9963500977	0.0084622018
1139.9251574707	0.0088854460
1141.8539648437	0.0096819187
1143.7827722168	0.0102899438
1145.7115795898	0.0109639503
1147.6403869629	0.0117403697
1149.5691943359	0.0121488692
1151.4980017090	0.0128327776
1153.4268090820	0.0136528704
1155.3556164551	0.0140349558
1157.2844238281	0.0146679757
1159.2132312012	0.0151263736
1161.1420385742	0.0157553665
1163.0708459473	0.0165293217
1164.9996533203	0.0168804303
1166.9284606934	0.0176096410
1168.8572680664	0.0183644146
1170.7860754394	0.0190634821
1172.7148828125	0.0196930468
1174.6436901855	0.0205300190
1176.5724975586	0.0213064328
1178.5013049316	0.0218523853
1180.4301123047	0.0228744764
1182.3589196777	0.0238192342
1184.2877270508	0.0249843076
1186.2165344238	0.0260439366
1188.1453417969	0.0271403752
1190.0741491699	0.0285364725
1192.0029565430	0.0297156833
1193.9317639160	0.0311291367
1195.8605712891	0.0323895141
1197.7893786621	0.0340054557
1199.7181860351	0.0357582793
1201.6469934082	0.0369342715
1203.5758007812	0.0383981392
1205.5046081543	0.0401077867
1207.4334155273	0.0415173024
1209.3622229004	0.0428836346
1211.2910302734	0.0442459323
1213.2198376465	0.0453605950
1215.1486450195	0.0465826690
1217.0774523926	0.0476903990
1219.0062597656	0.0485265255
1220.9350671387	0.0491198003
1222.8638745117	0.0497276634
1224.7926818848	0.0502938554
1226.7214892578	0.0506017655
1228.6502966308	0.0510890596
1230.5791040039	0.0513455644
1232.5079113769	0.0514770262
1234.4367187500	0.0513488054
1236.3655261230	0.0512567014
1238.2943334961	0.0512028262
1240.2231408691	0.0509081334
1242.1519482422	0.0509953126
1244.0807556152	0.0507203043
1246.0095629883	0.0504197069
1247.9383703613	0.0500520654
1249.8671777344	0.0496942624
1251.7959851074	0.0494254716
1253.7247924805	0.0487652756
1255.6535998535	0.0482909158
1257.5824072266	0.0473853014
1259.5112145996	0.0466562621
1261.4400219726	0.0461944938
1263.3688293457	0.0453767851
1265.2976367187	0.0446547717
1267.2264440918	0.0442843810
1269.1552514648	0.0437755212
1271.0840588379	0.0428417549
1273.0128662109	0.0423322208
1274.9416735840	0.0416141003
1276.8704809570	0.0407601967
1278.7992883301	0.0399072245
1280.7280957031	0.0391041860
1282.6569030762	0.0383903198
1284.5857104492	0.0375039056
1286.5145178223	0.0369430333
1288.4433251953	0.0362383425
1290.3721325683	0.0360420384
1292.3009399414	0.0355072767
1294.2297473144	0.0349143147
1296.1585546875	0.0350744650
1298.0873620605	0.0348510072
1300.0161694336	0.0349669643
1301.9449768066	0.0351103097
1303.8737841797	0.0354576670
1305.8025915527	0.0357803553
1307.7313989258	0.0362083986
1309.6602062988	0.0370822176
1311.5890136719	0.0375961475
1313.5178210449	0.0382354856
1315.4466284180	0.0389630347
1317.3754357910	0.0398835763
1319.3042431640	0.0409022868
1321.2330505371	0.0424629897
1323.1618579101	0.0438341796
1325.0906652832	0.0447519943
1327.0194726562	0.0461080223
1328.9482800293	0.0472770594
1330.8770874023	0.0485458523
1332.8058947754	0.0497603007
1334.7347021484	0.0509446114
1336.6635095215	0.0513128750
1338.5923168945	0.0511023477
1340.5211242676	0.0519137084
1342.4499316406	0.0534072779
1344.3787390137	0.0539647564
1346.3075463867	0.0536887832
1348.2363537597	0.0539330021
1350.1651611328	0.0534372181
1352.0939685058	0.0531205609
1354.0227758789	0.0528356284
1355.9515832519	0.0522718728
1357.8803906250	0.0519906282
1359.8091979980	0.0510163531
1361.7380053711	0.0495613143
1363.6668127441	0.0487744585
1365.5956201172	0.0504916459
1367.5244274902	0.0496369973
1369.4532348633	0.0487249345
1371.3820422363	0.0496774316
1373.3108496094	0.0474472456
1375.2396569824	0.0478021428
1377.1684643555	0.0485464633
1379.0972717285	0.0483675674
1381.0260791015	0.0487640500
1382.9548864746	0.0483946279
1384.8836938476	0.0485239029
1386.8125012207	0.0466373675
1388.7413085937	0.0472948886
1390.6701159668	0.0504260287
1392.5989233398	0.0495357402
1394.5277307129	0.0471168682
1396.4565380859	0.0487414226
1398.3853454590	0.0489783958
1400.3141528320	0.0486086048
1402.2429602051	0.0518358424
1404.1717675781	0.0496480837
1406.1005749512	0.0498304591
1408.0293823242	0.0512617081
1409.9581896972	0.0494486466
1411.8869970703	0.0505062193
1413.8158044433	0.0489886329
1415.7446118164	0.0494173989
1417.6734191894	0.0454829037
1419.6022265625	0.0414714888
1421.5310339355	0.0461530387
1423.4598413086	0.0449690297
1425.3886486816	0.0433833413
1427.3174560547	0.0437519215
1429.2462634277	0.0410310961
1431.1750708008	0.0394888446
1433.1038781738	0.0399343260
1435.0326855469	0.0368970856
1436.9614929199	0.0320832208
1438.8903002929	0.0350130796
1440.8191076660	0.0355077870
1442.7479150390	0.0333271921
1444.6767224121	0.0344609842
1446.6055297851	0.0325292647
1448.5343371582	0.0327472277
1450.4631445312	0.0334158093
1452.3919519043	0.0341172740
1454.3207592773	0.0356180891
1456.2495666504	0.0306296963
1458.1783740234	0.0316581354
1460.1071813965	0.0407600328
1462.0359887695	0.0432557762
1463.9647961426	0.0435634032
1465.8936035156	0.0455430597
1467.8224108886	0.0508901142
1469.7512182617	0.0548425019
1471.6800256347	0.0506238416
1473.6088330078	0.0531410389
1475.5376403808	0.0596948415
1477.4664477539	0.0638775229
1479.3952551269	0.0694110990
1481.3240625000	0.0710572377
1483.2528698730	0.0750296563
1485.1816772461	0.0777017325
1487.1104846191	0.0774249732
1489.0392919922	0.0776763558
1490.9680993652	0.0786246657
1492.8969067383	0.0889113769
1494.8257141113	0.0879227072
1496.7545214843	0.0808934122
1498.6833288574	0.0897912085
1500.6121362304	0.0924171954
1502.5409436035	0.0980338529
1504.4697509765	0.0944727212
1506.3985583496	0.0731181055
1508.3273657226	0.0856270567
1510.2561730957	0.0980214030
1512.1849804687	0.0954823643
1514.1137878418	0.1023692414
1516.0425952148	0.0942647606
1517.9714025879	0.0977231115
1519.9002099609	0.0947732255
1521.8290173340	0.0844810084
1523.7578247070	0.0993457064
1525.6866320801	0.0980342776
1527.6154394531	0.0977013558
1529.5442468261	0.1058559567
1531.4730541992	0.1029587388
1533.4018615722	0.0961026177
1535.3306689453	0.1002079025
1537.2594763183	0.1061262265
1539.1882836914	0.0811548159
1541.1170910644	0.0832989961
1543.0458984375	0.0971600860
1544.9747058105	0.0937186778
1546.9035131836	0.1071652174
1548.8323205566	0.1017238796
1550.7611279297	0.1038700491
1552.6899353027	0.1036716104
1554.6187426758	0.0954831243
1556.5475500488	0.1013318971
1558.4763574218	0.0770332813
1560.4051647949	0.0802496299
1562.3339721679	0.1075316966
1564.2627795410	0.1029444337
1566.1915869140	0.1049053818
1568.1203942871	0.1043001413
1570.0492016601	0.0944236219
1571.9780090332	0.1057311073
1573.9068164062	0.1069936603
1575.8356237793	0.0881175846
1577.7644311523	0.0968098491
1579.6932385254	0.1077452227
1581.6220458984	0.1034596711
1583.5508532715	0.1055460200
1585.4796606445	0.1038674414
1587.4084680175	0.1041579396
1589.3372753906	0.1037011296
1591.2660827636	0.1034142226
1593.1948901367	0.1034357548
1595.1236975097	0.1020690054
1597.0525048828	0.1032260209
1598.9813122558	0.1021393836
1600.9101196289	0.1022713780
1602.8389270019	0.1006838307
1604.7677343750	0.1018089652
1606.6965417480	0.1003167629
1608.6253491211	0.0996813849
1610.5541564941	0.0994706005
1612.4829638672	0.0991023406
1614.4117712402	0.1005760506
1616.3405786132	0.0851587057
1618.2693859863	0.0898585841
1620.1981933593	0.1021830142
1622.1270007324	0.0921437442
1624.0558081054	0.0921711773
1625.9846154785	0.0954941511
1627.9134228515	0.0953415409
1629.8422302246	0.0943230391
1631.7710375976	0.0992118195
1633.6998449707	0.0934671611
1635.6286523437	0.0793997496
1637.5574597168	0.0896711126
1639.4862670898	0.0970516503
1641.4150744629	0.0951179788
1643.3438818359	0.0973960608
1645.2726892090	0.0896899998
1647.2014965820	0.0809042752
1649.1303039550	0.0964199305
1651.0591113281	0.0928862467
1652.9879187011	0.0649729222
1654.9167260742	0.0826214254
1656.8455334472	0.1005350798
1658.7743408203	0.0968467444
1660.7031481933	0.0996815115
1662.6319555664	0.0925213620
1664.5607629394	0.0968182981
1666.4895703125	0.1030031443
1668.4183776855	0.0926962420
1670.3471850586	0.0906301141
1672.2759924316	0.1005950123
1674.2047998047	0.0948965698
1676.1336071777	0.0916790366
1678.0624145507	0.1031143665
1679.9912219238	0.1001949757
1681.9200292968	0.1000340134
1683.8488366699	0.0849138051
1685.7776440429	0.0831919834
1687.7064514160	0.1089964062
1689.6352587890	0.0975471362
1691.5640661621	0.1048509628
1693.4928735351	0.1078028381
1695.4216809082	0.0831031501
1697.3504882812	0.0982293934
1699.2792956543	0.0898522660
1701.2081030273	0.0818247199
1703.1369104004	0.1057045087
1705.0657177734	0.0993953869
1706.9945251464	0.0993354842
1708.9233325195	0.1066740304
1710.8521398925	0.1033432931
1712.7809472656	0.1049760431
1714.7097546386	0.0992071405
1716.6385620117	0.0906885490
1718.5673693847	0.0891895741
1720.4961767578	0.1026782990
1722.4249841308	0.1059723496
1724.3537915039	0.0996367931
1726.2825988769	0.1067755818
1728.2114062500	0.0999911278
1730.1402136230	0.1007239968
1732.0690209961	0.0987123549
1733.9978283691	0.0794233978
1735.9266357421	0.0937856585
1737.8554431152	0.1024457514
1739.7842504882	0.0934345871
1741.7130578613	0.1000523418
1743.6418652343	0.1016835421
1745.5706726074	0.1016964316
1747.4994799804	0.1029023975
1749.4282873535	0.0995297432
1751.3570947265	0.0958519429
1753.2859020996	0.1038997620
1755.2147094726	0.1083245873
1757.1435168457	0.1008474231
1759.0723242187	0.1084286496
1761.0011315918	0.1037455350
1762.9299389648	0.1002689674
1764.8587463379	0.1119363233
1766.7875537109	0.1032656878
1768.7163610839	0.1034650952
1770.6451684570	0.1036093011
1772.5739758300	0.0947642922
1774.5027832031	0.1031567752
1776.4315905761	0.1083525419
1778.3603979492	0.1069189534
1780.2892053222	0.1058958322
1782.2180126953	0.1064714193
1784.1468200683	0.1064441949
1786.0756274414	0.1047157347
1788.0044348144	0.1090991199
1789.9332421875	0.1072542593
1791.8620495605	0.0989426821
1793.7908569336	0.1020309925
1795.7196643066	0.1082300693
1797.6484716796	0.1070866436
1799.5772790527	0.1056578755
1801.5060864257	0.1041299552
1803.4348937988	0.1066109166
1805.3637011718	0.1088272333
1807.2925085449	0.1076080948
1809.2213159179	0.1080267504
1811.1501232910	0.1058091670
1813.0789306640	0.1082177386
1815.0077380371	0.1087277308
1816.9365454101	0.1075395644
1818.8653527832	0.1083850861
1820.7941601562	0.1078446209
1822.7229675293	0.1091868952
1824.6517749023	0.1035867929
1826.5805822753	0.1062525958
1828.5093896484	0.1067811847
1830.4381970214	0.1013997346
1832.3670043945	0.1082467586
1834.2958117675	0.1078290492
1836.2246191406	0.1078373268
1838.1534265136	0.1074022204
1840.0822338867	0.1077418327
1842.0110412597	0.1080003381
1843.9398486328	0.0979557931
1845.8686560058	0.1030345559
1847.7974633789	0.1077791378
1849.7262707519	0.1057246774
1851.6550781250	0.1082941368
1853.5838854980	0.1064707637
1855.5126928710	0.1072355509
1857.4415002441	0.1069117337
1859.3703076171	0.1062170342
1861.2991149902	0.1066947281
1863.2279223632	0.1058576554
1865.1567297363	0.1067359000
1867.0855371093	0.1039515212
1869.0143444824	0.1004303545
1870.9431518554	0.1033729613
1872.8719592285	0.1065562740
1874.8007666015	0.1052013859
1876.7295739746	0.1056348309
1878.6583813476	0.1052960157
1880.5871887207	0.1047424972
1882.5159960937	0.1055508405
1884.4448034667	0.1040908396
1886.3736108398	0.1051462740
1888.3024182128	0.1034447774
1890.2312255859	0.1017397866
1892.1600329589	0.1048678309
1894.0888403320	0.1037436053
1896.0176477050	0.1029918343
1897.9464550781	0.1040307879
1899.8752624511	0.1035627276
1901.8040698242	0.1037105769
1903.7328771972	0.1032362580
1905.6616845703	0.1036044806
1907.5904919433	0.1028088182
1909.5192993164	0.1020213068
1911.4481066894	0.1026175916
1913.3769140625	0.1025784165
1915.3057214355	0.1032150388
1917.2345288085	0.0997478217
1919.1633361816	0.0997131094
1921.0921435546	0.1027853638
1923.0209509277	0.1001242399
1924.9497583007	0.1015160978
1926.8785656738	0.1023542285
1928.8073730468	0.1015425324
1930.7361804199	0.1024076417
1932.6649877929	0.1013116241
1934.5937951660	0.1021795273
1936.5226025390	0.1014231741
1938.4514099121	0.1016550660
1940.3802172851	0.1015189886
1942.3090246582	0.0991042405
1944.2378320312	0.1006030664
1946.1666394042	0.1011494398
1948.0954467773	0.1009178609
1950.0242541503	0.1012658775
1951.9530615234	0.1010403037
1953.8818688964	0.1009745598
1955.8106762695	0.1007327735
1957.7394836425	0.1009506881
1959.6682910156	0.1006627679
1961.5970983886	0.1005715206
1963.5259057617	0.1008031666
1965.4547131347	0.1003628075
1967.3835205078	0.0995235890
1969.3123278808	0.1000219434
1971.2411352539	0.1005297005
1973.1699426269	0.0999451131
1975.0987499999	0.1002685428
1977.0275573730	0.0999828354
1978.9563647460	0.0997966826
1980.8851721191	0.0997555256
1982.8139794921	0.0994314030
1984.7427868652	0.0997629687
1986.6715942382	0.0992640704
1988.6004016113	0.0991392136
1990.5292089843	0.0984902531
1992.4580163574	0.0974741876
1994.3868237304	0.0985730290
1996.3156311035	0.0987715423
1998.2444384765	0.0980779752
2000.1732458496	0.0982525349
2002.1020532226	0.0980085880
2004.0308605956	0.0979637355
2005.9596679687	0.0976928771
2007.8884753417	0.0973683819
2009.8172827148	0.0974091589
2011.7460900878	0.0970178619
2013.6748974609	0.0970945507
2015.6037048339	0.0964753181
2017.5325122070	0.0958158374
2019.4613195800	0.0963563323
2021.3901269531	0.0962074474
2023.3189343261	0.0958018228
2025.2477416992	0.0957498774
2027.1765490722	0.0956168622
2029.1053564453	0.0953817368
2031.0341638183	0.0951351672
2032.9629711914	0.0949841589
2034.8917785644	0.0947616696
2036.8205859374	0.0945632309
2038.7493933105	0.0944009945
2040.6782006835	0.0939838737
2042.6070080566	0.0938074291
2044.5358154296	0.0938747972
2046.4646228027	0.0937196314
2048.3934301757	0.0936364755
2050.3222375488	0.0931694210
2052.2510449218	0.0930628330
2054.1798522949	0.0929798707
2056.1086596679	0.0925590247
2058.0374670410	0.0926373899
2059.9662744140	0.0922439322
2061.8950817871	0.0922863632
2063.8238891601	0.0919758007
2065.7526965331	0.0913176984
2067.6815039062	0.0916937143
2069.6103112792	0.0915960222
2071.5391186523	0.0914305970
2073.4679260253	0.0912119746
2075.3967333984	0.0908798426
2077.3255407714	0.0907762572
2079.2543481445	0.0906873494
2081.1831555175	0.0906160325
2083.1119628906	0.0902982727
2085.0407702636	0.0900516510
2086.9695776367	0.0898937583
2088.8983850097	0.0898446813
2090.8271923828	0.0896698087
2092.7559997558	0.0895646811
2094.6848071288	0.0892875940
2096.6136145019	0.0890622810
2098.5424218749	0.0892231166
2100.4712292480	0.0889508277
2102.4000366210	0.0888349861
2104.3288439941	0.0887933224
2106.2576513671	0.0886184946
2108.1864587402	0.0883707479
2110.1152661132	0.0882598460
2112.0440734863	0.0881990939
2113.9728808593	0.0879452229
2115.9016882324	0.0879454315
2117.8304956054	0.0875473469
2119.7593029785	0.0874257237
2121.6881103515	0.0875585899
2123.6169177245	0.0873278975
2125.5457250976	0.0871974975
2127.4745324706	0.0871185511
2129.4033398437	0.0870376527
2131.3321472167	0.0867704004
2133.2609545898	0.0867462680
2135.1897619628	0.0866807029
2137.1185693359	0.0865094662
2139.0473767089	0.0863412097
2140.9761840820	0.0861919522
2142.9049914550	0.0862029195
2144.8337988281	0.0860443562
2146.7626062011	0.0860876068
2148.6914135742	0.0859672651
2150.6202209472	0.0858232826
2152.5490283203	0.0857083946
2154.4778356933	0.0855358317
2156.4066430663	0.0855240822
2158.3354504394	0.0854328722
2160.2642578124	0.0854568034
2162.1930651855	0.0851971880
2164.1218725585	0.0850770622
2166.0506799316	0.0851258934
2167.9794873046	0.0849803686
2169.9082946777	0.0849011168
2171.8371020507	0.0847825259
2173.7659094238	0.0847114474
2175.6947167968	0.0845677406
2177.6235241699	0.0844581723
2179.5523315429	0.0843525827
2181.4811389160	0.0842452496
2183.4099462890	0.0841450542
2185.3387536620	0.0841534436
2187.2675610351	0.0840602294
2189.1963684081	0.0838111416
2191.1251757812	0.0838059485
2193.0539831542	0.0837239549
2194.9827905273	0.0837004036
2196.9115979003	0.0835438967
2198.8404052734	0.0835337490
2200.7692126464	0.0835811943
2202.6980200195	0.0831762105
2204.6268273925	0.0831221566
2206.5556347656	0.0832709596
2208.4844421386	0.0830971524
2210.4132495117	0.0828479230
2212.3420568847	0.0829438269
2214.2708642577	0.0827618390
2216.1996716308	0.0825132132
2218.1284790038	0.0825846195
2220.0572863769	0.0824938267
2221.9860937499	0.0825251564
2223.9149011230	0.0822979063
2225.8437084960	0.0820965171
2227.7725158691	0.0819926262
2229.7013232421	0.0818811953
2231.6301306152	0.0818225741
2233.5589379882	0.0816109627
2235.4877453613	0.0816325247
2237.4165527343	0.0815422237
2239.3453601074	0.0814193860
2241.2741674804	0.0812237710
2243.2029748534	0.0810795575
2245.1317822265	0.0809895247
2247.0605895995	0.0808632523
2248.9893969726	0.0808897689
2250.9182043456	0.0805831701
2252.8470117187	0.0804713368
2254.7758190917	0.0804527923
2256.7046264648	0.0802488476
2258.6334338378	0.0801697075
2260.5622412109	0.0801798329
2262.4910485839	0.0800738633
2264.4198559570	0.0798266977
2266.3486633300	0.0797330290
2268.2774707031	0.0796450227
2270.2062780761	0.0795738101
2272.1350854491	0.0794381425
2274.0638928222	0.0794877857
2275.9927001952	0.0793226957
2277.9215075683	0.0791725814
2279.8503149413	0.0793964192
2281.7791223144	0.0792492479
2283.7079296874	0.0791989639
2285.6367370605	0.0788712725
2287.5655444335	0.0785949454
2289.4943518066	0.0785477236
2291.4231591796	0.0783046633
2293.3519665527	0.0781662688
2295.2807739257	0.0778983086
2297.2095812988	0.0776637048
2299.1383886718	0.0772582591
2301.0671960449	0.0771208107
2302.9960034179	0.0767424405
2304.9248107909	0.0762664527
2306.8536181640	0.0760291517
2308.7824255370	0.0751689225
2310.7112329101	0.0745905191
2312.6400402831	0.0738375708
2314.5688476562	0.0729863644
2316.4976550292	0.0721093416
2318.4264624023	0.0710124448
2320.3552697753	0.0701923966
2322.2840771484	0.0690074712
2324.2128845214	0.0680907667
2326.1416918945	0.0673512816
2328.0704992675	0.0664719343
2329.9993066406	0.0655974299
2331.9281140136	0.0650665089
2333.8569213866	0.0649772212
2335.7857287597	0.0646002442
2337.7145361327	0.0644563586
2339.6433435058	0.0643512011
2341.5721508788	0.0647021160
2343.5009582519	0.0657026917
2345.4297656249	0.0667847991
2347.3585729980	0.0698438883
2349.2873803710	0.0724014342
2351.2161877441	0.0698840469
2353.1449951171	0.0659010857
2355.0738024902	0.0634416491
2357.0026098632	0.0612387061
2358.9314172363	0.0600615367
2360.8602246093	0.0594513416
2362.7890319823	0.0592482053
2364.7178393554	0.0597593710
2366.6466467284	0.0605151355
2368.5754541015	0.0617614724
2370.5042614745	0.0633198768
2372.4330688476	0.0654198229
2374.3618762206	0.0673976094
2376.2906835937	0.0691591427
2378.2194909667	0.0709533095
2380.1482983398	0.0722432733
2382.0771057128	0.0731993765
2384.0059130859	0.0736501515
2385.9347204589	0.0739403516
2387.8635278320	0.0741769224
2389.7923352050	0.0741282105
2391.7211425780	0.0740160644
2393.6499499511	0.0738566071
2395.5787573241	0.0737151206
2397.5075646972	0.0736845434
2399.4363720702	0.0735410452
2401.3651794433	0.0734160095
2403.2939868163	0.0734844506
2405.2227941894	0.0733450726
2407.1516015624	0.0732421428
2409.0804089355	0.0730656683
2411.0092163085	0.0729770511
2412.9380236816	0.0729463100
2414.8668310546	0.0728145093
2416.7956384277	0.0729258806
2418.7244458007	0.0726106614
2420.6532531738	0.0724439919
2422.5820605468	0.0725111812
2424.5108679198	0.0724389553
2426.4396752929	0.0723558813
2428.3684826659	0.0721967816
2430.2972900390	0.0722217634
2432.2260974120	0.0719617009
2434.1549047851	0.0719376206
2436.0837121581	0.0720069557
2438.0125195312	0.0717939883
2439.9413269042	0.0716341510
2441.8701342773	0.0715508983
2443.7989416503	0.0715995952
2445.7277490234	0.0713806450
2447.6565563964	0.0713763386
2449.5853637695	0.0713315606
2451.5141711425	0.0711583346
2453.4429785155	0.0710658729
2455.3717858886	0.0708714873
2457.3005932616	0.0709343702
2459.2294006347	0.0708181113
2461.1582080077	0.0706672668
2463.0870153808	0.0706065297
2465.0158227538	0.0706099644
2466.9446301269	0.0705962181
2468.8734374999	0.0703753233
2470.8022448730	0.0702689737
2472.7310522460	0.0702329874
2474.6598596191	0.0701345056
2476.5886669921	0.0699836835
2478.5174743652	0.0699981526
2480.4462817382	0.0698178560
2482.3750891112	0.0696883202
2484.3038964843	0.0697432607
2486.2327038573	0.0695269257
2488.1615112304	0.0694603994
2490.0903186034	0.0694197863
2492.0191259765	0.0692925751
2493.9479333495	0.0692149401
2495.8767407226	0.0691536069
2497.8055480956	0.0690370053
2499.7343554687	0.0689926744
2501.6631628417	0.0689573735
2503.5919702148	0.0688665658
2505.5207775878	0.0687332749
2507.4495849609	0.0685550869
2509.3783923339	0.0686447844
2511.3071997069	0.0684587061
2513.2360070800	0.0684676766
2515.1648144530	0.0684229806
2517.0936218261	0.0680713505
2519.0224291991	0.0682759285
2520.9512365722	0.0680936873
2522.8800439452	0.0679954588
2524.8088513183	0.0679997355
2526.7376586913	0.0677645281
2528.6664660644	0.0677688122
2530.5952734374	0.0676415563
2532.5240808105	0.0676974505
2534.4528881835	0.0675505698
2536.3816955566	0.0672876537
2538.3105029296	0.0672674179
2540.2393103027	0.0671655834
2542.1681176757	0.0670877695
2544.0969250487	0.0670959353
2546.0257324218	0.0669549927
2547.9545397948	0.0667637512
2549.8833471679	0.0668203384
2551.8121545409	0.0666943267
2553.7409619140	0.0665864795
2555.6697692870	0.0665104538
2557.5985766601	0.0663807541
2559.5273840331	0.0663635731
2561.4561914062	0.0662950575
2563.3849987792	0.0662938803
2565.3138061523	0.0661035329
2567.2426135253	0.0659745932
2569.1714208984	0.0659855306
2571.1002282714	0.0659484267
2573.0290356444	0.0658003539
2574.9578430175	0.0656509995
2576.8866503905	0.0656636655
2578.8154577636	0.0655281246
2580.7442651366	0.0655002594
2582.6730725097	0.0654329509
2584.6018798827	0.0652954355
2586.5306872558	0.0651716739
2588.4594946288	0.0650666952
2590.3883020019	0.0650752708
2592.3171093749	0.0648989305
2594.2459167480	0.0647426099
2596.1747241210	0.0646703318
2598.1035314941	0.0646723509
2600.0323388671	0.0645233691
2601.9611462401	0.0645111799
2603.8899536132	0.0645801872
2605.8187609862	0.0642517880
2607.7475683593	0.0642364323
2609.6763757323	0.0642213523
2611.6051831054	0.0639871359
2613.5339904784	0.0638998374
2615.4627978515	0.0638361424
2617.3916052245	0.0637899190
2619.3204125976	0.0636878759
2621.2492199706	0.0635970831
2623.1780273437	0.0635469928
2625.1068347167	0.0634654909
2627.0356420898	0.0633557588
2628.9644494628	0.0633273125
2630.8932568358	0.0631843656
2632.8220642089	0.0630810559
2634.7508715819	0.0631002188
2636.6796789550	0.0629691482
2638.6084863280	0.0628404394
2640.5372937011	0.0627758428
2642.4661010741	0.0628374815
2644.3949084472	0.0627588481
2646.3237158202	0.0626370460
2648.2525231933	0.0625100955
2650.1813305663	0.0623282865
2652.1101379394	0.0622762665
2654.0389453124	0.0620749742
2655.9677526855	0.0621014982
2657.8965600585	0.0620728508
2659.8253674315	0.0618348047
2661.7541748046	0.0618504472
2663.6829821776	0.0616764724
2665.6117895507	0.0615431070
2667.5405969237	0.0615782067
2669.4694042968	0.0615083873
2671.3982116698	0.0615603290
2673.3270190429	0.0614859313
2675.2558264159	0.0612292551
2677.1846337890	0.0611139759
2679.1134411620	0.0610497519
2681.0422485351	0.0610229447
2682.9710559081	0.0609193929
2684.8998632812	0.0608331412
2686.8286706542	0.0607276224
2688.7574780273	0.0605519786
2690.6862854003	0.0606367402
2692.6150927733	0.0605299920
2694.5439001464	0.0603192449
2696.4727075194	0.0603070855
2698.4015148925	0.0603343993
2700.3303222655	0.0602279976
2702.2591296386	0.0600979440
2704.1879370116	0.0601160377
2706.1167443847	0.0598590523
2708.0455517577	0.0598292798
2709.9743591308	0.0598251894
2711.9031665038	0.0596403182
2713.8319738769	0.0595988110
2715.7607812499	0.0594620854
2717.6895886230	0.0594601557
2719.6183959960	0.0592017509
2721.5472033690	0.0590745583
2723.4760107421	0.0591211542
2725.4048181151	0.0590208396
2727.3336254882	0.0589717142
2729.2624328612	0.0587620959
2731.1912402343	0.0587337129
2733.1200476073	0.0586160868
2735.0488549804	0.0585262999
2736.9776623534	0.0585048832
2738.9064697265	0.0583488606
2740.8352770995	0.0582423098
2742.7640844726	0.0581767783
2744.6928918456	0.0581474341
2746.6216992187	0.0579311550
2748.5505065917	0.0579262637
2750.4793139647	0.0578105599
2752.4081213378	0.0577065684
2754.3369287108	0.0577704012
2756.2657360839	0.0574916154
2758.1945434569	0.0574351735
2760.1233508300	0.0574604124
2762.0521582030	0.0573803186
2763.9809655761	0.0572217554
2765.9097729491	0.0570736378
2767.8385803222	0.0570207387
2769.7673876952	0.0569414422
2771.6961950683	0.0568469763
2773.6250024413	0.0566797443
2775.5538098144	0.0565969087
2777.4826171874	0.0564995930
2779.4114245604	0.0564871803
2781.3402319335	0.0563558489
2783.2690393065	0.0562117025
2785.1978466796	0.0561738499
2787.1266540526	0.0560159236
2789.0554614257	0.0559816211
2790.9842687987	0.0558767952
2792.9130761718	0.0557717830
2794.8418835448	0.0556589440
2796.7706909179	0.0555444285
2798.6994982909	0.0553736351
2800.6283056640	0.0552966371
2802.5571130370	0.0552612990
2804.4859204101	0.0550373048
2806.4147277831	0.0550861880
2808.3435351562	0.0549057275
2810.2723425292	0.0547512099
2812.2011499022	0.0547366142
2814.1299572753	0.0546495095
2816.0587646483	0.0545902699
2817.9875720214	0.0542787090
2819.9163793944	0.0542587414
2821.8451867675	0.0541579016
2823.7739941405	0.0540127419
2825.7028015136	0.0539679155
2827.6316088866	0.0537955761
2829.5604162597	0.0536191352
2831.4892236327	0.0534498654
2833.4180310058	0.0535207950
2835.3468383788	0.0532835349
2837.2756457519	0.0531181395
2839.2044531249	0.0531249642
2841.1332604979	0.0528955162
2843.0620678710	0.0526287891
2844.9908752440	0.0523670390
2846.9196826171	0.0521498397
2848.8484899901	0.0517196134
2850.7772973632	0.0516258441
2852.7061047362	0.0516527966
2854.6349121093	0.0515222773
2856.5637194823	0.0514787287
2858.4925268554	0.0513484329
2860.4213342284	0.0513946116
2862.3501416015	0.0513270311
2864.2789489745	0.0512096360
2866.2077563476	0.0511814281
2868.1365637206	0.0510711856
2870.0653710936	0.0509962291
2871.9941784667	0.0509042665
2873.9229858397	0.0507228673
2875.8517932128	0.0506599844
2877.7806005858	0.0505511127
2879.7094079589	0.0503814258
2881.6382153319	0.0506316908
2883.5670227050	0.0504821055
2885.4958300780	0.0501513407
2887.4246374511	0.0502149239
2889.3534448241	0.0500944704
2891.2822521972	0.0499527678
2893.2110595702	0.0498723760
2895.1398669433	0.0497999415
2897.0686743163	0.0495462865
2898.9974816893	0.0494361892
2900.9262890624	0.0493693575
2902.8550964354	0.0491119400
2904.7839038085	0.0489771068
2906.7127111815	0.0487773567
2908.6415185546	0.0487268642
2910.5703259276	0.0485138595
2912.4991333007	0.0481939465
2914.4279406737	0.0479197130
2916.3567480468	0.0476138219
2918.2855554198	0.0475724861
2920.2143627929	0.0474505313
2922.1431701659	0.0473580174
2924.0719775390	0.0472911373
2926.0007849120	0.0471853726
2927.9295922851	0.0471430942
2929.8583996581	0.0471684225
2931.7872070311	0.0472069681
2933.7160144042	0.0470981672
2935.6448217772	0.0470530167
2937.5736291503	0.0470014066
2939.5024365233	0.0470137000
2941.4312438964	0.0470363125
2943.3600512694	0.0469231009
2945.2888586425	0.0468834154
2947.2176660155	0.0468662865
2949.1464733886	0.0467565954
2951.0752807616	0.0466145277
2953.0040881347	0.0464868098
2954.9328955077	0.0463667996
2956.8617028808	0.0462299213
2958.7905102538	0.0460240096
2960.7193176268	0.0459829867
2962.6481249999	0.0458892137
2964.5769323729	0.0456756279
2966.5057397460	0.0455810204
2968.4345471190	0.0455417782
2970.3633544921	0.0455915481
2972.2921618651	0.0455305427
2974.2209692382	0.0456613898
2976.1497766112	0.0457589850
2978.0785839843	0.0455651358
2980.0073913573	0.0455313101
2981.9361987304	0.0455542430
2983.8650061034	0.0455311537
2985.7938134765	0.0454030223
2987.7226208495	0.0453647897
2989.6514282225	0.0452811569
2991.5802355956	0.0450861454
2993.5090429686	0.0450097919
2995.4378503417	0.0449321792
2997.3666577147	0.0447945744
2999.2954650878	0.0447433740
3001.2242724608	0.0447840095
3003.1530798339	0.0444863886
3005.0818872069	0.0443721823
3007.0106945800	0.0444260500
3008.9395019530	0.0441990830
3010.8683093261	0.0440731496
3012.7971166991	0.0439461134
3014.7259240722	0.0438350439
3016.6547314452	0.0437321663
3018.5835388182	0.0436591581
3020.5123461913	0.0435425043
3022.4411535643	0.0434078723
3024.3699609374	0.0432176143
3026.2987683104	0.0430988371
3028.2275756835	0.0431483388
3030.1563830565	0.0428630821
3032.0851904296	0.0427398197
3034.0139978026	0.0426033437
3035.9428051757	0.0424700975
3037.8716125487	0.0425347537
3039.8004199218	0.0422914661
3041.7292272948	0.0421845913
3043.6580346679	0.0420523025
3045.5868420409	0.0419157073
3047.5156494139	0.0418122523
3049.4444567870	0.0415631868
3051.3732641600	0.0414678827
3053.3020715331	0.0414126590
3055.2308789061	0.0412012152
3057.1596862792	0.0411143079
3059.0884936522	0.0411379449
3061.0173010253	0.0408291817
3062.9461083983	0.0407577865
3064.8749157714	0.0407194048
3066.8037231444	0.0405520275
3068.7325305175	0.0404574685
3070.6613378905	0.0402219221
3072.5901452636	0.0402842388
3074.5189526366	0.0401168689
3076.4477600097	0.0398628116
3078.3765673827	0.0397813246
3080.3053747557	0.0396356359
3082.2341821288	0.0395621136
3084.1629895018	0.0394359678
3086.0917968749	0.0393883586
3088.0206042479	0.0391845405
3089.9494116210	0.0390156507
3091.8782189940	0.0388346687
3093.8070263671	0.0387147777
3095.7358337401	0.0387007408
3097.6646411132	0.0384691171
3099.5934484862	0.0383946076
3101.5222558593	0.0381733254
3103.4510632323	0.0379799567
3105.3798706054	0.0379773527
3107.3086779784	0.0378597155
3109.2374853514	0.0376689024
3111.1662927245	0.0374036804
3113.0951000975	0.0372260883
3115.0239074706	0.0371134356
3116.9527148436	0.0370465852
3118.8815222167	0.0368595868
3120.8103295897	0.0366608910
3122.7391369628	0.0365750566
3124.6679443358	0.0364254117
3126.5967517089	0.0361610427
3128.5255590819	0.0360641964
3130.4543664550	0.0360016488
3132.3831738280	0.0356819406
3134.3119812011	0.0356367342
3136.2407885741	0.0354350470
3138.1695959471	0.0351396948
3140.0984033202	0.0351830833
3142.0272106932	0.0350230671
3143.9560180663	0.0347596332
3145.8848254393	0.0345948786
3147.8136328124	0.0345293880
3149.7424401854	0.0343489870
3151.6712475585	0.0341027491
3153.6000549315	0.0339562744
3155.5288623046	0.0339339375
3157.4576696776	0.0337351970
3159.3864770507	0.0335022286
3161.3152844237	0.0335069634
3163.2440917968	0.0331582576
3165.1728991698	0.0330349877
3167.1017065428	0.0329099223
3169.0305139159	0.0326044299
3170.9593212889	0.0326092616
3172.8881286620	0.0323451385
3174.8169360350	0.0321910605
3176.7457434081	0.0320699587
3178.6745507811	0.0319455750
3180.6033581542	0.0318934321
3182.5321655272	0.0316519774
3184.4609729003	0.0314700231
3186.3897802733	0.0312524587
3188.3185876464	0.0312038641
3190.2473950194	0.0311297253
3192.1762023925	0.0309215263
3194.1050097655	0.0307950638
3196.0338171386	0.0306064785
3197.9626245116	0.0304553118
3199.8914318846	0.0304212645
3201.8202392577	0.0303457566
3203.7490466307	0.0301650390
3205.6778540038	0.0300118476
3207.6066613768	0.0298483241
3209.5354687499	0.0297532044
3211.4642761229	0.0296238549
3213.3930834960	0.0294284634
3215.3218908690	0.0293644760
3217.2506982421	0.0293635093
3219.1795056151	0.0291847624
3221.1083129882	0.0289649665
3223.0371203612	0.0290720090
3224.9659277343	0.0289668720
3226.8947351073	0.0287484210
3228.8235424803	0.0286342092
3230.7523498534	0.0284942035
3232.6811572264	0.0285641365
3234.6099645995	0.0284363348
3236.5387719725	0.0283507779
3238.4675793456	0.0283268467
3240.3963867186	0.0280909054
3242.3251940917	0.0280043706
3244.2540014647	0.0280101784
3246.1828088378	0.0280093681
3248.1116162108	0.0280062817
3250.0404235839	0.0279160775
3251.9692309569	0.0278086103
3253.8980383300	0.0277745239
3255.8268457030	0.0275122896
3257.7556530760	0.0274171643
3259.6844604491	0.0276048779
3261.6132678221	0.0275547020
3263.5420751952	0.0274989419
3265.4708825682	0.0273625664
3267.3996899413	0.0273154899
3269.3284973143	0.0273025371
3271.2573046874	0.0271248929
3273.1861120604	0.0270771161
3275.1149194335	0.0270260628
3277.0437268065	0.0269921124
3278.9725341796	0.0269774385
3280.9013415526	0.0270150341
3282.8301489257	0.0269888267
3284.7589562987	0.0268775262
3286.6877636717	0.0268413760
3288.6165710448	0.0267545357
3290.5453784178	0.0267453119
3292.4741857909	0.0267203320
3294.4029931639	0.0266375057
3296.3318005370	0.0265593883
3298.2606079100	0.0264390446
3300.1894152831	0.0264242329
3302.1182226561	0.0264631193
3304.0470300292	0.0263960473
3305.9758374022	0.0261983294
3307.9046447753	0.0261229277
3309.8334521483	0.0262208246
3311.7622595214	0.0261903368
3313.6910668944	0.0261392221
3315.6198742675	0.0260957871
3317.5486816405	0.0259816889
3319.4774890135	0.0259963144
3321.4062963866	0.0258910805
3323.3351037596	0.0258064903
3325.2639111327	0.0258733109
3327.1927185057	0.0257369876
3329.1215258788	0.0257223547
3331.0503332518	0.0256571975
3332.9791406249	0.0255601685
3334.9079479979	0.0256126784
3336.8367553710	0.0253659729
3338.7655627440	0.0253483802
3340.6943701171	0.0254404098
3342.6231774901	0.0252831206
3344.5519848632	0.0253547654
3346.4807922362	0.0252545532
3348.4095996092	0.0251259971
3350.3384069823	0.0252220333
3352.2672143553	0.0251269601
3354.1960217284	0.0250682458
3356.1248291014	0.0249876752
3358.0536364745	0.0249792952
3359.9824438475	0.0250233077
3361.9112512206	0.0248508472
3363.8400585936	0.0248495527
3365.7688659667	0.0247973595
3367.6976733397	0.0246533863
3369.6264807128	0.0246636905
3371.5552880858	0.0246565975
3373.4840954589	0.0246047769
3375.4129028319	0.0245546475
3377.3417102049	0.0246136729
3379.2705175780	0.0246130116
3381.1993249510	0.0245206431
3383.1281323241	0.0244857166
3385.0569396971	0.0243869275
3386.9857470702	0.0242915265
3388.9145544432	0.0244287886
3390.8433618163	0.0243128017
3392.7721691893	0.0241597705
3394.7009765624	0.0243282765
3396.6297839354	0.0241330285
3398.5585913085	0.0242093056
3400.4873986815	0.0242879242
3402.4162060546	0.0240468048
3404.3450134276	0.0241963156
3406.2738208006	0.0242685899
3408.2026281737	0.0242274478
3410.1314355467	0.0241004415
3412.0602429198	0.0241799951
3413.9890502928	0.0241290517
3415.9178576659	0.0240182225
3417.8466650389	0.0241701268
3419.7754724120	0.0239512250
3421.7042797850	0.0240140893
3423.6330871581	0.0240441896
3425.5618945311	0.0240139030
3427.4907019042	0.0241334774
3429.4195092772	0.0241040867
3431.3483166503	0.0241231211
3433.2771240233	0.0240860954
3435.2059313963	0.0241628401
3437.1347387694	0.0239620358
3439.0635461424	0.0239914320
3440.9923535155	0.0240131915
3442.9211608885	0.0239334889
3444.8499682616	0.0241556056
3446.7787756346	0.0239120722
3448.7075830077	0.0239658561
3450.6363903807	0.0241712332
3452.5651977538	0.0242057033
3454.4940051268	0.0241515711
3456.4228124999	0.0241217315
3458.3516198729	0.0242437497
3460.2804272460	0.0241407398
3462.2092346190	0.0241995789
3464.1380419921	0.0241947100
3466.0668493651	0.0242743045
3467.9956567381	0.0242103674
3469.9244641112	0.0242421106
3471.8532714842	0.0243701711
3473.7820788573	0.0241973996
3475.7108862303	0.0244071390
3477.6396936034	0.0243220069
3479.5685009764	0.0242440738
3481.4973083495	0.0242106579
3483.4261157225	0.0242073499
3485.3549230956	0.0243973769
3487.2837304686	0.0243739523
3489.2125378417	0.0245298520
3491.1413452147	0.0244993605
3493.0701525878	0.0246184319
3494.9989599608	0.0245886501
3496.9277673338	0.0245306008
3498.8565747069	0.0247087888
3500.7853820799	0.0245605614
3502.7141894530	0.0243364275
3504.6429968260	0.0243807472
3506.5718041991	0.0249089934
3508.5006115721	0.0246860869
3510.4294189452	0.0246142931
3512.3582263182	0.0249629635
3514.2870336913	0.0248441361
3516.2158410643	0.0249764360
3518.1446484374	0.0248198137
3520.0734558104	0.0250228196
3522.0022631835	0.0249743238
3523.9310705565	0.0246317126
3525.8598779295	0.0248716455
3527.7886853026	0.0247900635
3529.7174926756	0.0249064304
3531.6463000487	0.0251051728
3533.5751074217	0.0252206661
3535.5039147948	0.0251451116
3537.4327221678	0.0250521339
3539.3615295409	0.0253983065
3541.2903369139	0.0253087990
3543.2191442870	0.0251507238
3545.1479516600	0.0249202065
3547.0767590331	0.0246025473
3549.0055664061	0.0252844617
3550.9343737792	0.0254296362
3552.8631811522	0.0249345526
3554.7919885252	0.0254488010
3556.7207958983	0.0256165024
3558.6496032713	0.0255780630
3560.5784106444	0.0254907459
3562.5072180174	0.0253462419
3564.4360253905	0.0256037042
3566.3648327635	0.0243825614
3568.2936401366	0.0238330215
3570.2224475096	0.0253344215
3572.1512548827	0.0259151310
3574.0800622557	0.0257098861
3576.0088696288	0.0258059241
3577.9376770018	0.0257506482
3579.8664843749	0.0257460102
3581.7952917479	0.0258069746
3583.7240991210	0.0259131584
3585.6529064940	0.0255080033
3587.5817138670	0.0238937438
3589.5105212401	0.0243957527
3591.4393286131	0.0261195675
3593.3681359862	0.0256432854
3595.2969433592	0.0253171921
3597.2257507323	0.0257262848
3599.1545581053	0.0259060115
3601.0833654784	0.0257169679
3603.0121728514	0.0259304121
3604.9409802245	0.0263606869
3606.8697875975	0.0256771594
3608.7985949706	0.0244962052
3610.7274023436	0.0248988885
3612.6562097167	0.0254499894
3614.5850170897	0.0249701478
3616.5138244627	0.0262731276
3618.4426318358	0.0247543454
3620.3714392088	0.0241239574
3622.3002465819	0.0265617445
3624.2290539549	0.0260251667
3626.1578613280	0.0269560274
3628.0866687010	0.0237547681
3630.0154760741	0.0220629163
3631.9442834471	0.0264932774
3633.8730908202	0.0259868167
3635.8018981932	0.0263243355
3637.7307055663	0.0268578492
3639.6595129393	0.0264540575
3641.5883203124	0.0268047489
3643.5171276854	0.0264755450
3645.4459350584	0.0266918000
3647.3747424315	0.0247201622
3649.3035498045	0.0230099391
3651.2323571776	0.0232814550
3653.1611645506	0.0266661365
3655.0899719237	0.0263552107
3657.0187792967	0.0242449641
3658.9475866698	0.0271055158
3660.8763940428	0.0266518965
3662.8052014159	0.0270227529
3664.7340087889	0.0269477628
3666.6628161620	0.0267346688
3668.5916235350	0.0262727421
3670.5204309081	0.0223091505
3672.4492382811	0.0258589983
3674.3780456541	0.0251096934
3676.3068530272	0.0216512810
3678.2356604002	0.0258916486
3680.1644677733	0.0264802463
3682.0932751463	0.0264410414
3684.0220825194	0.0271020308
3685.9508898924	0.0268302597
3687.8796972655	0.0245439224
3689.8085046385	0.0229325853
3691.7373120116	0.0256833490
3693.6661193846	0.0262188837
3695.5949267577	0.0266745873
3697.5237341307	0.0266309567
3699.4525415038	0.0263839401
3701.3813488768	0.0260049440
3703.3101562499	0.0251355786
3705.2389636229	0.0271236487
3707.1677709959	0.0260394588
3709.0965783690	0.0255875327
3711.0253857420	0.0245119855
3712.9541931151	0.0231200978
3714.8830004881	0.0262374356
3716.8118078612	0.0259022154
3718.7406152342	0.0260314345
3720.6694226073	0.0256763771
3722.5982299803	0.0249760710
3724.5270373534	0.0257031843
3726.4558447264	0.0241532363
3728.3846520995	0.0257503726
3730.3134594725	0.0254960377
3732.2422668456	0.0239671506
3734.1710742186	0.0235183407
3736.0998815916	0.0225422531
3738.0286889647	0.0235887468
3739.9574963377	0.0250830390
3741.8863037108	0.0261202827
3743.8151110838	0.0212002620
3745.7439184569	0.0202677734
3747.6727258299	0.0250001997
3749.6015332030	0.0220834799
3751.5303405760	0.0208185315
3753.4591479491	0.0231256243
3755.3879553221	0.0245490000
3757.3167626952	0.0253649019
3759.2455700682	0.0237448439
3761.1743774413	0.0244225450
3763.1031848143	0.0255633779
3765.0319921873	0.0242036227
3766.9607995604	0.0246548429
3768.8896069334	0.0244773421
3770.8184143065	0.0235130768
3772.7472216795	0.0249935817
3774.6760290526	0.0250938237
3776.6048364256	0.0250570402
3778.5336437987	0.0245367270
3780.4624511717	0.0236822106
3782.3912585448	0.0248946920
3784.3200659178	0.0244879648
3786.2488732909	0.0242979117
3788.1776806639	0.0247837510
3790.1064880370	0.0247018002
3792.0352954100	0.0244991556
3793.9641027830	0.0248466041
3795.8929101561	0.0236690044
3797.8217175291	0.0234311372
3799.7505249022	0.0244015642
3801.6793322752	0.0202399157
3803.6081396483	0.0228973702
3805.5369470213	0.0244926848
3807.4657543944	0.0208299644
3809.3945617674	0.0242643151
3811.3233691405	0.0238411315
3813.2521765135	0.0243998729
3815.1809838866	0.0225060321
3817.1097912596	0.0202860069
3819.0385986327	0.0244027041
3820.9674060057	0.0207247883
3822.8962133787	0.0214899220
3824.8250207518	0.0243561119
3826.7538281248	0.0225172415
3828.6826354979	0.0237475969
3830.6114428709	0.0230481662
3832.5402502440	0.0224272870
3834.4690576170	0.0227989219
3836.3978649901	0.0219144225
3838.3266723631	0.0201812200
3840.2554797362	0.0215295721
3842.1842871092	0.0228578374
3844.1130944823	0.0219144598
3846.0419018553	0.0233600587
3847.9707092284	0.0230672657
3849.8995166014	0.0231124423
3851.8283239745	0.0212786943
3853.7571313475	0.0168183520
3855.6859387205	0.0192244314
3857.6147460936	0.0231713094
3859.5435534666	0.0225439277
3861.4723608397	0.0223984402
3863.4011682127	0.0220275279
3865.3299755858	0.0208078586
3867.2587829588	0.0226175059
3869.1875903319	0.0209932160
3871.1163977049	0.0197902843
3873.0452050780	0.0225942880
3874.9740124510	0.0212207437
3876.9028198241	0.0224650726
3878.8316271971	0.0227692463
3880.7604345702	0.0201949365
3882.6892419432	0.0225048959
3884.6180493162	0.0213037245
3886.5468566893	0.0199586917
3888.4756640623	0.0226275455
3890.4044714354	0.0215880536
3892.3332788084	0.0205859467
3894.2620861815	0.0220240913
3896.1908935545	0.0222830288
3898.1197009276	0.0214814730
3900.0485083006	0.0205717161
3901.9773156737	0.0204283148
3903.9061230467	0.0202213395
3905.8349304198	0.0204905979
3907.7637377928	0.0218620114
3909.6925451659	0.0218714718
3911.6213525389	0.0217225365
3913.5501599119	0.0220029205
3915.4789672850	0.0214415751
3917.4077746580	0.0209525526
3919.3365820311	0.0209438838
3921.2653894041	0.0213828478
3923.1941967772	0.0213535018
3925.1230041502	0.0210256986
3927.0518115233	0.0211777724
3928.9806188963	0.0214137807
3930.9094262694	0.0210380591
3932.8382336424	0.0205975175
3934.7670410155	0.0211984310
3936.6958483885	0.0213597883
3938.6246557616	0.0211713724
3940.5534631346	0.0212283824
3942.4822705076	0.0206618048
3944.4110778807	0.0207262654
3946.3398852537	0.0210342668
3948.2686926268	0.0205947384
3950.1974999998	0.0205987487
3952.1263073729	0.0208494924
3954.0551147459	0.0208364837
3955.9839221190	0.0207679905
3957.9127294920	0.0207316503
3959.8415368651	0.0207525007
3961.7703442381	0.0205409769
3963.6991516112	0.0205541924
3965.6279589842	0.0206445195
3967.5567663573	0.0206170380
3969.4855737303	0.0206697322
3971.4143811034	0.0204550959
3973.3431884764	0.0204522237
3975.2719958494	0.0204128474
3977.2008032225	0.0203013308
3979.1296105955	0.0203547031
3981.0584179686	0.0202347711
3982.9872253416	0.0202569477
3984.9160327147	0.0202570930
3986.8448400877	0.0202022493
3988.7736474608	0.0200917870
3990.7024548338	0.0199542418
3992.6312622069	0.0199794918
3994.5600695799	0.0199905559
3996.4888769530	0.0199792869
3998.4176843260	0.0199409369
4000.3464916991	0.0198962223
4002.2752990721	0.0198997818
4004.2041064451	0.0198815465
4006.1329138182	0.0197508670
4008.0617211912	0.0197428148
4009.9905285643	0.0197024308
4011.9193359373	0.0196465589
4013.8481433104	0.0196671076
4015.7769506834	0.0195848010
4017.7057580565	0.0195708703
4019.6345654295	0.0194243081
4021.5633728026	0.0194447488
4023.4921801756	0.0194982886
4025.4209875487	0.0193852223
4027.3497949217	0.0193334818
4029.2786022948	0.0192481056
4031.2074096678	0.0193083864
4033.1362170408	0.0192381646
4035.0650244139	0.0191993900
4036.9938317869	0.0191281717
4038.9226391600	0.0190642122
4040.8514465330	0.0191793665
4042.7802539061	0.0190527570
4044.7090612791	0.0188879222
4046.6378686522	0.0188542381
4048.5666760252	0.0189575348
4050.4954833983	0.0188405272
4052.4242907713	0.0188134983
4054.3530981444	0.0189104024
4056.2819055174	0.0188201517
4058.2107128905	0.0188284069
4060.1395202635	0.0187101681
4062.0683276365	0.0187360793
4063.9971350096	0.0186897926
4065.9259423826	0.0186309908
4067.8547497557	0.0186185092
4069.7835571287	0.0184380710
4071.7123645018	0.0185018778
4073.6411718748	0.0184201375
4075.5699792479	0.0183552187
4077.4987866209	0.0183295794
4079.4275939940	0.0182794780
4081.3564013670	0.0183939692
4083.2852087401	0.0182900392
4085.2140161131	0.0181363635
4087.1428234862	0.0181470104
4089.0716308592	0.0181486905
4091.0004382323	0.0180591345
4092.9292456053	0.0180540048
4094.8580529783	0.0180243365
4096.7868603514	0.0179558583
4098.7156677244	0.0178859048
4100.6444750975	0.0178472362
4102.5732824705	0.0178998709
4104.5020898436	0.0178311449
4106.4308972166	0.0177516453
4108.3597045897	0.0176985785
4110.2885119627	0.0177647993
4112.2173193358	0.0177507736
4114.1461267088	0.0176249295
4116.0749340819	0.0176033340
4118.0037414549	0.0175445229
4119.9325488280	0.0175044723
4121.8613562010	0.0174996965
4123.7901635740	0.0175448544
4125.7189709471	0.0174446180
4127.6477783201	0.0174319819
4129.5765856932	0.0173751153
4131.5053930662	0.0171979461
4133.4342004393	0.0173080526
4135.3630078123	0.0172174238
4137.2918151854	0.0171409957
4139.2206225584	0.0171863250
4141.1494299315	0.0171198174
4143.0782373045	0.0171023980
4145.0070446776	0.0170654636
4146.9358520506	0.0169828050
4148.8646594237	0.0169350468
4150.7934667967	0.0169569403
4152.7222741697	0.0168814100
4154.6510815428	0.0168591794
4156.5798889158	0.0168469697
4158.5086962889	0.0169024672
4160.4375036619	0.0168396123
4162.3663110350	0.0166399069
4164.2951184080	0.0167367272
4166.2239257811	0.0167271495
4168.1527331541	0.0166927185
4170.0815405272	0.0166337900
4172.0103479002	0.0165383592
4173.9391552733	0.0165364482
4175.8679626463	0.0165248811
4177.7967700194	0.0164698325
4179.7255773924	0.0163248777
4181.6543847654	0.0164088644
4183.5831921385	0.0163464118
4185.5119995115	0.0162719991
4187.4408068846	0.0162953995
4189.3696142576	0.0161949135
4191.2984216307	0.0162723772
4193.2272290037	0.0162005834
4195.1560363768	0.0160905663
4197.0848437498	0.0160767473
4199.0136511229	0.0160467904
4200.9424584959	0.0160466637
4202.8712658690	0.0160034746
4204.8000732420	0.0159232728
4206.7288806151	0.0159573648
4208.6576879881	0.0159296952
4210.5864953611	0.0157761071
4212.5153027342	0.0158045031
4214.4441101072	0.0157056209
4216.3729174803	0.0157272499
4218.3017248533	0.0157785136
4220.2305322264	0.0156925954
4222.1593395994	0.0156881697
4224.0881469725	0.0155518558
4226.0169543455	0.0156031195
4227.9457617186	0.0155874770
4229.8745690916	0.0155386776
4231.8033764647	0.0155204535
4233.7321838377	0.0154276360
4235.6609912108	0.0154310018
4237.5897985838	0.0153933736
4239.5186059569	0.0154378843
4241.4474133299	0.0153276604
4243.3762207029	0.0152489077
4245.3050280760	0.0152267637
4247.2338354490	0.0152006522
4249.1626428221	0.0152146239
4251.0914501951	0.0151513796
4253.0202575682	0.0151796211
4254.9490649412	0.0150701394
4256.8778723143	0.0150661338
4258.8066796873	0.0150914239
4260.7354870604	0.0150485281
4262.6642944334	0.0150142368
4264.5931018065	0.0149404574
4266.5219091795	0.0149701871
4268.4507165526	0.0149175469
4270.3795239256	0.0148661947
4272.3083312986	0.0147905443
4274.2371386717	0.0147908833
4276.1659460447	0.0147033185
4278.0947534178	0.0146918818
4280.0235607908	0.0147730354
4281.9523681639	0.0146331266
4283.8811755369	0.0146840569
4285.8099829100	0.0146248117
4287.7387902830	0.0145864133
4289.6675976561	0.0145446733
4291.5964050291	0.0144600291
4293.5252124022	0.0144938491
4295.4540197752	0.0144270482
4297.3828271483	0.0144928535
4299.3116345213	0.0144333141
4301.2404418943	0.0143698985
4303.1692492674	0.0142851714
4305.0980566404	0.0142983217
4307.0268640135	0.0143486075
4308.9556713865	0.0141931307
4310.8844787596	0.0142200328
4312.8132861326	0.0141339628
4314.7420935057	0.0141538493
4316.6709008787	0.0141481869
4318.5997082518	0.0140743516
4320.5285156248	0.0141281467
4322.4573229979	0.0140305879
4324.3861303709	0.0139851253
4326.3149377440	0.0139112305
4328.2437451170	0.0139099490
4330.1725524900	0.0138796009
4332.1013598631	0.0138326585
4334.0301672361	0.0138101159
4335.9589746092	0.0137592461
4337.8877819822	0.0137777897
4339.8165893553	0.0137489624
4341.7453967283	0.0137983905
4343.6742041014	0.0137311444
4345.6030114744	0.0136689972
4347.5318188475	0.0136164445
4349.4606262205	0.0135653391
4351.3894335936	0.0135619082
4353.3182409666	0.0135127343
4355.2470483397	0.0135515071
4357.1758557127	0.0134221110
4359.1046630858	0.0134665919
4361.0334704588	0.0135156196
4362.9622778318	0.0134039847
4364.8910852049	0.0133832283
4366.8198925779	0.0132705104
4368.7486999510	0.0133042280
4370.6775073240	0.0132810259
4372.6063146971	0.0132412668
4374.5351220701	0.0132164899
4376.4639294432	0.0130964406
4378.3927368162	0.0131426081
4380.3215441893	0.0131588494
4382.2503515623	0.0130893299
4384.1791589354	0.0130767711
4386.1079663084	0.0131019186
4388.0367736815	0.0130355358
4389.9655810545	0.0129435211
4391.8943884275	0.0130004268
4393.8231958006	0.0130181964
4395.7520031736	0.0128267985
4397.6808105467	0.0127770230
4399.6096179197	0.0128117949
4401.5384252928	0.0127740223
4403.4672326658	0.0128307436
4405.3960400389	0.0127239209
4407.3248474119	0.0127024557
4409.2536547850	0.0127587840
4411.1824621580	0.0126960203
4413.1112695311	0.0126712937
4415.0400769041	0.0126090776
4416.9688842772	0.0125857722
4418.8976916502	0.0125125200
4420.8264990232	0.0124704558
4422.7553063963	0.0124515984
4424.6841137693	0.0124703553
4426.6129211424	0.0124329180
4428.5417285154	0.0123505741
4430.4705358885	0.0124495737
4432.3993432615	0.0123663452
4434.3281506346	0.0123137180
4436.2569580076	0.0123303030
4438.1857653807	0.0122512495
4440.1145727537	0.0122000230
4442.0433801268	0.0122122616
4443.9721874998	0.0122382697
4445.9009948729	0.0121337958
4447.8298022459	0.0121610351
4449.7586096189	0.0120801916
4451.6874169920	0.0120376125
4453.6162243650	0.0120673859
4455.5450317381	0.0119191874
4457.4738391111	0.0119935442
4459.4026464842	0.0119974893
4461.3314538572	0.0119286031
4463.2602612303	0.0118720662
4465.1890686033	0.0118471589
4467.1178759764	0.0118848439
4469.0466833494	0.0117776673
4470.9754907225	0.0117890416
4472.9042980955	0.0117908083
4474.8331054686	0.0117237912
4476.7619128416	0.0116988476
4478.6907202147	0.0116930325
4480.6195275877	0.0116720451
4482.5483349607	0.0115994886
4484.4771423338	0.0115970830
4486.4059497068	0.0115946233
4488.3347570799	0.0115938932
4490.2635644529	0.0115285823
4492.1923718260	0.0114500578
4494.1211791990	0.0114739519
4496.0499865721	0.0115186088
4497.9787939451	0.0114904493
4499.9076013182	0.0113733802
4501.8364086912	0.0113983499
4503.7652160643	0.0113761500
4505.6940234373	0.0112836137
4507.6228308104	0.0113449991
4509.5516381834	0.0113015389
4511.4804455564	0.0112546142
4513.4092529295	0.0112592168
4515.3380603025	0.0111789461
4517.2668676756	0.0111406930
4519.1956750486	0.0110890381
4521.1244824217	0.0111109158
4523.0532897947	0.0111243548
4524.9820971678	0.0109859882
4526.9109045408	0.0109967832
4528.8397119139	0.0110096186
4530.7685192869	0.0109492345
4532.6973266600	0.0109763518
4534.6261340330	0.0109109916
4536.5549414061	0.0108947009
4538.4837487791	0.0109278858
4540.4125561521	0.0108845206
4542.3413635252	0.0108636571
4544.2701708982	0.0107486490
4546.1989782713	0.0107404180
4548.1277856443	0.0108250752
4550.0565930174	0.0107151074
4551.9854003904	0.0106763002
4553.9142077635	0.0106726168
4555.8430151365	0.0106383767
4557.7718225096	0.0106291994
4559.7006298826	0.0105839772
4561.6294372557	0.0106182005
4563.5582446287	0.0105448775
4565.4870520018	0.0104835462
4567.4158593748	0.0105065219
4569.3446667478	0.0104335360
4571.2734741209	0.0104966704
4573.2022814939	0.0105803506
4575.1310888670	0.0104750926
4577.0598962400	0.0103609916
4578.9887036131	0.0103192115
4580.9175109861	0.0102818962
4582.8463183592	0.0103467302
4584.7751257322	0.0103323022
4586.7039331053	0.0101724323
4588.6327404783	0.0101492768
4590.5615478514	0.0101748053
4592.4903552244	0.0102036223
4594.4191625975	0.0101886196
4596.3479699705	0.0101583842
4598.2767773435	0.0101138577
4600.2055847166	0.0100901881
4602.1343920896	0.0100835152
4604.0631994627	0.0100110909
4605.9920068357	0.0100624533
4607.9208142088	0.0099751381
4609.8496215818	0.0099397078
4611.7784289549	0.0100018159
4613.7072363279	0.0098994803
4615.6360437010	0.0099083073
4617.5648510740	0.0098885428
4619.4936584471	0.0098651480
4621.4224658201	0.0098287174
4623.3512731932	0.0098260809
4625.2800805662	0.0097907186
4627.2088879393	0.0097049158
4629.1376953123	0.0097694434
4631.0665026853	0.0097081810
4632.9953100584	0.0096713407
4634.9241174314	0.0096115340
4636.8529248045	0.0096087065
4638.7817321775	0.0096686538
4640.7105395506	0.0095700994
4642.6393469236	0.0096322950
4644.5681542967	0.0095959846
4646.4969616697	0.0094777225
4648.4257690428	0.0095189903
4650.3545764158	0.0094999317
4652.2833837889	0.0094269058
4654.2121911619	0.0094627682
4656.1409985350	0.0094498023
4658.0698059080	0.0093672983
4659.9986132810	0.0094245337
4661.9274206541	0.0093745850
4663.8562280271	0.0093619935
4665.7850354002	0.0094104148
4667.7138427732	0.0093031069
4669.6426501463	0.0092986338
4671.5714575193	0.0093165990
4673.5002648924	0.0092400908
4675.4290722654	0.0092508215
4677.3578796385	0.0092199706
4679.2866870115	0.0090859011
4681.2154943846	0.0091733653
4683.1443017576	0.0091961017
4685.0731091307	0.0090524778
4687.0019165037	0.0090502296
4688.9307238767	0.0090612574
4690.8595312498	0.0090818983
4692.7883386228	0.0090477448
4694.7171459959	0.0089740008
4696.6459533689	0.0089723375
4698.5747607420	0.0089907013
4700.5035681150	0.0089494633
4702.4323754881	0.0089427102
4704.3611828611	0.0089552430
4706.2899902342	0.0088967904
4708.2187976072	0.0088685118
4710.1476049803	0.0088132359
4712.0764123533	0.0088250451
4714.0052197264	0.0088367192
4715.9340270994	0.0088199824
4717.8628344724	0.0086864270
4719.7916418455	0.0086567197
4721.7204492185	0.0088350233
4723.6492565916	0.0086912941
4725.5780639646	0.0087276436
4727.5068713377	0.0087580848
4729.4356787107	0.0086555146
4731.3644860838	0.0087187216
4733.2932934568	0.0085772239
4735.2221008299	0.0085834777
4737.1509082029	0.0085773272
4739.0797155760	0.0085250922
4741.0085229490	0.0084906621
4742.9373303221	0.0084768422
4744.8661376951	0.0085490895
4746.7949450682	0.0084742242
4748.7237524412	0.0085254386
4750.6525598142	0.0084354542
4752.5813671873	0.0083930409
4754.5101745603	0.0084819477
4756.4389819334	0.0083364602
4758.3677893064	0.0083027920
4760.2965966795	0.0083428370
4762.2254040525	0.0083381906
4764.1542114256	0.0083229505
4766.0830187986	0.0082918424
4768.0118261717	0.0082148500
4769.9406335447	0.0082205702
4771.8694409178	0.0082535185
4773.7982482908	0.0082145501
4775.7270556639	0.0081777088
4777.6558630369	0.0081661483
4779.5846704099	0.0081777228
4781.5134777830	0.0080490485
4783.4422851560	0.0081240162
4785.3710925291	0.0081572291
4787.2998999021	0.0080431290
4789.2287072752	0.0081190160
4791.1575146482	0.0080427825
4793.0863220213	0.0079942038
4795.0151293943	0.0079935119
4796.9439367674	0.0080154510
4798.8727441404	0.0079815611
4800.8015515135	0.0078764036
4802.7303588865	0.0078970818
4804.6591662596	0.0078581357
4806.5879736326	0.0078779599
4808.5167810056	0.0078424104
4810.4455883787	0.0078332452
4812.3743957517	0.0078302445
4814.3032031248	0.0077723404
4816.2320104978	0.0078627430
4818.1608178709	0.0078224950
4820.0896252439	0.0077808984
4822.0184326170	0.0077554723
4823.9472399900	0.0077373618
4825.8760473631	0.0077375406
4827.8048547361	0.0076199770
4829.7336621092	0.0076409099
4831.6624694822	0.0076356577
4833.5912768553	0.0076351129
4835.5200842283	0.0077138375
4837.4488916013	0.0075907903
4839.3776989744	0.0075463755
4841.3065063474	0.0075945156
4843.2353137205	0.0075521329
4845.1641210935	0.0075444272
4847.0929284666	0.0074913520
4849.0217358396	0.0074816262
4850.9505432127	0.0075121820
4852.8793505857	0.0074892072
4854.8081579588	0.0074532046
4856.7369653318	0.0073895901
4858.6657727049	0.0074036070
4860.5945800779	0.0074052336
4862.5233874510	0.0073416149
4864.4521948240	0.0073141097
4866.3810021971	0.0073557757
4868.3098095701	0.0073145987
4870.2386169431	0.0072617708
4872.1674243162	0.0072685773
4874.0962316892	0.0071748113
4876.0250390623	0.0072484817
4877.9538464353	0.0072486494
4879.8826538084	0.0071794842
4881.8114611814	0.0072199502
4883.7402685545	0.0071710558
4885.6690759275	0.0071739368
4887.5978833006	0.0070602391
4889.5266906736	0.0071047442
4891.4554980467	0.0071490025
4893.3843054197	0.0070539648
4895.3131127928	0.0071392488
4897.2419201658	0.0070389952
4899.1707275388	0.0069744368
4901.0995349119	0.0069708568
4903.0283422849	0.0070015057
4904.9571496580	0.0070396988
4906.8859570310	0.0069020232
4908.8147644041	0.0069741276
4910.7435717771	0.0069905710
4912.6723791502	0.0068419371
4914.6011865232	0.0068683093
4916.5299938963	0.0068556340
4918.4588012693	0.0067796735
4920.3876086424	0.0068505993
4922.3164160154	0.0068408949
4924.2452233885	0.0067817825
4926.1740307615	0.0067802966
4928.1028381345	0.0067562759
4930.0316455076	0.0068057170
4931.9604528806	0.0067435112
4933.8892602537	0.0067099165
4935.8180676267	0.0067262109
4937.7468749998	0.0067132851
4939.6756823728	0.0067147054
4941.6044897459	0.0066382224
4943.5332971189	0.0067043668
4945.4621044920	0.0066307266
4947.3909118650	0.0065351930
4949.3197192381	0.0066144243
4951.2485266111	0.0065330211
4953.1773339842	0.0065335878
4955.1061413572	0.0065670982
4957.0349487302	0.0064772768
4958.9637561033	0.0064980267
4960.8925634763	0.0065381480
4962.8213708494	0.0064298413
4964.7501782224	0.0064161196
4966.6789855955	0.0064249039
4968.6077929685	0.0063596722
4970.5366003416	0.0064181332
4972.4654077146	0.0064353305
4974.3942150877	0.0064075864
4976.3230224607	0.0063812006
4978.2518298338	0.0063482788
4980.1806372068	0.0063263522
4982.1094445799	0.0063131209
4984.0382519529	0.0062856562
4985.9670593259	0.0062455824
4987.8958666990	0.0062708315
4989.8246740720	0.0062190206
4991.7534814451	0.0062536551
4993.6822888181	0.0062611112
4995.6110961912	0.0061690137
4997.5399035642	0.0061867130
4999.4687109373	0.0060896450
5001.3975183103	0.0061278706
5003.3263256834	0.0062064026
5005.2551330564	0.0061193304
5007.1839404295	0.0061233840
5009.1127478025	0.0060981214
5011.0415551756	0.0060892012
5012.9703625486	0.0061085559
5014.8991699217	0.0061010066
5016.8279772947	0.0060479799
5018.7567846677	0.0059793349
5020.6855920408	0.0060130619
5022.6143994138	0.0059757931
5024.5432067869	0.0059436299
5026.4720141599	0.0059443796
5028.4008215330	0.0059575900
5030.3296289060	0.0060406141
5032.2584362791	0.0059457645
5034.1872436521	0.0058994158
5036.1160510252	0.0059175650
5038.0448583982	0.0058374256
5039.9736657713	0.0058609704
5041.9024731443	0.0058286171
5043.8312805174	0.0058292691
5045.7600878904	0.0058906153
5047.6888952634	0.0058275331
5049.6177026365	0.0057457453
5051.5465100095	0.0057527283
5053.4753173826	0.0058047329
5055.4041247556	0.0057769334
5057.3329321287	0.0057607838
5059.2617395017	0.0057530152
5061.1905468748	0.0058038631
5063.1193542478	0.0057709604
5065.0481616209	0.0056018010
5066.9769689939	0.0056212158
5068.9057763670	0.0056460504
5070.8345837400	0.0056581097
5072.7633911131	0.0056553232
5074.6921984861	0.0055590477
5076.6210058591	0.0055655953
5078.5498132322	0.0056120646
5080.4786206052	0.0055598477
5082.4074279783	0.0055027427
5084.3362353513	0.0055262791
5086.2650427244	0.0054880786
5088.1938500974	0.0055314191
5090.1226574705	0.0055747139
5092.0514648435	0.0054741856
5093.9802722166	0.0054793581
5095.9090795896	0.0054925680
5097.8378869627	0.0054219533
5099.7666943357	0.0054021995
5101.6955017088	0.0054621533
5103.6243090818	0.0054318290
5105.5531164548	0.0054044379
5107.4819238279	0.0053914743
5109.4107312009	0.0053646006
5111.3395385740	0.0054621529
5113.2683459470	0.0054280385
5115.1971533201	0.0052942783
5117.1259606931	0.0052448781
5119.0547680662	0.0053052870
5120.9835754392	0.0052835671
5122.9123828123	0.0052097007
5124.8411901853	0.0052240249
5126.7699975584	0.0051867370
5128.6988049314	0.0052025849
5130.6276123045	0.0050962651
5132.5564196775	0.0051136231
5134.4852270506	0.0052355211
5136.4140344236	0.0051641474
5138.3428417966	0.0052097002
5140.2716491697	0.0052056485
5142.2004565427	0.0051952777
5144.1292639158	0.0051094303
5146.0580712888	0.0050089140
5147.9868786619	0.0051277741
5149.9156860349	0.0051390938
5151.8444934080	0.0050766757
5153.7733007810	0.0050444519
5155.7021081541	0.0050731786
5157.6309155271	0.0050167856
5159.5597229002	0.0049107447
5161.4885302732	0.0049910848
5163.4173376463	0.0049531683
5165.3461450193	0.0048947828
5167.2749523923	0.0050131953
5169.2037597654	0.0048986459
5171.1325671384	0.0048487461
5173.0613745115	0.0050222925
5174.9901818845	0.0049097887
5176.9189892576	0.0049050893
5178.8477966306	0.0049546259
5180.7766040037	0.0048683761
5182.7054113767	0.0049348120
5184.6342187498	0.0048317555
5186.5630261228	0.0047682938
5188.4918334959	0.0048213247
5190.4206408689	0.0047928942
5192.3494482420	0.0048706522
5194.2782556150	0.0048144734
5196.2070629880	0.0047254730
5198.1358703611	0.0048674867
5200.0646777341	0.0047941105
5201.9934851072	0.0047103190
5203.9222924802	0.0048284791
5205.8510998533	0.0046427008
5207.7799072263	0.0045828875
5209.7087145994	0.0047063422
5211.6375219724	0.0047306046
5213.5663293455	0.0047651865
5215.4951367185	0.0046637533
5217.4239440916	0.0046503497
5219.3527514646	0.0046236096
5221.2815588377	0.0046381773
5223.2103662107	0.0046544457
5225.1391735837	0.0045175087
5227.0679809568	0.0046244441
5228.9967883298	0.0046826848
5230.9255957029	0.0046133148
5232.8544030759	0.0046227891
5234.7832104490	0.0045866868
5236.7120178220	0.0045386478
5238.6408251951	0.0044874996
5240.5696325681	0.0045269588
5242.4984399412	0.0045544188
5244.4272473142	0.0044455584
5246.3560546873	0.0044468511
5248.2848620603	0.0043803495
5250.2136694334	0.0043680295
5252.1424768064	0.0046133646
5254.0712841795	0.0044654515
5256.0000915525	0.0043660202
5257.9288989255	0.0044985581
5259.8577062986	0.0043953462
5261.7865136716	0.0043979567
5263.7153210447	0.0043390212
5265.6441284177	0.0043216664
5267.5729357908	0.0044019064
5269.5017431638	0.0043752566
5271.4305505369	0.0043787691
5273.3593579099	0.0044066599
5275.2881652830	0.0043746582
5277.2169726560	0.0043239193
5279.1457800291	0.0044175843
5281.0745874021	0.0043638907
5283.0033947752	0.0042992015
5284.9322021482	0.0042951526
5286.8610095212	0.0042806063
5288.7898168943	0.0043048076
5290.7186242673	0.0041967789
5292.6474316404	0.0042807208
5294.5762390134	0.0042921426
5296.5050463865	0.0042086467
5298.4338537595	0.0042376225
5300.3626611326	0.0042305617
5302.2914685056	0.0042352127
5304.2202758787	0.0042238943
5306.1490832517	0.0041948152
5308.0778906248	0.0040568342
5310.0066979978	0.0041433377
5311.9355053709	0.0041902931
5313.8643127439	0.0041318573
5315.7931201169	0.0041756798
5317.7219274900	0.0040804176
5319.6507348630	0.0041425764
5321.5795422361	0.0041201310
5323.5083496091	0.0041084583
5325.4371569822	0.0041176518
5327.3659643552	0.0039695082
5329.2947717283	0.0039823656
5331.2235791013	0.0040256400
5333.1523864744	0.0039746799
5335.0811938474	0.0039642230
5337.0100012205	0.0040506930
5338.9388085935	0.0038863814
5340.8676159666	0.0039320695
5342.7964233396	0.0040243175
5344.7252307126	0.0038517695
5346.6540380857	0.0039469427
5348.5828454587	0.0039196908
5350.5116528318	0.0039879610
5352.4404602048	0.0039575533
5354.3692675779	0.0038505811
5356.2980749509	0.0039398009
5358.2268823240	0.0038635209
5360.1556896970	0.0039083725
5362.0844970701	0.0038050974
5364.0133044431	0.0038365358
5365.9421118162	0.0039135534
5367.8709191892	0.0038135662
5369.7997265623	0.0039087716
5371.7285339353	0.0038180104
5373.6573413083	0.0037932156
5375.5861486814	0.0038050031
5377.5149560544	0.0037275590
5379.4437634275	0.0037791547
5381.3725708005	0.0038328944
5383.3013781736	0.0038240666
5385.2301855466	0.0037577772
5387.1589929197	0.0037832689
5389.0878002927	0.0037955602
5391.0166076658	0.0037394029
5392.9454150388	0.0036665341
5394.8742224119	0.0036729660
5396.8030297849	0.0037002396
5398.7318371580	0.0036443910
5400.6606445310	0.0036947620
5402.5894519041	0.0036974354
5404.5182592771	0.0036379490
5406.4470666501	0.0036527724
5408.3758740232	0.0036627082
5410.3046813962	0.0036435630
5412.2334887693	0.0035553272
5414.1622961423	0.0035302630
5416.0911035154	0.0036468171
5418.0199108884	0.0036552963
5419.9487182615	0.0036035539
5421.8775256345	0.0036275163
5423.8063330076	0.0035701855
5425.7351403806	0.0035675666
5427.6639477537	0.0035824126
5429.5927551267	0.0034927013
5431.5215624998	0.0035862485
5433.4503698728	0.0036405432
5435.3791772458	0.0034696963
5437.3079846189	0.0035351755
5439.2367919919	0.0035689939
5441.1655993650	0.0034139224
5443.0944067380	0.0034856100
5445.0232141111	0.0034395382
5446.9520214841	0.0033935755
5448.8808288572	0.0034378944
5450.8096362302	0.0033939872
5452.7384436033	0.0035166731
5454.6672509763	0.0034414320
5456.5960583494	0.0033917730
5458.5248657224	0.0034942282
5460.4536730955	0.0033374205
5462.3824804685	0.0033427463
5464.3112878415	0.0034362930
5466.2400952146	0.0033540106
5468.1689025876	0.0033395961
5470.0977099607	0.0033581685
5472.0265173337	0.0034162039
5473.9553247068	0.0033949940
5475.8841320798	0.0032429211
5477.8129394529	0.0033293618
5479.7417468259	0.0033781729
5481.6705541990	0.0033076301
5483.5993615720	0.0033200579
5485.5281689451	0.0032661869
5487.4569763181	0.0032843431
5489.3857836912	0.0032519810
5491.3145910642	0.0033058729
5493.2433984372	0.0033078115
5495.1722058103	0.0031978777
5497.1010131833	0.0033204427
5499.0298205564	0.0032554865
5500.9586279294	0.0031911256
5502.8874353025	0.0031818068
5504.8162426755	0.0032012458
5506.7450500486	0.0033027236
5508.6738574216	0.0032060323
5510.6026647947	0.0032269622
5512.5314721677	0.0032123844
5514.4602795408	0.0032340693
5516.3890869138	0.0032563391
5518.3178942869	0.0031192661
5520.2467016599	0.0031337142
5522.1755090330	0.0030875469
5524.1043164060	0.0031409734
5526.0331237790	0.0031276527
5527.9619311521	0.0030147524
5529.8907385251	0.0031395950
5531.8195458982	0.0031253332
5533.7483532712	0.0031217858
5535.6771606443	0.0031138158
5537.6059680173	0.0030137994
5539.5347753904	0.0030959758
5541.4635827634	0.0030932045
5543.3923901365	0.0030488053
5545.3211975095	0.0030396436
5547.2500048826	0.0030086506
5549.1788122556	0.0030462567
5551.1076196287	0.0030064078
5553.0364270017	0.0030123463
5554.9652343747	0.0030336441
5556.8940417478	0.0029853254
5558.8228491208	0.0029843529
5560.7516564939	0.0029958838
5562.6804638669	0.0030491371
5564.6092712400	0.0029966240
5566.5380786130	0.0029936992
5568.4668859861	0.0030391030
5570.3956933591	0.0029385933
5572.3245007322	0.0029806595
5574.2533081052	0.0030046050
5576.1821154783	0.0029380117
5578.1109228513	0.0029006130
5580.0397302244	0.0028859875
5581.9685375974	0.0029487507
5583.8973449704	0.0028838736
5585.8261523435	0.0028965510
5587.7549597165	0.0029795687
5589.6837670896	0.0028632986
5591.6125744626	0.0028637871
5593.5413818357	0.0028913293
5595.4701892087	0.0028761537
5597.3989965818	0.0029308875
5599.3278039548	0.0028668337
5601.2566113279	0.0028385227
5603.1854187009	0.0027896508
5605.1142260740	0.0027625789
5607.0430334470	0.0028315908
5608.9718408201	0.0027770114
5610.9006481931	0.0028249132
5612.8294555661	0.0028481078
5614.7582629392	0.0027844580
5616.6870703122	0.0027572876
5618.6158776853	0.0026730108
5620.5446850583	0.0027282191
5622.4734924314	0.0028029159
5624.4022998044	0.0027385657
5626.3311071775	0.0026844756
5628.2599145505	0.0027700779
5630.1887219236	0.0028132144
5632.1175292966	0.0026767128
5634.0463366697	0.0026360131
5635.9751440427	0.0027167655
5637.9039514158	0.0027454311
5639.8327587888	0.0027335915
5641.7615661619	0.0027145827
5643.6903735349	0.0026473617
5645.6191809079	0.0026761303
5647.5479882810	0.0027083631
5649.4767956540	0.0026451014
5651.4056030271	0.0026254081
5653.3344104001	0.0025983255
5655.2632177732	0.0026123649
5657.1920251462	0.0025911424
5659.1208325193	0.0026480146
5661.0496398923	0.0026900226
5662.9784472654	0.0026033549
5664.9072546384	0.0026407370
5666.8360620115	0.0026104464
5668.7648693845	0.0025693930
5670.6936767576	0.0025656512
5672.6224841306	0.0026222095
5674.5512915036	0.0026569269
5676.4800988767	0.0025550653
5678.4089062497	0.0025735118
5680.3377136228	0.0025694480
5682.2665209958	0.0025564684
5684.1953283689	0.0025361697
5686.1241357419	0.0025392771
5688.0529431150	0.0025200425
5689.9817504880	0.0024534650
5691.9105578611	0.0025618777
5693.8393652341	0.0024736640
5695.7681726072	0.0024407133
5697.6969799802	0.0025391064
5699.6257873533	0.0024285840
5701.5545947263	0.0024581342
5703.4834020993	0.0024827216
5705.4122094724	0.0024375403
5707.3410168454	0.0024494445
5709.2698242185	0.0024015973
5711.1986315915	0.0023892119
5713.1274389646	0.0024217055
5715.0562463376	0.0024492189
5716.9850537107	0.0024233945
5718.9138610837	0.0024049748
5720.8426684568	0.0024659832
5722.7714758298	0.0024366705
5724.7002832029	0.0023470339
5726.6290905759	0.0023532340
5728.5578979490	0.0024123413
5730.4867053220	0.0023946646
5732.4155126950	0.0023435904
5734.3443200681	0.0023840251
5736.2731274411	0.0023691738
5738.2019348142	0.0023299861
5740.1307421872	0.0023245956
5742.0595495603	0.0023504123
5743.9883569333	0.0023657952
5745.9171643064	0.0022442809
5747.8459716794	0.0022605644
5749.7747790525	0.0022843974
5751.7035864255	0.0022418061
5753.6323937986	0.0023129638
5755.5612011716	0.0023318515
5757.4900085447	0.0023061270
5759.4188159177	0.0022565019
5761.3476232907	0.0023002054
5763.2764306638	0.0023271982
5765.2052380368	0.0023452332
5767.1340454099	0.0023467597
5769.0628527829	0.0022093793
5770.9916601560	0.0022646186
5772.9204675290	0.0022841294
5774.8492749021	0.0021999530
5776.7780822751	0.0022301199
5778.7068896482	0.0022452008
5780.6356970212	0.0022315716
5782.5645043943	0.0022155780
5784.4933117673	0.0022211007
5786.4221191404	0.0021822294
5788.3509265134	0.0021625308
5790.2797338865	0.0021542693
5792.2085412595	0.0021660323
5794.1373486325	0.0022023439
5796.0661560056	0.0021417839
5797.9949633786	0.0021224369
5799.9237707517	0.0021769349
5801.8525781247	0.0021676845
5803.7813854978	0.0021146701
5805.7101928708	0.0021440573
5807.6390002439	0.0021472257
5809.5678076169	0.0020842277
5811.4966149900	0.0020896392
5813.4254223630	0.0021272011
5815.3542297361	0.0020743113
5817.2830371091	0.0020511809
5819.2118444822	0.0021361671
5821.1406518552	0.0020780112
5823.0694592282	0.0020812403
5824.9982666013	0.0021179961
5826.9270739743	0.0020436631
5828.8558813474	0.0020631920
5830.7846887204	0.0020717666
5832.7134960935	0.0020756251
5834.6423034665	0.0020466442
5836.5711108396	0.0020640539
5838.4999182126	0.0020279703
5840.4287255857	0.0019036572
5842.3575329587	0.0019762232
5844.2863403318	0.0020562988
5846.2151477048	0.0020195665
5848.1439550779	0.0019773641
5850.0727624509	0.0020323372
5852.0015698239	0.0020122151
5853.9303771970	0.0020002392
5855.8591845700	0.0020785108
5857.7879919431	0.0019752248
5859.7167993161	0.0019164160
5861.6456066892	0.0019691265
5863.5744140622	0.0019895686
5865.5032214353	0.0019499448
5867.4320288083	0.0019512442
5869.3608361814	0.0019802754
5871.2896435544	0.0019337768
5873.2184509275	0.0019360096
5875.1472583005	0.0019040589
5877.0760656736	0.0018728254
5879.0048730466	0.0019230933
5880.9336804196	0.0019308124
5882.8624877927	0.0018490305
5884.7912951657	0.0018296884
5886.7201025388	0.0018572257
5888.6489099118	0.0018642759
5890.5777172849	0.0018724087
5892.5065246579	0.0018257680
5894.4353320310	0.0018629383
5896.3641394040	0.0018455544
5898.2929467771	0.0018463219
5900.2217541501	0.0018780944
5902.1505615232	0.0018078061
5904.0793688962	0.0018522348
5906.0081762693	0.0018455903
5907.9369836423	0.0018472944
5909.8657910154	0.0018371781
5911.7945983884	0.0018035860
5913.7234057614	0.0018523434
5915.6522131345	0.0018189900
5917.5810205075	0.0018656271
5919.5098278806	0.0018889990
5921.4386352536	0.0017912893
5923.3674426267	0.0017656664
5925.2962499997	0.0017753311
5927.2250573728	0.0017923295
5929.1538647458	0.0018219717
5931.0826721189	0.0017750737
5933.0114794919	0.0018158626
5934.9402868650	0.0018172767
5936.8690942380	0.0017080429
5938.7979016111	0.0017699921
5940.7267089841	0.0017014055
5942.6555163571	0.0017423437
5944.5843237302	0.0018047142
5946.5131311032	0.0016766344
5948.4419384763	0.0017624865
5950.3707458493	0.0017269449
5952.2995532224	0.0017033766
5954.2283605954	0.0017245185
5956.1571679685	0.0017146819
5958.0859753415	0.0017244902
5960.0147827146	0.0016570967
5961.9435900876	0.0017246332
5963.8723974607	0.0016698681
5965.8012048337	0.0016700958
5967.7300122068	0.0017425104
5969.6588195798	0.0016631209
5971.5876269528	0.0016607556
5973.5164343259	0.0016770461
5975.4452416989	0.0016756211
5977.3740490720	0.0016686691
5979.3028564450	0.0016506575
5981.2316638181	0.0015976313
5983.1604711911	0.0016164579
5985.0892785642	0.0016760472
5987.0180859372	0.0016868166
5988.9468933103	0.0016309695
5990.8757006833	0.0016206612
5992.8045080564	0.0016720579
5994.7333154294	0.0015716075
5996.6621228025	0.0016147227
5998.5909301755	0.0016319675
6000.5197375485	0.0015955168
