399.2631262207	0.0005115679
401.1919335938	0.0001596342
403.1207409668	0.0003950612
405.0495483398	-0.0000841892
406.9783557129	0.0007419032
408.9071630859	0.0006415496
410.8359704590	0.0005257282
412.7647778320	0.0005402162
414.6935852051	0.0001313936
416.6223925781	0.0004347251
418.5511999512	-0.0000877685
420.4800073242	0.0005371788
422.4088146973	0.0002697121
424.3376220703	0.0000922690
426.2664294434	0.0005181519
428.1952368164	0.0001627345
430.1240441895	0.0006011790
432.0528515625	0.0003100411
433.9816589355	0.0006994701
435.9104663086	0.0004242491
437.8392736816	0.0006132128
439.7680810547	0.0011072533
441.6968884277	0.0001107895
443.6256958008	0.0004636336
445.5545031738	0.0005464132
447.4833105469	0.0009839550
449.4121179199	0.0005769136
451.3409252930	0.0001390192
453.2697326660	0.0005411570
455.1985400391	-0.0000583266
457.1273474121	0.0006576218
459.0561547852	0.0003809881
460.9849621582	0.0001901179
462.9137695313	0.0004934378
464.8425769043	0.0000573626
466.7713842773	0.0003327444
468.7001916504	0.0001555755
470.6289990234	0.0003914761
472.5578063965	0.0001087762
474.4866137695	-0.0000700373
476.4154211426	0.0002449683
478.3442285156	-0.0000081009
480.2730358887	0.0001899130
482.2018432617	0.0003907120
484.1306506348	0.0005431619
486.0594580078	0.0002540898
487.9882653809	0.0002737015
489.9170727539	0.0001161975
491.8458801270	-0.0002523066
493.7746875000	-0.0000558928
495.7034948730	-0.0000723394
497.6323022461	0.0001819508
499.5611096191	0.0001529548
501.4899169922	0.0001384706
503.4187243652	0.0003066701
505.3475317383	0.0003593173
507.2763391113	0.0003342667
509.2051464844	0.0001138747
511.1339538574	0.0000627103
513.0627612305	-0.0001726777
514.9915686035	-0.0001024057
516.9203759766	0.0000416071
518.8491833496	-0.0001137216
520.7779907227	0.0002127732
522.7067980957	0.0002776336
524.6356054688	0.0000320248
526.5644128418	0.0001663137
528.4932202148	0.0002324799
530.4220275879	0.0002558683
532.3508349609	0.0001763702
534.2796423340	0.0000326006
536.2084497070	0.0001450975
538.1372570801	0.0003342401
540.0660644531	0.0003344588
541.9948718262	0.0000061680
543.9236791992	0.0001805296
545.8524865723	0.0003737934
547.7812939453	0.0001809498
549.7101013184	0.0002254495
551.6389086914	0.0000171710
553.5677160645	-0.0000736254
555.4965234375	0.0001364790
557.4253308105	0.0001133644
559.3541381836	0.0001977947
561.2829455566	0.0002399125
563.2117529297	-0.0001278044
565.1405603027	-0.0001210684
567.0693676758	0.0001757816
568.9981750488	-0.0002357764
570.9269824219	-0.0000636790
572.8557897949	0.0002981290
574.7845971680	0.0003125243
576.7134045410	0.0003655618
578.6422119141	0.0002288503
580.5710192871	0.0001691564
582.4998266602	-0.0000405856
584.4286340332	0.0001963531
586.3574414063	0.0001903098
588.2862487793	0.0002158337
590.2150561523	0.0002486803
592.1438635254	-0.0000432432
594.0726708984	-0.0000103255
596.0014782715	-0.0000974198
597.9302856445	0.0001890535
599.8590930176	0.0001107682
601.7879003906	-0.0001863139
603.7167077637	-0.0000186430
605.6455151367	-0.0000318493
607.5743225098	0.0000794000
609.5031298828	0.0002721385
611.4319372559	0.0003823686
613.3607446289	0.0001866144
615.2895520020	0.0000648416
617.2183593750	0.0000488958
619.1471667480	-0.0000031494
621.0759741211	0.0000855455
623.0047814941	0.0001813240
624.9335888672	0.0004312897
626.8623962402	0.0001479352
628.7912036133	-0.0000664298
630.7200109863	0.0000717330
632.6488183594	-0.0000316785
634.5776257324	0.0002272875
636.5064331055	0.0005696177
638.4352404785	0.0006392117
640.3640478516	0.0004683175
642.2928552246	0.0006377128
644.2216625977	0.0007534077
646.1504699707	0.0005002306
648.0792773438	0.0008206109
650.0080847168	0.0009472599
651.9368920898	0.0005842672
653.8656994629	0.0008677630
655.7945068359	0.0007695111
657.7233142090	0.0004925344
659.6521215820	0.0010829673
661.5809289551	0.0010044801
663.5097363281	0.0011722369
665.4385437012	0.0014112873
667.3673510742	0.0008492792
669.2961584473	0.0010201877
671.2249658203	0.0011335495
673.1537731934	0.0015548831
675.0825805664	0.0017134158
677.0113879395	0.0012610618
678.9401953125	0.0015512898
680.8690026855	0.0011455745
682.7978100586	0.0009643807
684.7266174316	0.0013433364
686.6554248047	0.0010800094
688.5842321777	0.0011819826
690.5130395508	0.0014498271
692.4418469238	0.0015676836
694.3706542969	0.0015708201
696.2994616699	0.0014405696
698.2282690430	0.0018985010
700.1570764160	0.0024153451
702.0858837891	0.0021198487
704.0146911621	0.0018252963
705.9434985352	0.0018575939
707.8723059082	0.0016863095
709.8011132813	0.0013766247
711.7299206543	0.0010421508
713.6587280273	0.0006878360
715.5875354004	0.0005365254
717.5163427734	0.0005038498
719.4451501465	0.0002743116
721.3739575195	0.0002710662
723.3027648926	0.0001370365
725.2315722656	-0.0000147371
727.1603796387	0.0002063402
729.0891870117	-0.0000459462
731.0179943848	0.0000319113
732.9468017578	0.0002305407
734.8756091309	0.0001686869
736.8044165039	0.0000707626
738.7332238770	0.0001612308
740.6620312500	0.0005202247
742.5908386230	-0.0000141971
744.5196459961	0.0000665455
746.4484533691	0.0004627305
748.3772607422	0.0001914281
750.3060681152	0.0002888397
752.2348754883	0.0004599660
754.1636828613	0.0002120898
756.0924902344	0.0000219163
758.0212976074	0.0002392537
759.9501049805	0.0001623474
761.8789123535	0.0001917082
763.8077197266	0.0002901121
765.7365270996	0.0002381790
767.6653344727	0.0003607609
769.5941418457	0.0003016651
771.5229492188	0.0005693531
773.4517565918	0.0006210741
775.3805639648	0.0001764330
777.3093713379	0.0001479492
779.2381787109	0.0000291917
781.1669860840	0.0002397163
783.0957934570	0.0004425168
785.0246008301	0.0001449565
786.9534082031	0.0003570551
788.8822155762	0.0003129116
790.8110229492	0.0000693577
792.7398303223	0.0001468257
794.6686376953	0.0001530259
796.5974450684	0.0003392401
798.5262524414	0.0002590985
800.4550598145	0.0003906363
802.3838671875	0.0005223357
804.3126745605	0.0000503463
806.2414819336	0.0000497515
808.1702893066	0.0002327591
810.0990966797	0.0004485256
812.0279040527	0.0005400781
813.9567114258	0.0003523153
815.8855187988	0.0002297922
817.8143261719	0.0000520837
819.7431335449	0.0002883888
821.6719409180	0.0001472000
823.6007482910	0.0001506079
825.5295556641	0.0005086290
827.4583630371	0.0003485632
829.3871704102	0.0007136468
831.3159777832	0.0005965687
833.2447851563	0.0003884226
835.1735925293	0.0008771769
837.1023999023	0.0006426986
839.0312072754	0.0005498988
840.9600146484	0.0007559486
842.8888220215	0.0004637723
844.8176293945	0.0004009200
846.7464367676	0.0005555153
848.6752441406	0.0005020776
850.6040515137	0.0006987996
852.5328588867	0.0004740406
854.4616662598	0.0000993301
856.3904736328	0.0004009058
858.3192810059	0.0003873649
860.2480883789	0.0005059292
862.1768957520	0.0005070835
864.1057031250	0.0002335998
866.0345104980	0.0003737073
867.9633178711	0.0003382334
869.8921252441	0.0005162904
871.8209326172	0.0002859299
873.7497399902	-0.0000535881
875.6785473633	0.0003252116
877.6073547363	0.0004052643
879.5361621094	0.0003102110
881.4649694824	0.0001641296
883.3937768555	0.0003015330
885.3225842285	0.0004225248
887.2513916016	0.0001499687
889.1801989746	0.0001917523
891.1090063477	0.0002675169
893.0378137207	0.0002608144
894.9666210938	0.0000970346
896.8954284668	0.0000168259
898.8242358398	0.0001255494
900.7530432129	0.0002437451
902.6818505859	0.0002641272
904.6106579590	0.0002732245
906.5394653320	0.0006592299
908.4682727051	0.0004442108
910.3970800781	0.0002738678
912.3258874512	0.0005890646
914.2546948242	0.0003387189
916.1835021973	0.0005675899
918.1123095703	0.0006988015
920.0411169434	0.0003733228
921.9699243164	0.0005208532
923.8987316895	0.0005277836
925.8275390625	0.0006409775
927.7563464355	0.0007481866
929.6851538086	0.0006911535
931.6139611816	0.0009269138
933.5427685547	0.0011177782
935.4715759277	0.0010258629
937.4003833008	0.0008190272
939.3291906738	0.0009333309
941.2579980469	0.0008656659
943.1868054199	0.0007204480
945.1156127930	0.0009705437
947.0444201660	0.0009416963
948.9732275391	0.0009206402
950.9020349121	0.0009758396
952.8308422852	0.0009621296
954.7596496582	0.0008976554
956.6884570313	0.0008613917
958.6172644043	0.0011610759
960.5460717773	0.0011330940
962.4748791504	0.0009194063
964.4036865234	0.0010246048
966.3324938965	0.0011293492
968.2613012695	0.0010784152
970.1901086426	0.0011426050
972.1189160156	0.0010524499
974.0477233887	0.0008600082
975.9765307617	0.0013363274
977.9053381348	0.0015544042
979.8341455078	0.0014238916
981.7629528809	0.0014869204
983.6917602539	0.0015612780
985.6205676270	0.0017492638
987.5493750000	0.0017578460
989.4781823730	0.0020863898
991.4069897461	0.0022558756
993.3357971191	0.0022694943
995.2646044922	0.0027004876
997.1934118652	0.0028744072
999.1222192383	0.0032195901
1001.0510266113	0.0034375861
1002.9798339844	0.0034847385
1004.9086413574	0.0036768909
1006.8374487305	0.0038546880
1008.7662561035	0.0042451918
1010.6950634766	0.0044209715
1012.6238708496	0.0046420079
1014.5526782227	0.0048596365
1016.4814855957	0.0050080866
1018.4102929688	0.0053553064
1020.3391003418	0.0055734306
1022.2679077148	0.0056919716
1024.1967150879	0.0057724793
1026.1255224609	0.0059703533
1028.0543298340	0.0062221023
1029.9831372070	0.0065476689
1031.9119445801	0.0066940831
1033.8407519531	0.0067751165
1035.7695593262	0.0069717458
1037.6983666992	0.0068677105
1039.6271740723	0.0070147417
1041.5559814453	0.0069960542
1043.4847888184	0.0067913048
1045.4135961914	0.0068088886
1047.3424035645	0.0066625020
1049.2712109375	0.0066815917
1051.2000183105	0.0065777884
1053.1288256836	0.0064400937
1055.0576330566	0.0062174001
1056.9864404297	0.0060263583
1058.9152478027	0.0060436931
1060.8440551758	0.0057315985
1062.7728625488	0.0055374894
1064.7016699219	0.0053262878
1066.6304772949	0.0053025642
1068.5592846680	0.0051298188
1070.4880920410	0.0046623619
1072.4168994141	0.0046748370
1074.3457067871	0.0043109497
1076.2745141602	0.0040985942
1078.2033215332	0.0040635150
1080.1321289062	0.0037130492
1082.0609362793	0.0036354330
1083.9897436523	0.0034592429
1085.9185510254	0.0034364299
1087.8473583984	0.0033652321
1089.7761657715	0.0030708478
1091.7049731445	0.0030040252
1093.6337805176	0.0029580472
1095.5625878906	0.0027477117
1097.4913952637	0.0026264533
1099.4202026367	0.0027038953
1101.3490100098	0.0024984120
1103.2778173828	0.0024506119
1105.2066247559	0.0025152327
1107.1354321289	0.0024478668
1109.0642395019	0.0025964559
1110.9930468750	0.0023524109
1112.9218542480	0.0022243001
1114.8506616211	0.0025277012
1116.7794689941	0.0024718130
1118.7082763672	0.0023920194
1120.6370837402	0.0023867278
1122.5658911133	0.0022868610
1124.4946984863	0.0025729905
1126.4235058594	0.0026426085
1128.3523132324	0.0022605199
1130.2811206055	0.0024714919
1132.2099279785	0.0026719593
1134.1387353516	0.0025995476
1136.0675427246	0.0028784922
1137.9963500977	0.0029882411
1139.9251574707	0.0030104297
1141.8539648437	0.0031833914
1143.7827722168	0.0033220721
1145.7115795898	0.0035338914
1147.6403869629	0.0037032454
1149.5691943359	0.0039030435
1151.4980017090	0.0042682192
1153.4268090820	0.0044544274
1155.3556164551	0.0045381067
1157.2844238281	0.0046694730
1159.2132312012	0.0048884843
1161.1420385742	0.0051543168
1163.0708459473	0.0050783921
1164.9996533203	0.0051764576
1166.9284606934	0.0054340446
1168.8572680664	0.0056667617
1170.7860754394	0.0059868293
1172.7148828125	0.0058762245
1174.6436901855	0.0061282692
1176.5724975586	0.0066619716
1178.5013049316	0.0067464104
1180.4301123047	0.0069190608
1182.3589196777	0.0072818752
1184.2877270508	0.0076280022
1186.2165344238	0.0079189166
1188.1453417969	0.0082372027
1190.0741491699	0.0084862681
1192.0029565430	0.0090547092
1193.9317639160	0.0095616821
1195.8605712891	0.0096323434
1197.7893786621	0.0100789834
1199.7181860351	0.0105286855
1201.6469934082	0.0109061133
1203.5758007812	0.0111855119
1205.5046081543	0.0115520153
1207.4334155273	0.0123322532
1209.3622229004	0.0126652792
1211.2910302734	0.0129875019
1213.2198376465	0.0133938612
1215.1486450195	0.0135188680
1217.0774523926	0.0137843527
1219.0062597656	0.0139584905
1220.9350671387	0.0141465086
1222.8638745117	0.0143933967
1224.7926818848	0.0144991754
1226.7214892578	0.0146366376
1228.6502966308	0.0147063043
1230.5791040039	0.0147518702
1232.5079113769	0.0148334922
1234.4367187500	0.0147798061
1236.3655261230	0.0147791151
1238.2943334961	0.0148834605
1240.2231408691	0.0147850551
1242.1519482422	0.0144938165
1244.0807556152	0.0144633185
1246.0095629883	0.0145234978
1247.9383703613	0.0143217444
1249.8671777344	0.0143913832
1251.7959851074	0.0144198462
1253.7247924805	0.0141542759
1255.6535998535	0.0140469149
1257.5824072266	0.0138010215
1259.5112145996	0.0135148522
1261.4400219726	0.0133427549
1263.3688293457	0.0132347280
1265.2976367187	0.0131047051
1267.2264440918	0.0127781807
1269.1552514648	0.0126369353
1271.0840588379	0.0124513349
1273.0128662109	0.0120739983
1274.9416735840	0.0120640555
1276.8704809570	0.0119152311
1278.7992883301	0.0114547927
1280.7280957031	0.0113749187
1282.6569030762	0.0113361813
1284.5857104492	0.0110835563
1286.5145178223	0.0108384155
1288.4433251953	0.0106496364
1290.3721325683	0.0106333438
1292.3009399414	0.0106552588
1294.2297473144	0.0104734246
1296.1585546875	0.0103427172
1298.0873620605	0.0104031209
1300.0161694336	0.0102229351
1301.9449768066	0.0103761507
1303.8737841797	0.0107150879
1305.8025915527	0.0105558671
1307.7313989258	0.0106729064
1309.6602062988	0.0109120309
1311.5890136719	0.0110890772
1313.5178210449	0.0113185151
1315.4466284180	0.0114866775
1317.3754357910	0.0117386216
1319.3042431640	0.0120602399
1321.2330505371	0.0124704465
1323.1618579101	0.0127636306
1325.0906652832	0.0131595898
1327.0194726562	0.0134245036
1328.9482800293	0.0135641089
1330.8770874023	0.0139723103
1332.8058947754	0.0143983718
1334.7347021484	0.0147346156
1336.6635095215	0.0146655254
1338.5923168945	0.0145132141
1340.5211242676	0.0148745645
1342.4499316406	0.0154911391
1344.3787390137	0.0154702552
1346.3075463867	0.0152180912
1348.2363537597	0.0152605986
1350.1651611328	0.0152032655
1352.0939685058	0.0153402910
1354.0227758789	0.0152288191
1355.9515832519	0.0150030516
1357.8803906250	0.0148329064
1359.8091979980	0.0147295333
1361.7380053711	0.0142851956
1363.6668127441	0.0138887819
1365.5956201172	0.0145639945
1367.5244274902	0.0141546261
1369.4532348633	0.0139318258
1371.3820422363	0.0142856808
1373.3108496094	0.0136426734
1375.2396569824	0.0137612214
1377.1684643555	0.0138581563
1379.0972717285	0.0139008854
1381.0260791015	0.0138433333
1382.9548864746	0.0137789296
1384.8836938476	0.0139033506
1386.8125012207	0.0132672209
1388.7413085937	0.0136378920
1390.6701159668	0.0144213941
1392.5989233398	0.0141083878
1394.5277307129	0.0136174951
1396.4565380859	0.0140292402
1398.3853454590	0.0140855396
1400.3141528320	0.0140010864
1402.2429602051	0.0147274723
1404.1717675781	0.0142587274
1406.1005749512	0.0143592916
1408.0293823242	0.0145360576
1409.9581896972	0.0140687842
1411.8869970703	0.0143325282
1413.8158044433	0.0140032815
1415.7446118164	0.0142301843
1417.6734191894	0.0130786281
1419.6022265625	0.0117229074
1421.5310339355	0.0130895767
1423.4598413086	0.0130652022
1425.3886486816	0.0123256817
1427.3174560547	0.0126128690
1429.2462634277	0.0119511131
1431.1750708008	0.0112973563
1433.1038781738	0.0115636066
1435.0326855469	0.0106164943
1436.9614929199	0.0095914137
1438.8903002929	0.0103710685
1440.8191076660	0.0102442112
1442.7479150390	0.0099031739
1444.6767224121	0.0101426253
1446.6055297851	0.0096209142
1448.5343371582	0.0097499248
1450.4631445312	0.0097992141
1452.3919519043	0.0099330489
1454.3207592773	0.0102989078
1456.2495666504	0.0089711128
1458.1783740234	0.0093457187
1460.1071813965	0.0116488840
1462.0359887695	0.0122069474
1463.9647961426	0.0124468468
1465.8936035156	0.0130198747
1467.8224108886	0.0145843327
1469.7512182617	0.0154568525
1471.6800256347	0.0140366796
1473.6088330078	0.0149305724
1475.5376403808	0.0168413036
1477.4664477539	0.0178201832
1479.3952551269	0.0191114098
1481.3240625000	0.0197574459
1483.2528698730	0.0207746122
1485.1816772461	0.0211585816
1487.1104846191	0.0212023482
1489.0392919922	0.0213112831
1490.9680993652	0.0215762891
1492.8969067383	0.0241893344
1494.8257141113	0.0237049628
1496.7545214843	0.0220172368
1498.6833288574	0.0244230963
1500.6121362304	0.0250716899
1502.5409436035	0.0264813732
1504.4697509765	0.0251238495
1506.3985583496	0.0196165182
1508.3273657226	0.0232132375
1510.2561730957	0.0262737870
1512.1849804687	0.0257146880
1514.1137878418	0.0272013955
1516.0425952148	0.0248790849
1517.9714025879	0.0261560827
1519.9002099609	0.0250784140
1521.8290173340	0.0226343684
1523.7578247070	0.0266481861
1525.6866320801	0.0258864723
1527.6154394531	0.0260147490
1529.5442468261	0.0280354135
1531.4730541992	0.0271354206
1533.4018615722	0.0254359208
1535.3306689453	0.0265329555
1537.2594763183	0.0277302973
1539.1882836914	0.0212222598
1541.1170910644	0.0223761164
1543.0458984375	0.0257085115
1544.9747058105	0.0248584971
1546.9035131836	0.0283653028
1548.8323205566	0.0267410818
1550.7611279297	0.0276383050
1552.6899353027	0.0273321830
1554.6187426758	0.0252995174
1556.5475500488	0.0266189612
1558.4763574218	0.0202309899
1560.4051647949	0.0216476396
1562.3339721679	0.0282011367
1564.2627795410	0.0269798636
1566.1915869140	0.0277275145
1568.1203942871	0.0271924511
1570.0492016601	0.0248654149
1571.9780090332	0.0278806034
1573.9068164062	0.0278469510
1575.8356237793	0.0230338648
1577.7644311523	0.0254580341
1579.6932385254	0.0282638222
1581.6220458984	0.0271324608
1583.5508532715	0.0275653955
1585.4796606445	0.0273038708
1587.4084680175	0.0273070205
1589.3372753906	0.0271160491
1591.2660827636	0.0273265224
1593.1948901367	0.0271420330
1595.1236975097	0.0267240852
1597.0525048828	0.0270429738
1598.9813122558	0.0269082189
1600.9101196289	0.0271485522
1602.8389270019	0.0266725756
1604.7677343750	0.0269674100
1606.6965417480	0.0265870672
1608.6253491211	0.0266571604
1610.5541564941	0.0266938265
1612.4829638672	0.0266863964
1614.4117712402	0.0269497056
1616.3405786132	0.0231261197
1618.2693859863	0.0248675495
1620.1981933593	0.0278610028
1622.1270007324	0.0254830047
1624.0558081054	0.0255536623
1625.9846154785	0.0265671499
1627.9134228515	0.0269687437
1629.8422302246	0.0267073140
1631.7710375976	0.0283676051
1633.6998449707	0.0267129354
1635.6286523437	0.0233544391
1637.5574597168	0.0266578551
1639.4862670898	0.0284326486
1641.4150744629	0.0282216556
1643.3438818359	0.0289693717
1645.2726892090	0.0266033895
1647.2014965820	0.0245518573
1649.1303039550	0.0293165632
1651.0591113281	0.0275959447
1652.9879187011	0.0199384466
1654.9167260742	0.0257736947
1656.8455334472	0.0305799693
1658.7743408203	0.0298056491
1660.7031481933	0.0307369269
1662.6319555664	0.0285389051
1664.5607629394	0.0299821571
1666.4895703125	0.0316215456
1668.4183776855	0.0285659600
1670.3471850586	0.0282156020
1672.2759924316	0.0310974680
1674.2047998047	0.0291454699
1676.1336071777	0.0282791145
1678.0624145507	0.0314251557
1679.9912219238	0.0306229256
1681.9200292968	0.0305998027
1683.8488366699	0.0258715078
1685.7776440429	0.0259553045
1687.7064514160	0.0331353098
1689.6352587890	0.0293924846
1691.5640661621	0.0319072232
1693.4928735351	0.0321485624
1695.4216809082	0.0251658857
1697.3504882812	0.0297418460
1699.2792956543	0.0267331488
1701.2081030273	0.0247363895
1703.1369104004	0.0314559937
1705.0657177734	0.0292944163
1706.9945251464	0.0293834396
1708.9233325195	0.0312175974
1710.8521398925	0.0302358381
1712.7809472656	0.0307003632
1714.7097546386	0.0287765730
1716.6385620117	0.0262329858
1718.5673693847	0.0259583592
1720.4961767578	0.0297239311
1722.4249841308	0.0304485019
1724.3537915039	0.0287041292
1726.2825988769	0.0305259321
1728.2114062500	0.0286658965
1730.1402136230	0.0288501661
1732.0690209961	0.0278611239
1733.9978283691	0.0227237064
1735.9266357421	0.0268372484
1737.8554431152	0.0289051104
1739.7842504882	0.0263117217
1741.7130578613	0.0280680768
1743.6418652343	0.0284591503
1745.5706726074	0.0283238105
1747.4994799804	0.0286300089
1749.4282873535	0.0277683623
1751.3570947265	0.0267248563
1753.2859020996	0.0290052667
1755.2147094726	0.0300618391
1757.1435168457	0.0279310122
1759.0723242187	0.0299496651
1761.0011315918	0.0284400098
1762.9299389648	0.0276799500
1764.8587463379	0.0307166576
1766.7875537109	0.0281848591
1768.7163610839	0.0284631792
1770.6451684570	0.0283245370
1772.5739758300	0.0260082092
1774.5027832031	0.0282859392
1776.4315905761	0.0294433460
1778.3603979492	0.0291223414
1780.2892053222	0.0288239270
1782.2180126953	0.0289205015
1784.1468200683	0.0287347250
1786.0756274414	0.0284149144
1788.0044348144	0.0296456981
1789.9332421875	0.0286566503
1791.8620495605	0.0266052485
1793.7908569336	0.0276093464
1795.7196643066	0.0289486386
1797.6484716796	0.0287150126
1799.5772790527	0.0284700803
1801.5060864257	0.0280101039
1803.4348937988	0.0286080576
1805.3637011718	0.0290780421
1807.2925085449	0.0287675783
1809.2213159179	0.0289572589
1811.1501232910	0.0283007994
1813.0789306640	0.0289314911
1815.0077380371	0.0289905127
1816.9365454101	0.0286240950
1818.8653527832	0.0289532468
1820.7941601562	0.0286150295
1822.7229675293	0.0288586747
1824.6517749023	0.0274913646
1826.5805822753	0.0280624088
1828.5093896484	0.0282890853
1830.4381970214	0.0269552507
1832.3670043945	0.0286113545
1834.2958117675	0.0285974704
1836.2246191406	0.0284342263
1838.1534265136	0.0282313805
1840.0822338867	0.0283728205
1842.0110412597	0.0283019431
1843.9398486328	0.0260179695
1845.8686560058	0.0272898618
1847.7974633789	0.0282172859
1849.7262707519	0.0278275013
1851.6550781250	0.0284349658
1853.5838854980	0.0280150082
1855.5126928710	0.0281911604
1857.4415002441	0.0279989839
1859.3703076171	0.0279449075
1861.2991149902	0.0280039422
1863.2279223632	0.0275738649
1865.1567297363	0.0277372040
1867.0855371093	0.0272129141
1869.0143444824	0.0263515860
1870.9431518554	0.0270722602
1872.8719592285	0.0278566442
1874.8007666015	0.0273911040
1876.7295739746	0.0275037959
1878.6583813476	0.0273352303
1880.5871887207	0.0271049608
1882.5159960937	0.0272828005
1884.4448034667	0.0270657055
1886.3736108398	0.0273247473
1888.3024182128	0.0266659874
1890.2312255859	0.0264244322
1892.1600329589	0.0271562338
1894.0888403320	0.0266800970
1896.0176477050	0.0265789181
1897.9464550781	0.0268064514
1899.8752624511	0.0267856568
1901.8040698242	0.0268920474
1903.7328771972	0.0266117975
1905.6616845703	0.0266286545
1907.5904919433	0.0265834611
1909.5192993164	0.0264014211
1911.4481066894	0.0263836496
1913.3769140625	0.0264116861
1915.3057214355	0.0265720636
1917.2345288085	0.0256190412
1919.1633361816	0.0256850645
1921.0921435546	0.0265653208
1923.0209509277	0.0258072875
1924.9497583007	0.0260325149
1926.8785656738	0.0261368304
1928.8073730468	0.0258304104
1930.7361804199	0.0261991452
1932.6649877929	0.0259542279
1934.5937951660	0.0261875987
1936.5226025390	0.0259889662
1938.4514099121	0.0259020701
1940.3802172851	0.0260352809
1942.3090246582	0.0252851695
1944.2378320312	0.0255457982
1946.1666394042	0.0259125624
1948.0954467773	0.0257139616
1950.0242541503	0.0257634558
1951.9530615234	0.0257766135
1953.8818688964	0.0257476401
1955.8106762695	0.0257117152
1957.7394836425	0.0257523097
1959.6682910156	0.0257311463
1961.5970983886	0.0256115273
1963.5259057617	0.0256084297
1965.4547131347	0.0255701691
1967.3835205078	0.0253005140
1969.3123278808	0.0254481547
1971.2411352539	0.0255944207
1973.1699426269	0.0253631417
1975.0987499999	0.0254467651
1977.0275573730	0.0252854619
1978.9563647460	0.0252164919
1980.8851721191	0.0252944008
1982.8139794921	0.0250849500
1984.7427868652	0.0251657050
1986.6715942382	0.0251308009
1988.6004016113	0.0249998812
1990.5292089843	0.0247746930
1992.4580163574	0.0245227590
1994.3868237304	0.0248029493
1996.3156311035	0.0249501280
1998.2444384765	0.0248555169
2000.1732458496	0.0247044452
2002.1020532226	0.0246045142
2004.0308605956	0.0247876830
2005.9596679687	0.0246299058
2007.8884753417	0.0244643576
2009.8172827148	0.0245473552
2011.7460900878	0.0244485885
2013.6748974609	0.0243816506
2015.6037048339	0.0241441540
2017.5325122070	0.0240067560
2019.4613195800	0.0241615605
2021.3901269531	0.0240429975
2023.3189343261	0.0239236169
2025.2477416992	0.0239849500
2027.1765490722	0.0239307303
2029.1053564453	0.0238132663
2031.0341638183	0.0238439459
2032.9629711914	0.0238950737
2034.8917785644	0.0236794502
2036.8205859374	0.0236191005
2038.7493933105	0.0236970391
2040.6782006835	0.0234215241
2042.6070080566	0.0234094970
2044.5358154296	0.0235117711
2046.4646228027	0.0232663993
2048.3934301757	0.0232078880
2050.3222375488	0.0231897533
2052.2510449218	0.0231898054
2054.1798522949	0.0232260376
2056.1086596679	0.0231427848
2058.0374670410	0.0231608264
2059.9662744140	0.0230671801
2061.8950817871	0.0228953846
2063.8238891601	0.0228741355
2065.7526965331	0.0228288826
2067.6815039062	0.0228344835
2069.6103112792	0.0228769910
2071.5391186523	0.0226713493
2073.4679260253	0.0225801729
2075.3967333984	0.0226199329
2077.3255407714	0.0225329287
2079.2543481445	0.0224762410
2081.1831555175	0.0224982835
2083.1119628906	0.0225460958
2085.0407702636	0.0223695226
2086.9695776367	0.0224177837
2088.8983850097	0.0223242138
2090.8271923828	0.0221463013
2092.7559997558	0.0223557819
2094.6848071288	0.0220422875
2096.6136145019	0.0220739171
2098.5424218749	0.0221243575
2100.4712292480	0.0218851157
2102.4000366210	0.0220768377
2104.3288439941	0.0218288545
2106.2576513671	0.0218426026
2108.1864587402	0.0220668092
2110.1152661132	0.0219939835
2112.0440734863	0.0218715481
2113.9728808593	0.0217351317
2115.9016882324	0.0217744671
2117.8304956054	0.0216985233
2119.7593029785	0.0216640532
2121.6881103515	0.0215164572
2123.6169177245	0.0214339457
2125.5457250976	0.0215082970
2127.4745324706	0.0214635748
2129.4033398437	0.0213858597
2131.3321472167	0.0214326382
2133.2609545898	0.0216067024
2135.1897619628	0.0214237254
2137.1185693359	0.0213951096
2139.0473767089	0.0213375837
2140.9761840820	0.0212186240
2142.9049914550	0.0213575214
2144.8337988281	0.0212160517
2146.7626062011	0.0211957172
2148.6914135742	0.0211836472
2150.6202209472	0.0210745782
2152.5490283203	0.0210399106
2154.4778356933	0.0211964548
2156.4066430663	0.0211687684
2158.3354504394	0.0209351853
2160.2642578124	0.0211207680
2162.1930651855	0.0209347140
2164.1218725585	0.0207862891
2166.0506799316	0.0209432915
2167.9794873046	0.0208836030
2169.9082946777	0.0208691582
2171.8371020507	0.0208347961
2173.7659094238	0.0208787080
2175.6947167968	0.0207968503
2177.6235241699	0.0206975080
2179.5523315429	0.0206074845
2181.4811389160	0.0205694083
2183.4099462890	0.0206769593
2185.3387536620	0.0206125714
2187.2675610351	0.0205963291
2189.1963684081	0.0204889718
2191.1251757812	0.0204616133
2193.0539831542	0.0206078272
2194.9827905273	0.0205448326
2196.9115979003	0.0205381960
2198.8404052734	0.0205616374
2200.7692126464	0.0204110481
2202.6980200195	0.0203082729
2204.6268273925	0.0202975199
2206.5556347656	0.0203824751
2208.4844421386	0.0204388667
2210.4132495117	0.0202141274
2212.3420568847	0.0201690570
2214.2708642577	0.0202680752
2216.1996716308	0.0201422572
2218.1284790038	0.0200345777
2220.0572863769	0.0200255290
2221.9860937499	0.0200383645
2223.9149011230	0.0200128891
2225.8437084960	0.0200465582
2227.7725158691	0.0200159866
2229.7013232421	0.0199804455
2231.6301306152	0.0199244916
2233.5589379882	0.0198461898
2235.4877453613	0.0198691785
2237.4165527343	0.0196976401
2239.3453601074	0.0196752939
2241.2741674804	0.0197363719
2243.2029748534	0.0196984783
2245.1317822265	0.0196841098
2247.0605895995	0.0195572898
2248.9893969726	0.0195793193
2250.9182043456	0.0196377821
2252.8470117187	0.0195181891
2254.7758190917	0.0194120333
2256.7046264648	0.0194453150
2258.6334338378	0.0193438996
2260.5622412109	0.0192598589
2262.4910485839	0.0192703381
2264.4198559570	0.0193016231
2266.3486633300	0.0193924569
2268.2774707031	0.0192761719
2270.2062780761	0.0194220357
2272.1350854491	0.0192641988
2274.0638928222	0.0189979300
2275.9927001952	0.0192176178
2277.9215075683	0.0190335494
2279.8503149413	0.0190848894
2281.7791223144	0.0191176273
2283.7079296874	0.0188923478
2285.6367370605	0.0189285204
2287.5655444335	0.0188814141
2289.4943518066	0.0189428627
2291.4231591796	0.0188247245
2293.3519665527	0.0187015943
2295.2807739257	0.0187500287
2297.2095812988	0.0186747834
2299.1383886718	0.0186146088
2301.0671960449	0.0184587911
2302.9960034179	0.0183228813
2304.9248107909	0.0182968453
2306.8536181640	0.0182615258
2308.7824255370	0.0181506053
2310.7112329101	0.0179337356
2312.6400402831	0.0177104995
2314.5688476562	0.0175730716
2316.4976550292	0.0173250735
2318.4264624023	0.0171297081
2320.3552697753	0.0170090832
2322.2840771484	0.0165954605
2324.2128845214	0.0163471531
2326.1416918945	0.0162247159
2328.0704992675	0.0160406791
2329.9993066406	0.0158961862
2331.9281140136	0.0157226324
2333.8569213866	0.0157069862
2335.7857287597	0.0155647323
2337.7145361327	0.0155447293
2339.6433435058	0.0156465732
2341.5721508788	0.0155743677
2343.5009582519	0.0158242751
2345.4297656249	0.0160824805
2347.3585729980	0.0166056864
2349.2873803710	0.0172669925
2351.2161877441	0.0167563744
2353.1449951171	0.0158514641
2355.0738024902	0.0152480789
2357.0026098632	0.0147790983
2358.9314172363	0.0146178314
2360.8602246093	0.0143783735
2362.7890319823	0.0143917650
2364.7178393554	0.0145326052
2366.6466467284	0.0145361833
2368.5754541015	0.0148141533
2370.5042614745	0.0152141247
2372.4330688476	0.0157740247
2374.3618762206	0.0161791630
2376.2906835937	0.0164297111
2378.2194909667	0.0167085119
2380.1482983398	0.0169667341
2382.0771057128	0.0172068998
2384.0059130859	0.0172613598
2385.9347204589	0.0175571665
2387.8635278320	0.0175934806
2389.7923352050	0.0173634402
2391.7211425780	0.0174175501
2393.6499499511	0.0173274279
2395.5787573241	0.0172673613
2397.5075646972	0.0172089040
2399.4363720702	0.0172150861
2401.3651794433	0.0172074214
2403.2939868163	0.0171187781
2405.2227941894	0.0172346327
2407.1516015624	0.0171891786
2409.0804089355	0.0171210803
2411.0092163085	0.0171131380
2412.9380236816	0.0170661639
2414.8668310546	0.0170352478
2416.7956384277	0.0170389134
2418.7244458007	0.0170465820
2420.6532531738	0.0169062484
2422.5820605468	0.0169413760
2424.5108679198	0.0169343576
2426.4396752929	0.0167820584
2428.3684826659	0.0167672113
2430.2972900390	0.0167263001
2432.2260974120	0.0167868640
2434.1549047851	0.0167885832
2436.0837121581	0.0166850835
2438.0125195312	0.0166493542
2439.9413269042	0.0166146085
2441.8701342773	0.0166043304
2443.7989416503	0.0165542141
2445.7277490234	0.0166462995
2447.6565563964	0.0166181140
2449.5853637695	0.0164904036
2451.5141711425	0.0165571161
2453.4429785155	0.0164071899
2455.3717858886	0.0164064914
2457.3005932616	0.0163625851
2459.2294006347	0.0161829814
2461.1582080077	0.0163683202
2463.0870153808	0.0163573101
2465.0158227538	0.0163273681
2466.9446301269	0.0163058192
2468.8734374999	0.0162809715
2470.8022448730	0.0162923634
2472.7310522460	0.0161061622
2474.6598596191	0.0162074566
2476.5886669921	0.0161584020
2478.5174743652	0.0160568953
2480.4462817382	0.0160313882
2482.3750891112	0.0159472208
2484.3038964843	0.0160538629
2486.2327038573	0.0158985965
2488.1615112304	0.0159296393
2490.0903186034	0.0159697048
2492.0191259765	0.0159734301
2493.9479333495	0.0160231404
2495.8767407226	0.0157503728
2497.8055480956	0.0158670470
2499.7343554687	0.0158397965
2501.6631628417	0.0157405902
2503.5919702148	0.0157995783
2505.5207775878	0.0156929288
2507.4495849609	0.0157837998
2509.3783923339	0.0156461187
2511.3071997069	0.0156817660
2513.2360070800	0.0157104041
2515.1648144530	0.0154962819
2517.0936218261	0.0156307109
2519.0224291991	0.0156348739
2520.9512365722	0.0154785477
2522.8800439452	0.0154054519
2524.8088513183	0.0155259240
2526.7376586913	0.0154734217
2528.6664660644	0.0153034255
2530.5952734374	0.0154190576
2532.5240808105	0.0153831076
2534.4528881835	0.0153855607
2536.3816955566	0.0153680099
2538.3105029296	0.0152653605
2540.2393103027	0.0152871776
2542.1681176757	0.0152338836
2544.0969250487	0.0151480474
2546.0257324218	0.0151276356
2547.9545397948	0.0152053777
2549.8833471679	0.0151422434
2551.8121545409	0.0151062747
2553.7409619140	0.0150842573
2555.6697692870	0.0149564799
2557.5985766601	0.0150125772
2559.5273840331	0.0150559135
2561.4561914062	0.0150725786
2563.3849987792	0.0150126563
2565.3138061523	0.0149858575
2567.2426135253	0.0149395866
2569.1714208984	0.0147723407
2571.1002282714	0.0148865124
2573.0290356444	0.0149002187
2574.9578430175	0.0147606637
2576.8866503905	0.0148198335
2578.8154577636	0.0148263872
2580.7442651366	0.0146609517
2582.6730725097	0.0145957191
2584.6018798827	0.0145999882
2586.5306872558	0.0145951919
2588.4594946288	0.0146889947
2590.3883020019	0.0145671722
2592.3171093749	0.0144380955
2594.2459167480	0.0144347670
2596.1747241210	0.0145106949
2598.1035314941	0.0145226307
2600.0323388671	0.0143321566
2601.9611462401	0.0144675877
2603.8899536132	0.0144178011
2605.8187609862	0.0142486673
2607.7475683593	0.0143233417
2609.6763757323	0.0142975673
2611.6051831054	0.0143135386
2613.5339904784	0.0141799133
2615.4627978515	0.0141784726
2617.3916052245	0.0142016448
2619.3204125976	0.0141517073
2621.2492199706	0.0142094046
2623.1780273437	0.0141674709
2625.1068347167	0.0142273521
2627.0356420898	0.0141043253
2628.9644494628	0.0140966307
2630.8932568358	0.0141330678
2632.8220642089	0.0139500145
2634.7508715819	0.0140270209
2636.6796789550	0.0139545072
2638.6084863280	0.0138953403
2640.5372937011	0.0139894569
2642.4661010741	0.0139153404
2644.3949084472	0.0138874194
2646.3237158202	0.0139024816
2648.2525231933	0.0138208438
2650.1813305663	0.0137365237
2652.1101379394	0.0137566663
2654.0389453124	0.0137469713
2655.9677526855	0.0136941932
2657.8965600585	0.0135736885
2659.8253674315	0.0135877822
2661.7541748046	0.0136657953
2663.6829821776	0.0135220736
2665.6117895507	0.0135594718
2667.5405969237	0.0135988919
2669.4694042968	0.0134184249
2671.3982116698	0.0134107005
2673.3270190429	0.0135452170
2675.2558264159	0.0135210417
2677.1846337890	0.0134475790
2679.1134411620	0.0134088062
2681.0422485351	0.0132920928
2682.9710559081	0.0133236572
2684.8998632812	0.0133273760
2686.8286706542	0.0132710906
2688.7574780273	0.0132454978
2690.6862854003	0.0131670730
2692.6150927733	0.0131966025
2694.5439001464	0.0130765429
2696.4727075194	0.0130793015
2698.4015148925	0.0132160634
2700.3303222655	0.0131367045
2702.2591296386	0.0130628077
2704.1879370116	0.0129157212
2706.1167443847	0.0130002433
2708.0455517577	0.0130813858
2709.9743591308	0.0129319867
2711.9031665038	0.0130059607
2713.8319738769	0.0129204271
2715.7607812499	0.0128451008
2717.6895886230	0.0129744262
2719.6183959960	0.0128906686
2721.5472033690	0.0128298774
2723.4760107421	0.0129193757
2725.4048181151	0.0128582260
2727.3336254882	0.0127331512
2729.2624328612	0.0127814338
2731.1912402343	0.0126662720
2733.1200476073	0.0125656817
2735.0488549804	0.0126582142
2736.9776623534	0.0125587499
2738.9064697265	0.0125736836
2740.8352770995	0.0125498585
2742.7640844726	0.0124594048
2744.6928918456	0.0125835594
2746.6216992187	0.0125076175
2748.5505065917	0.0124296676
2750.4793139647	0.0124220923
2752.4081213378	0.0123297460
2754.3369287108	0.0123454873
2756.2657360839	0.0123445187
2758.1945434569	0.0123087103
2760.1233508300	0.0122515000
2762.0521582030	0.0121586341
2763.9809655761	0.0121903513
2765.9097729491	0.0122318286
2767.8385803222	0.0121547449
2769.7673876952	0.0121808015
2771.6961950683	0.0121808974
2773.6250024413	0.0120885558
2775.5538098144	0.0121417344
2777.4826171874	0.0121125272
2779.4114245604	0.0120365024
2781.3402319335	0.0120404316
2783.2690393065	0.0119747221
2785.1978466796	0.0119270869
2787.1266540526	0.0119411228
2789.0554614257	0.0119237863
2790.9842687987	0.0118321069
2792.9130761718	0.0117859691
2794.8418835448	0.0117720589
2796.7706909179	0.0117600188
2798.6994982909	0.0117390361
2800.6283056640	0.0116411112
2802.5571130370	0.0116104558
2804.4859204101	0.0115944222
2806.4147277831	0.0116464905
2808.3435351562	0.0117367487
2810.2723425292	0.0115838451
2812.2011499022	0.0114619201
2814.1299572753	0.0114641264
2816.0587646483	0.0114569776
2817.9875720214	0.0114969723
2819.9163793944	0.0114367800
2821.8451867675	0.0114401188
2823.7739941405	0.0114592230
2825.7028015136	0.0112758651
2827.6316088866	0.0113001131
2829.5604162597	0.0113397632
2831.4892236327	0.0111939870
2833.4180310058	0.0111769177
2835.3468383788	0.0111395903
2837.2756457519	0.0111916214
2839.2044531249	0.0111916848
2841.1332604979	0.0109841013
2843.0620678710	0.0110065453
2844.9908752440	0.0109870723
2846.9196826171	0.0108187720
2848.8484899901	0.0108148977
2850.7772973632	0.0107702091
2852.7061047362	0.0107352417
2854.6349121093	0.0107916668
2856.5637194823	0.0107160350
2858.4925268554	0.0106766298
2860.4213342284	0.0107662156
2862.3501416015	0.0106939059
2864.2789489745	0.0105971973
2866.2077563476	0.0106554991
2868.1365637206	0.0105981855
2870.0653710936	0.0104939546
2871.9941784667	0.0105052926
2873.9229858397	0.0105161369
2875.8517932128	0.0105042309
2877.7806005858	0.0104817748
2879.7094079589	0.0105079282
2881.6382153319	0.0104385689
2883.5670227050	0.0103514194
2885.4958300780	0.0104665682
2887.4246374511	0.0104276175
2889.3534448241	0.0103080813
2891.2822521972	0.0103365090
2893.2110595702	0.0103023853
2895.1398669433	0.0101882657
2897.0686743163	0.0101045333
2898.9974816893	0.0101094060
2900.9262890624	0.0100891832
2902.8550964354	0.0100396639
2904.7839038085	0.0099989045
2906.7127111815	0.0099793542
2908.6415185546	0.0099426284
2910.5703259276	0.0098300967
2912.4991333007	0.0098338835
2914.4279406737	0.0098082675
2916.3567480468	0.0096838940
2918.2855554198	0.0096356664
2920.2143627929	0.0096964110
2922.1431701659	0.0097160656
2924.0719775390	0.0095403269
2926.0007849120	0.0095888395
2927.9295922851	0.0096574854
2929.8583996581	0.0094658230
2931.7872070311	0.0095351422
2933.7160144042	0.0096269501
2935.6448217772	0.0095333140
2937.5736291503	0.0095853582
2939.5024365233	0.0096119717
2941.4312438964	0.0095389802
2943.3600512694	0.0095657250
2945.2888586425	0.0094834613
2947.2176660155	0.0094138561
2949.1464733886	0.0095622363
2951.0752807616	0.0094490722
2953.0040881347	0.0092672901
2954.9328955077	0.0093348501
2956.8617028808	0.0093205106
2958.7905102538	0.0092850057
2960.7193176268	0.0092408136
2962.6481249999	0.0091704745
2964.5769323729	0.0091722161
2966.5057397460	0.0091009540
2968.4345471190	0.0091731120
2970.3633544921	0.0092859343
2972.2921618651	0.0090801790
2974.2209692382	0.0090561286
2976.1497766112	0.0091354735
2978.0785839843	0.0090117548
2980.0073913573	0.0091056759
2981.9361987304	0.0091505479
2983.8650061034	0.0091157574
2985.7938134765	0.0091822911
2987.7226208495	0.0090756966
2989.6514282225	0.0090447143
2991.5802355956	0.0090467148
2993.5090429686	0.0089907926
2995.4378503417	0.0089642052
2997.3666577147	0.0088930055
2999.2954650878	0.0089575611
3001.2242724608	0.0089404341
3003.1530798339	0.0088198781
3005.0818872069	0.0088281119
3007.0106945800	0.0088721178
3008.9395019530	0.0088427588
3010.8683093261	0.0086805746
3012.7971166991	0.0086991806
3014.7259240722	0.0087524969
3016.6547314452	0.0087259542
3018.5835388182	0.0087993592
3020.5123461913	0.0087108966
3022.4411535643	0.0087328646
3024.3699609374	0.0086774174
3026.2987683104	0.0085221026
3028.2275756835	0.0086643528
3030.1563830565	0.0085360985
3032.0851904296	0.0084787291
3034.0139978026	0.0086083841
3035.9428051757	0.0084712459
3037.8716125487	0.0084005892
3039.8004199218	0.0083507085
3041.7292272948	0.0083884299
3043.6580346679	0.0083319135
3045.5868420409	0.0082478449
3047.5156494139	0.0084190778
3049.4444567870	0.0082960660
3051.3732641600	0.0082121138
3053.3020715331	0.0082568415
3055.2308789061	0.0081444895
3057.1596862792	0.0082496516
3059.0884936522	0.0082266796
3061.0173010253	0.0081237797
3062.9461083983	0.0082092322
3064.8749157714	0.0080815908
3066.8037231444	0.0079392195
3068.7325305175	0.0080072498
3070.6613378905	0.0080505386
3072.5901452636	0.0080184462
3074.5189526366	0.0079290979
3076.4477600097	0.0079353265
3078.3765673827	0.0079791602
3080.3053747557	0.0078179026
3082.2341821288	0.0077835904
3084.1629895018	0.0078179762
3086.0917968749	0.0077625671
3088.0206042479	0.0078464821
3089.9494116210	0.0077388799
3091.8782189940	0.0076605985
3093.8070263671	0.0077645201
3095.7358337401	0.0076813456
3097.6646411132	0.0076574022
3099.5934484862	0.0076389881
3101.5222558593	0.0076169167
3103.4510632323	0.0076371282
3105.3798706054	0.0075366152
3107.3086779784	0.0075586205
3109.2374853514	0.0076381275
3111.1662927245	0.0075915488
3113.0951000975	0.0075091608
3115.0239074706	0.0074503617
3116.9527148436	0.0074206823
3118.8815222167	0.0074460506
3120.8103295897	0.0075002592
3122.7391369628	0.0074369987
3124.6679443358	0.0073783696
3126.5967517089	0.0074127917
3128.5255590819	0.0073515214
3130.4543664550	0.0072921286
3132.3831738280	0.0072995797
3134.3119812011	0.0072342986
3136.2407885741	0.0072252927
3138.1695959471	0.0072388584
3140.0984033202	0.0072379652
3142.0272106932	0.0072674234
3143.9560180663	0.0071805054
3145.8848254393	0.0070925578
3147.8136328124	0.0069790184
3149.7424401854	0.0069932537
3151.6712475585	0.0070555308
3153.6000549315	0.0069127558
3155.5288623046	0.0070249932
3157.4576696776	0.0070325281
3159.3864770507	0.0069004968
3161.3152844237	0.0070039909
3163.2440917968	0.0069617559
3165.1728991698	0.0069173090
3167.1017065428	0.0068573430
3169.0305139159	0.0069025205
3170.9593212889	0.0070073903
3172.8881286620	0.0068821297
3174.8169360350	0.0068876296
3176.7457434081	0.0068888990
3178.6745507811	0.0068659950
3180.6033581542	0.0068893768
3182.5321655272	0.0068794559
3184.4609729003	0.0068442305
3186.3897802733	0.0066792653
3188.3185876464	0.0067118932
3190.2473950194	0.0068051461
3192.1762023925	0.0067699337
3194.1050097655	0.0067855055
3196.0338171386	0.0066952114
3197.9626245116	0.0066277701
3199.8914318846	0.0067263618
3201.8202392577	0.0067584529
3203.7490466307	0.0066455426
3205.6778540038	0.0066523259
3207.6066613768	0.0067486065
3209.5354687499	0.0066921785
3211.4642761229	0.0067067663
3213.3930834960	0.0067826151
3215.3218908690	0.0066822851
3217.2506982421	0.0066536861
3219.1795056151	0.0067295851
3221.1083129882	0.0066916142
3223.0371203612	0.0066892775
3224.9659277343	0.0067433575
3226.8947351073	0.0067097116
3228.8235424803	0.0066597760
3230.7523498534	0.0067112530
3232.6811572264	0.0067477403
3234.6099645995	0.0067289807
3236.5387719725	0.0067173876
3238.4675793456	0.0066355998
3240.3963867186	0.0066697136
3242.3251940917	0.0066769738
3244.2540014647	0.0066709919
3246.1828088378	0.0068108784
3248.1116162108	0.0067373640
3250.0404235839	0.0067605795
3251.9692309569	0.0068491632
3253.8980383300	0.0067594424
3255.8268457030	0.0067499951
3257.7556530760	0.0068175178
3259.6844604491	0.0068443920
3261.6132678221	0.0067231157
3263.5420751952	0.0068029286
3265.4708825682	0.0068050679
3267.3996899413	0.0066832658
3269.3284973143	0.0068355948
3271.2573046874	0.0068003330
3273.1861120604	0.0067742439
3275.1149194335	0.0068663796
3277.0437268065	0.0069499109
3278.9725341796	0.0069112973
3280.9013415526	0.0068096537
3282.8301489257	0.0069147088
3284.7589562987	0.0068006488
3286.6877636717	0.0068213572
3288.6165710448	0.0069484143
3290.5453784178	0.0068869046
3292.4741857909	0.0069523607
3294.4029931639	0.0068824072
3296.3318005370	0.0068294341
3298.2606079100	0.0069095865
3300.1894152831	0.0069958074
3302.1182226561	0.0069860355
3304.0470300292	0.0068751858
3305.9758374022	0.0068618599
3307.9046447753	0.0068922727
3309.8334521483	0.0069044153
3311.7622595214	0.0069092540
3313.6910668944	0.0069937008
3315.6198742675	0.0069001024
3317.5486816405	0.0068844082
3319.4774890135	0.0069801356
3321.4062963866	0.0068329894
3323.3351037596	0.0070049125
3325.2639111327	0.0070528043
3327.1927185057	0.0068579726
3329.1215258788	0.0069793109
3331.0503332518	0.0070354287
3332.9791406249	0.0070088645
3334.9079479979	0.0069847340
3336.8367553710	0.0070174234
3338.7655627440	0.0070412755
3340.6943701171	0.0070123477
3342.6231774901	0.0070546735
3344.5519848632	0.0070169112
3346.4807922362	0.0070435358
3348.4095996092	0.0070680743
3350.3384069823	0.0069634318
3352.2672143553	0.0070044021
3354.1960217284	0.0071668150
3356.1248291014	0.0071773948
3358.0536364745	0.0070412289
3359.9824438475	0.0070467135
3361.9112512206	0.0071503157
3363.8400585936	0.0071385112
3365.7688659667	0.0071271705
3367.6976733397	0.0071333833
3369.6264807128	0.0071460125
3371.5552880858	0.0072532799
3373.4840954589	0.0072724526
3375.4129028319	0.0072680088
3377.3417102049	0.0072863912
3379.2705175780	0.0072113089
3381.1993249510	0.0072805416
3383.1281323241	0.0073296791
3385.0569396971	0.0073334062
3386.9857470702	0.0073647769
3388.9145544432	0.0072846981
3390.8433618163	0.0074302116
3392.7721691893	0.0074452125
3394.7009765624	0.0072924001
3396.6297839354	0.0074283611
3398.5585913085	0.0073933457
3400.4873986815	0.0073735267
3402.4162060546	0.0075224182
3404.3450134276	0.0075149522
3406.2738208006	0.0074856966
3408.2026281737	0.0074891653
3410.1314355467	0.0075745243
3412.0602429198	0.0075912136
3413.9890502928	0.0075775827
3415.9178576659	0.0075790277
3417.8466650389	0.0075579779
3419.7754724120	0.0076590460
3421.7042797850	0.0076658977
3423.6330871581	0.0076529374
3425.5618945311	0.0076348167
3427.4907019042	0.0076418808
3429.4195092772	0.0076389583
3431.3483166503	0.0075498587
3433.2771240233	0.0077443891
3435.2059313963	0.0077870991
3437.1347387694	0.0077401521
3439.0635461424	0.0078960797
3440.9923535155	0.0078365346
3442.9211608885	0.0077740443
3444.8499682616	0.0078211939
3446.7787756346	0.0077689802
3448.7075830077	0.0077437903
3450.6363903807	0.0079425666
3452.5651977538	0.0079015456
3454.4940051268	0.0078132171
3456.4228124999	0.0079289954
3458.3516198729	0.0078149689
3460.2804272460	0.0079177395
3462.2092346190	0.0079334211
3464.1380419921	0.0079084802
3466.0668493651	0.0080269445
3467.9956567381	0.0079246322
3469.9244641112	0.0080390219
3471.8532714842	0.0079826713
3473.7820788573	0.0079298392
3475.7108862303	0.0079827560
3477.6396936034	0.0079876650
3479.5685009764	0.0081370398
3481.4973083495	0.0079513490
3483.4261157225	0.0079783816
3485.3549230956	0.0081029776
3487.2837304686	0.0079665454
3489.2125378417	0.0080041746
3491.1413452147	0.0080757178
3493.0701525878	0.0080974828
3494.9989599608	0.0081331516
3496.9277673338	0.0081809741
3498.8565747069	0.0080835577
3500.7853820799	0.0081490781
3502.7141894530	0.0080756517
3504.6429968260	0.0079356674
3506.5718041991	0.0082094409
3508.5006115721	0.0081327716
3510.4294189452	0.0081018917
3512.3582263182	0.0081947427
3514.2870336913	0.0081225354
3516.2158410643	0.0082077896
3518.1446484374	0.0082150437
3520.0734558104	0.0082177036
3522.0022631835	0.0081252838
3523.9310705565	0.0080576390
3525.8598779295	0.0080492217
3527.7886853026	0.0081162704
3529.7174926756	0.0081497785
3531.6463000487	0.0080269342
3533.5751074217	0.0082237283
3535.5039147948	0.0082213655
3537.4327221678	0.0080919126
3539.3615295409	0.0081670480
3541.2903369139	0.0081541007
3543.2191442870	0.0081848223
3545.1479516600	0.0080295056
3547.0767590331	0.0079473397
3549.0055664061	0.0081826244
3550.9343737792	0.0082134157
3552.8631811522	0.0080541708
3554.7919885252	0.0081366599
3556.7207958983	0.0082191154
3558.6496032713	0.0081689842
3560.5784106444	0.0080973096
3562.5072180174	0.0080331946
3564.4360253905	0.0080523780
3566.3648327635	0.0076586134
3568.2936401366	0.0075910678
3570.2224475096	0.0080045378
3572.1512548827	0.0080197314
3574.0800622557	0.0081615467
3576.0088696288	0.0081604505
3577.9376770018	0.0080649015
3579.8664843749	0.0080533791
3581.7952917479	0.0079624737
3583.7240991210	0.0081838761
3585.6529064940	0.0079331687
3587.5817138670	0.0074410671
3589.5105212401	0.0076560304
3591.4393286131	0.0080756638
3593.3681359862	0.0079936478
3595.2969433592	0.0076848506
3597.2257507323	0.0078445990
3599.1545581053	0.0079297414
3601.0833654784	0.0077956393
3603.0121728514	0.0079631070
3604.9409802245	0.0080461092
3606.8697875975	0.0077446415
3608.7985949706	0.0074178861
3610.7274023436	0.0076890825
3612.6562097167	0.0077008880
3614.5850170897	0.0075092353
3616.5138244627	0.0079163760
3618.4426318358	0.0073767253
3620.3714392088	0.0072850715
3622.3002465819	0.0079666451
3624.2290539549	0.0078076767
3626.1578613280	0.0079514049
3628.0866687010	0.0070076738
3630.0154760741	0.0066174516
3631.9442834471	0.0077768723
3633.8730908202	0.0076281186
3635.8018981932	0.0076290667
3637.7307055663	0.0077988408
3639.6595129393	0.0078277532
3641.5883203124	0.0077861827
3643.5171276854	0.0075760577
3645.4459350584	0.0077453721
3647.3747424315	0.0071329740
3649.3035498045	0.0065678451
3651.2323571776	0.0067397337
3653.1611645506	0.0076422114
3655.0899719237	0.0075022485
3657.0187792967	0.0069151274
3658.9475866698	0.0077381399
3660.8763940428	0.0075508952
3662.8052014159	0.0075984076
3664.7340087889	0.0076343790
3666.6628161620	0.0074731121
3668.5916235350	0.0072351638
3670.5204309081	0.0062300693
3672.4492382811	0.0073101385
3674.3780456541	0.0069229477
3676.3068530272	0.0059764562
3678.2356604002	0.0071213292
3680.1644677733	0.0070959954
3682.0932751463	0.0072760172
3684.0220825194	0.0073814564
3685.9508898924	0.0071551949
3687.8796972655	0.0066215252
3689.8085046385	0.0061876094
3691.7373120116	0.0068278150
3693.6661193846	0.0069029611
3695.5949267577	0.0070926291
3697.5237341307	0.0070261220
3699.4525415038	0.0069680354
3701.3813488768	0.0068479409
3703.3101562499	0.0065729646
3705.2389636229	0.0070485286
3707.1677709959	0.0067512225
3709.0965783690	0.0067169331
3711.0253857420	0.0063014720
3712.9541931151	0.0059438897
3714.8830004881	0.0067480868
3716.8118078612	0.0066487920
3718.7406152342	0.0067326101
3720.6694226073	0.0066072037
3722.5982299803	0.0064232713
3724.5270373534	0.0064943819
3726.4558447264	0.0060974481
3728.3846520995	0.0064961864
3730.3134594725	0.0064634671
3732.2422668456	0.0060915286
3734.1710742186	0.0059393086
3736.0998815916	0.0057002259
3738.0286889647	0.0059439158
3739.9574963377	0.0063692965
3741.8863037108	0.0064533507
3743.8151110838	0.0052620927
3745.7439184569	0.0051146252
3747.6727258299	0.0061956402
3749.6015332030	0.0054986728
3751.5303405760	0.0051293797
3753.4591479491	0.0057169702
3755.3879553221	0.0060757762
3757.3167626952	0.0063661095
3759.2455700682	0.0058996384
3761.1743774413	0.0059793512
3763.1031848143	0.0062667443
3765.0319921873	0.0058620516
3766.9607995604	0.0060885875
3768.8896069334	0.0059092529
3770.8184143065	0.0056628925
3772.7472216795	0.0060671261
3774.6760290526	0.0060551954
3776.6048364256	0.0061428072
3778.5336437987	0.0059405165
3780.4624511717	0.0057388330
3782.3912585448	0.0059777647
3784.3200659178	0.0059758881
3786.2488732909	0.0059546269
3788.1776806639	0.0059641814
3790.1064880370	0.0059459233
3792.0352954100	0.0058511742
3793.9641027830	0.0060766656
3795.8929101561	0.0057502650
3797.8217175291	0.0056755254
3799.7505249022	0.0058728289
3801.6793322752	0.0048382320
3803.6081396483	0.0055071325
3805.5369470213	0.0057571782
3807.4657543944	0.0050558764
3809.3945617674	0.0058225095
3811.3233691405	0.0056552114
3813.2521765135	0.0058754664
3815.1809838866	0.0052994415
3817.1097912596	0.0048210775
3819.0385986327	0.0058259373
3820.9674060057	0.0049690860
3822.8962133787	0.0051654228
3824.8250207518	0.0058068847
3826.7538281248	0.0052682795
3828.6826354979	0.0055827675
3830.6114428709	0.0054647527
3832.5402502440	0.0052077472
3834.4690576170	0.0054123867
3836.3978649901	0.0051352046
3838.3266723631	0.0047254385
3840.2554797362	0.0051950198
3842.1842871092	0.0053918650
3844.1130944823	0.0051203379
3846.0419018553	0.0054054935
3847.9707092284	0.0053700237
3849.8995166014	0.0053587817
3851.8283239745	0.0049468419
3853.7571313475	0.0040451479
3855.6859387205	0.0044919187
3857.6147460936	0.0054471819
3859.5435534666	0.0053441739
3861.4723608397	0.0052251667
3863.4011682127	0.0051625138
3865.3299755858	0.0048030126
3867.2587829588	0.0052205333
3869.1875903319	0.0048718886
3871.1163977049	0.0045319051
3873.0452050780	0.0052232882
3874.9740124510	0.0049591940
3876.9028198241	0.0052202241
3878.8316271971	0.0052466951
3880.7604345702	0.0047287801
3882.6892419432	0.0053061293
3884.6180493162	0.0049180468
3886.5468566893	0.0045981137
3888.4756640623	0.0051890016
3890.4044714354	0.0049098409
3892.3332788084	0.0047396561
3894.2620861815	0.0050402377
3896.1908935545	0.0050940942
3898.1197009276	0.0049571386
3900.0485083006	0.0047347425
3901.9773156737	0.0046734894
3903.9061230467	0.0046143485
3905.8349304198	0.0047042686
3907.7637377928	0.0049902732
3909.6925451659	0.0049292352
3911.6213525389	0.0049027791
3913.5501599119	0.0049607735
3915.4789672850	0.0048386306
3917.4077746580	0.0047926842
3919.3365820311	0.0047807372
3921.2653894041	0.0048354091
3923.1941967772	0.0048129428
3925.1230041502	0.0047263810
3927.0518115233	0.0047705844
3928.9806188963	0.0048508802
3930.9094262694	0.0048104301
3932.8382336424	0.0046581682
3934.7670410155	0.0048169363
3936.6958483885	0.0049876794
3938.6246557616	0.0048706210
3940.5534631346	0.0048195226
3942.4822705076	0.0046661948
3944.4110778807	0.0045961626
3946.3398852537	0.0047512967
3948.2686926268	0.0047175838
3950.1974999998	0.0046334160
3952.1263073729	0.0046888138
3954.0551147459	0.0047221649
3955.9839221190	0.0046783634
3957.9127294920	0.0047369478
3959.8415368651	0.0047656810
3961.7703442381	0.0046234420
3963.6991516112	0.0045792954
3965.6279589842	0.0045895251
3967.5567663573	0.0045784693
3969.4855737303	0.0045215553
3971.4143811034	0.0045198714
3973.3431884764	0.0046024816
3975.2719958494	0.0046018483
3977.2008032225	0.0046273586
3979.1296105955	0.0045566969
3981.0584179686	0.0044901455
3982.9872253416	0.0044825617
3984.9160327147	0.0044767493
3986.8448400877	0.0045265765
3988.7736474608	0.0044795075
3990.7024548338	0.0044862558
3992.6312622069	0.0044797296
3994.5600695799	0.0044199871
3996.4888769530	0.0043782429
3998.4176843260	0.0044509890
4000.3464916991	0.0044148415
4002.2752990721	0.0043032449
4004.2041064451	0.0045025097
4006.1329138182	0.0043802224
4008.0617211912	0.0043539740
4009.9905285643	0.0044452175
4011.9193359373	0.0042188321
4013.8481433104	0.0043190131
4015.7769506834	0.0043154145
4017.7057580565	0.0043008253
4019.6345654295	0.0043692198
4021.5633728026	0.0043319156
4023.4921801756	0.0043728575
4025.4209875487	0.0043014577
4027.3497949217	0.0042821905
4029.2786022948	0.0042354921
4031.2074096678	0.0041266554
4033.1362170408	0.0040383320
4035.0650244139	0.0041383849
4036.9938317869	0.0041955118
4038.9226391600	0.0041005355
4040.8514465330	0.0041712690
4042.7802539061	0.0040859375
4044.7090612791	0.0041182991
4046.6378686522	0.0041846409
4048.5666760252	0.0041637309
4050.4954833983	0.0042189965
4052.4242907713	0.0040666573
4054.3530981444	0.0040543620
4056.2819055174	0.0041148039
4058.2107128905	0.0041400790
4060.1395202635	0.0041617053
4062.0683276365	0.0040604919
4063.9971350096	0.0040543950
4065.9259423826	0.0040638261
4067.8547497557	0.0039987206
4069.7835571287	0.0040009683
4071.7123645018	0.0040231277
4073.6411718748	0.0039711259
4075.5699792479	0.0040061809
4077.4987866209	0.0039626351
4079.4275939940	0.0039142785
4081.3564013670	0.0039973506
4083.2852087401	0.0039120596
4085.2140161131	0.0038898066
4087.1428234862	0.0039186869
4089.0716308592	0.0038728234
4091.0004382323	0.0038560785
4092.9292456053	0.0038839187
4094.8580529783	0.0038966001
4096.7868603514	0.0037852763
4098.7156677244	0.0037852912
4100.6444750975	0.0038467462
4102.5732824705	0.0038878634
4104.5020898436	0.0038724926
4106.4308972166	0.0037830763
4108.3597045897	0.0037970778
4110.2885119627	0.0037630578
4112.2173193358	0.0037739901
4114.1461267088	0.0037941467
4116.0749340819	0.0037523604
4118.0037414549	0.0037719910
4119.9325488280	0.0036904328
4121.8613562010	0.0037092837
4123.7901635740	0.0037876042
4125.7189709471	0.0037282729
4127.6477783201	0.0037294850
4129.5765856932	0.0037395102
4131.5053930662	0.0036802054
4133.4342004393	0.0036591503
4135.3630078123	0.0037074513
4137.2918151854	0.0036538758
4139.2206225584	0.0036674431
4141.1494299315	0.0037276619
4143.0782373045	0.0035779495
4145.0070446776	0.0035553332
4146.9358520506	0.0035767637
4148.8646594237	0.0036063064
4150.7934667967	0.0036306374
4152.7222741697	0.0035787136
4154.6510815428	0.0037084748
4156.5798889158	0.0036828807
4158.5086962889	0.0036053802
4160.4375036619	0.0035615228
4162.3663110350	0.0035022437
4164.2951184080	0.0036018398
4166.2239257811	0.0035821309
4168.1527331541	0.0035386579
4170.0815405272	0.0035178566
4172.0103479002	0.0034822545
4173.9391552733	0.0034126947
4175.8679626463	0.0034186591
4177.7967700194	0.0034796074
4179.7255773924	0.0034143447
4181.6543847654	0.0034610161
4183.5831921385	0.0034627607
4185.5119995115	0.0034487455
4187.4408068846	0.0034362080
4189.3696142576	0.0034439270
4191.2984216307	0.0034461450
4193.2272290037	0.0033307429
4195.1560363768	0.0033951371
4197.0848437498	0.0033360827
4199.0136511229	0.0033043367
4200.9424584959	0.0033576759
4202.8712658690	0.0032939385
4204.8000732420	0.0033046033
4206.7288806151	0.0033247822
4208.6576879881	0.0033570840
4210.5864953611	0.0032553563
4212.5153027342	0.0032937150
4214.4441101072	0.0032938607
4216.3729174803	0.0032501779
4218.3017248533	0.0033586151
4220.2305322264	0.0032237531
4222.1593395994	0.0032585347
4224.0881469725	0.0033063604
4226.0169543455	0.0032503339
4227.9457617186	0.0032304679
4229.8745690916	0.0031719990
4231.8033764647	0.0032245219
4233.7321838377	0.0031972195
4235.6609912108	0.0032328852
4237.5897985838	0.0032065166
4239.5186059569	0.0031584557
4241.4474133299	0.0031886604
4243.3762207029	0.0031477828
4245.3050280760	0.0031429187
4247.2338354490	0.0030990364
4249.1626428221	0.0031552536
4251.0914501951	0.0031790279
4253.0202575682	0.0031390616
4254.9490649412	0.0031383806
4256.8778723143	0.0031030737
4258.8066796873	0.0031284729
4260.7354870604	0.0031838794
4262.6642944334	0.0031768135
4264.5931018065	0.0031164791
4266.5219091795	0.0032065311
4268.4507165526	0.0031706402
4270.3795239256	0.0030407580
4272.3083312986	0.0030618499
4274.2371386717	0.0030290592
4276.1659460447	0.0030478025
4278.0947534178	0.0029881774
4280.0235607908	0.0030183122
4281.9523681639	0.0030779946
4283.8811755369	0.0029087411
4285.8099829100	0.0029351856
4287.7387902830	0.0029775826
4289.6675976561	0.0029506842
4291.5964050291	0.0029801824
4293.5252124022	0.0029403726
4295.4540197752	0.0029554795
4297.3828271483	0.0029559005
4299.3116345213	0.0029374198
4301.2404418943	0.0029010600
4303.1692492674	0.0028294737
4305.0980566404	0.0028458079
4307.0268640135	0.0029166525
4308.9556713865	0.0030019234
4310.8844787596	0.0029353308
4312.8132861326	0.0028864052
4314.7420935057	0.0029324987
4316.6709008787	0.0028261151
4318.5997082518	0.0028427946
4320.5285156248	0.0028803051
4322.4573229979	0.0027865942
4324.3861303709	0.0027777376
4326.3149377440	0.0028224210
4328.2437451170	0.0028159716
4330.1725524900	0.0028110277
4332.1013598631	0.0028520310
4334.0301672361	0.0027584597
4335.9589746092	0.0028018048
4337.8877819822	0.0027612012
4339.8165893553	0.0026748106
4341.7453967283	0.0028575505
4343.6742041014	0.0026791212
4345.6030114744	0.0026911281
4347.5318188475	0.0028105066
4349.4606262205	0.0027097575
4351.3894335936	0.0028319429
4353.3182409666	0.0027224487
4355.2470483397	0.0026971013
4357.1758557127	0.0026637709
4359.1046630858	0.0026013651
4361.0334704588	0.0027917875
4362.9622778318	0.0027336874
4364.8910852049	0.0026883059
4366.8198925779	0.0027108523
4368.7486999510	0.0026987249
4370.6775073240	0.0026708967
4372.6063146971	0.0026016887
4374.5351220701	0.0025778534
4376.4639294432	0.0026069398
4378.3927368162	0.0027239271
4380.3215441893	0.0026873350
4382.2503515623	0.0026366585
4384.1791589354	0.0026472290
4386.1079663084	0.0026050743
4388.0367736815	0.0025630957
4389.9655810545	0.0025612377
4391.8943884275	0.0026316983
4393.8231958006	0.0026166071
4395.7520031736	0.0026338808
4397.6808105467	0.0025928151
4399.6096179197	0.0025235261
4401.5384252928	0.0025638826
4403.4672326658	0.0025157933
4405.3960400389	0.0025230579
4407.3248474119	0.0025341506
4409.2536547850	0.0024940888
4411.1824621580	0.0024742396
4413.1112695311	0.0024741385
4415.0400769041	0.0024857940
4416.9688842772	0.0024685985
4418.8976916502	0.0024633394
4420.8264990232	0.0024218119
4422.7553063963	0.0024716204
4424.6841137693	0.0024684316
4426.6129211424	0.0024199118
4428.5417285154	0.0025089514
4430.4705358885	0.0024248713
4432.3993432615	0.0023836941
4434.3281506346	0.0025271024
4436.2569580076	0.0024974034
4438.1857653807	0.0023784311
4440.1145727537	0.0023992083
4442.0433801268	0.0024046313
4443.9721874998	0.0023593770
4445.9009948729	0.0024006008
4447.8298022459	0.0023767101
4449.7586096189	0.0023591528
4451.6874169920	0.0023652457
4453.6162243650	0.0023851744
4455.5450317381	0.0024178510
4457.4738391111	0.0023876270
4459.4026464842	0.0024727662
4461.3314538572	0.0023726108
4463.2602612303	0.0022586850
4465.1890686033	0.0023801273
4467.1178759764	0.0023212712
4469.0466833494	0.0022658035
4470.9754907225	0.0022697842
4472.9042980955	0.0022832868
4474.8331054686	0.0023153003
4476.7619128416	0.0022794795
4478.6907202147	0.0022754432
4480.6195275877	0.0022695749
4482.5483349607	0.0022991884
4484.4771423338	0.0022569746
4486.4059497068	0.0022171154
4488.3347570799	0.0022722832
4490.2635644529	0.0022314196
4492.1923718260	0.0022338824
4494.1211791990	0.0022709833
4496.0499865721	0.0022563855
4497.9787939451	0.0022945043
4499.9076013182	0.0022981344
4501.8364086912	0.0022476553
4503.7652160643	0.0022575650
4505.6940234373	0.0022146800
4507.6228308104	0.0021393052
4509.5516381834	0.0021842155
4511.4804455564	0.0022157524
4513.4092529295	0.0022037183
4515.3380603025	0.0022095814
4517.2668676756	0.0022055632
4519.1956750486	0.0022176923
4521.1244824217	0.0021847673
4523.0532897947	0.0020777199
4524.9820971678	0.0021268090
4526.9109045408	0.0021634223
4528.8397119139	0.0020656616
4530.7685192869	0.0021371874
4532.6973266600	0.0021217568
4534.6261340330	0.0020815898
4536.5549414061	0.0020811488
4538.4837487791	0.0020049028
4540.4125561521	0.0021360328
4542.3413635252	0.0021616225
4544.2701708982	0.0021000640
4546.1989782713	0.0021140461
4548.1277856443	0.0020885051
4550.0565930174	0.0020911917
4551.9854003904	0.0020626958
4553.9142077635	0.0020642080
4555.8430151365	0.0020501530
4557.7718225096	0.0020931992
4559.7006298826	0.0021089022
4561.6294372557	0.0020313587
4563.5582446287	0.0020060698
4565.4870520018	0.0019753880
4567.4158593748	0.0020047748
4569.3446667478	0.0019825292
4571.2734741209	0.0019825152
4573.2022814939	0.0020500093
4575.1310888670	0.0020388905
4577.0598962400	0.0019333926
4578.9887036131	0.0018476151
4580.9175109861	0.0019481232
4582.8463183592	0.0019456053
4584.7751257322	0.0019267246
4586.7039331053	0.0020144628
4588.6327404783	0.0019814991
4590.5615478514	0.0019202891
4592.4903552244	0.0019440480
4594.4191625975	0.0019805296
4596.3479699705	0.0018997336
4598.2767773435	0.0019222717
4600.2055847166	0.0019930517
4602.1343920896	0.0019434073
4604.0631994627	0.0019217939
4605.9920068357	0.0019024140
4607.9208142088	0.0019118886
4609.8496215818	0.0019392432
4611.7784289549	0.0019251276
4613.7072363279	0.0018086962
4615.6360437010	0.0017862036
4617.5648510740	0.0018999607
4619.4936584471	0.0018571527
4621.4224658201	0.0018106364
4623.3512731932	0.0018781051
4625.2800805662	0.0019159963
4627.2088879393	0.0018629837
4629.1376953123	0.0018702510
4631.0665026853	0.0018945755
4632.9953100584	0.0018123696
4634.9241174314	0.0017859424
4636.8529248045	0.0017782608
4638.7817321775	0.0017952278
4640.7105395506	0.0018046087
4642.6393469236	0.0017532047
4644.5681542967	0.0017820831
4646.4969616697	0.0017969325
4648.4257690428	0.0017373427
4650.3545764158	0.0017944884
4652.2833837889	0.0018426459
4654.2121911619	0.0017578527
4656.1409985350	0.0017729402
4658.0698059080	0.0017197833
4659.9986132810	0.0016854188
4661.9274206541	0.0018142418
4663.8562280271	0.0017816143
4665.7850354002	0.0017354649
4667.7138427732	0.0017170062
4669.6426501463	0.0016905410
4671.5714575193	0.0017089651
4673.5002648924	0.0017319235
4675.4290722654	0.0017900310
4677.3578796385	0.0017534872
4679.2866870115	0.0016864284
4681.2154943846	0.0016595817
4683.1443017576	0.0016984503
4685.0731091307	0.0017354980
4687.0019165037	0.0016933228
4688.9307238767	0.0017116118
4690.8595312498	0.0017118270
4692.7883386228	0.0016550208
4694.7171459959	0.0016460763
4696.6459533689	0.0016667305
4698.5747607420	0.0016117764
4700.5035681150	0.0016609888
4702.4323754881	0.0017185309
4704.3611828611	0.0016232482
4706.2899902342	0.0017181271
4708.2187976072	0.0016624279
4710.1476049803	0.0015342478
4712.0764123533	0.0016813333
4714.0052197264	0.0016659328
4715.9340270994	0.0016034006
4717.8628344724	0.0016332082
4719.7916418455	0.0016300399
4721.7204492185	0.0015691072
4723.6492565916	0.0015776618
4725.5780639646	0.0016579097
4727.5068713377	0.0015861001
4729.4356787107	0.0015490815
4731.3644860838	0.0016014482
4733.2932934568	0.0016585691
4735.2221008299	0.0016148759
4737.1509082029	0.0015966122
4739.0797155760	0.0016340605
4741.0085229490	0.0014879990
4742.9373303221	0.0015368448
4744.8661376951	0.0016117271
4746.7949450682	0.0015259442
4748.7237524412	0.0015520877
4750.6525598142	0.0015916690
4752.5813671873	0.0016347873
4754.5101745603	0.0015271399
4756.4389819334	0.0014642226
4758.3677893064	0.0015416737
4760.2965966795	0.0015396355
4762.2254040525	0.0015369104
4764.1542114256	0.0015549094
4766.0830187986	0.0016211687
4768.0118261717	0.0015325469
4769.9406335447	0.0014931634
4771.8694409178	0.0015732757
4773.7982482908	0.0014534467
4775.7270556639	0.0014546198
4777.6558630369	0.0015231954
4779.5846704099	0.0015051413
4781.5134777830	0.0014927611
4783.4422851560	0.0014880663
4785.3710925291	0.0015059214
4787.2998999021	0.0014153158
4789.2287072752	0.0014150699
4791.1575146482	0.0014769548
4793.0863220213	0.0014428091
4795.0151293943	0.0014311615
4796.9439367674	0.0014116873
4798.8727441404	0.0014644966
4800.8015515135	0.0014312705
4802.7303588865	0.0013687063
4804.6591662596	0.0015034572
4806.5879736326	0.0014861119
4808.5167810056	0.0013799450
4810.4455883787	0.0014213335
4812.3743957517	0.0014690354
4814.3032031248	0.0014291171
4816.2320104978	0.0013758370
4818.1608178709	0.0014205521
4820.0896252439	0.0013977132
4822.0184326170	0.0013912499
4823.9472399900	0.0014402089
4825.8760473631	0.0013591119
4827.8048547361	0.0013671783
4829.7336621092	0.0014081169
4831.6624694822	0.0013532276
4833.5912768553	0.0013180841
4835.5200842283	0.0013278527
4837.4488916013	0.0013937454
4839.3776989744	0.0013939838
4841.3065063474	0.0013719066
4843.2353137205	0.0013624034
4845.1641210935	0.0013226285
4847.0929284666	0.0013261888
4849.0217358396	0.0012915039
4850.9505432127	0.0013259853
4852.8793505857	0.0014048528
4854.8081579588	0.0013033054
4856.7369653318	0.0012589961
4858.6657727049	0.0013109944
4860.5945800779	0.0012919528
4862.5233874510	0.0012825953
4864.4521948240	0.0012661547
4866.3810021971	0.0012797643
4868.3098095701	0.0013285754
4870.2386169431	0.0013458682
4872.1674243162	0.0013494954
4874.0962316892	0.0013235521
4876.0250390623	0.0013093912
4877.9538464353	0.0012870466
4879.8826538084	0.0012526347
4881.8114611814	0.0012734104
4883.7402685545	0.0013089709
4885.6690759275	0.0013058984
4887.5978833006	0.0012621345
4889.5266906736	0.0012356321
4891.4554980467	0.0012090572
4893.3843054197	0.0011732155
4895.3131127928	0.0012613877
4897.2419201658	0.0013428929
4899.1707275388	0.0012303633
4901.0995349119	0.0011529799
4903.0283422849	0.0012256353
4904.9571496580	0.0012766311
4906.8859570310	0.0012587509
4908.8147644041	0.0012550307
4910.7435717771	0.0012327195
4912.6723791502	0.0011763850
4914.6011865232	0.0012340380
4916.5299938963	0.0012388427
4918.4588012693	0.0011551685
4920.3876086424	0.0011724532
4922.3164160154	0.0011901541
4924.2452233885	0.0012625281
4926.1740307615	0.0012594146
4928.1028381345	0.0011273407
4930.0316455076	0.0011472711
4931.9604528806	0.0011870936
4933.8892602537	0.0011897420
4935.8180676267	0.0012344706
4937.7468749998	0.0012062117
4939.6756823728	0.0011634198
4941.6044897459	0.0011736221
4943.5332971189	0.0012024872
4945.4621044920	0.0012172798
4947.3909118650	0.0011487745
4949.3197192381	0.0011776104
4951.2485266111	0.0012563386
4953.1773339842	0.0011557364
4955.1061413572	0.0011154769
4957.0349487302	0.0011282015
4958.9637561033	0.0011518851
4960.8925634763	0.0011888043
4962.8213708494	0.0010951799
4964.7501782224	0.0011047694
4966.6789855955	0.0011758034
4968.6077929685	0.0011536956
4970.5366003416	0.0011373586
4972.4654077146	0.0010876223
4974.3942150877	0.0010457507
4976.3230224607	0.0010951218
4978.2518298338	0.0011049213
4980.1806372068	0.0010646824
4982.1094445799	0.0011312183
4984.0382519529	0.0011913357
4985.9670593259	0.0011119447
4987.8958666990	0.0010445189
4989.8246740720	0.0011245238
4991.7534814451	0.0011174243
4993.6822888181	0.0010642931
4995.6110961912	0.0010763810
4997.5399035642	0.0010083277
4999.4687109373	0.0010926096
5001.3975183103	0.0010618947
5003.3263256834	0.0009754257
5005.2551330564	0.0011028443
5007.1839404295	0.0010267639
5009.1127478025	0.0010235729
5011.0415551756	0.0010937168
5012.9703625486	0.0010286780
5014.8991699217	0.0010104683
5016.8279772947	0.0009842850
5018.7567846677	0.0009783749
5020.6855920408	0.0009956771
5022.6143994138	0.0010596437
5024.5432067869	0.0010111072
5026.4720141599	0.0009171715
5028.4008215330	0.0009696955
5030.3296289060	0.0009781109
5032.2584362791	0.0010207171
5034.1872436521	0.0010452342
5036.1160510252	0.0009406484
5038.0448583982	0.0009499073
5039.9736657713	0.0010275133
5041.9024731443	0.0009873704
5043.8312805174	0.0009552896
5045.7600878904	0.0009971401
5047.6888952634	0.0010010960
5049.6177026365	0.0009879373
5051.5465100095	0.0009951680
5053.4753173826	0.0009432816
5055.4041247556	0.0009140769
5057.3329321287	0.0009761814
5059.2617395017	0.0009820694
5061.1905468748	0.0009821459
5063.1193542478	0.0010101527
5065.0481616209	0.0009966935
5066.9769689939	0.0009867667
5068.9057763670	0.0010053893
5070.8345837400	0.0009904276
5072.7633911131	0.0009715834
5074.6921984861	0.0009971251
5076.6210058591	0.0009086702
5078.5498132322	0.0009021454
5080.4786206052	0.0009601257
5082.4074279783	0.0009122461
5084.3362353513	0.0008996331
5086.2650427244	0.0008965610
5088.1938500974	0.0010059685
5090.1226574705	0.0009828452
5092.0514648435	0.0009350458
5093.9802722166	0.0009810748
5095.9090795896	0.0009169449
5097.8378869627	0.0010017505
5099.7666943357	0.0009237339
5101.6955017088	0.0008516541
5103.6243090818	0.0009572349
5105.5531164548	0.0009034997
5107.4819238279	0.0009066092
5109.4107312009	0.0009271353
5111.3395385740	0.0008695463
5113.2683459470	0.0008288178
5115.1971533201	0.0009138466
5117.1259606931	0.0008953646
5119.0547680662	0.0008352248
5120.9835754392	0.0009187884
5122.9123828123	0.0008982746
5124.8411901853	0.0008581309
5126.7699975584	0.0008313641
5128.6988049314	0.0009108370
5130.6276123045	0.0008883211
5132.5564196775	0.0008240687
5134.4852270506	0.0008977696
5136.4140344236	0.0007935934
5138.3428417966	0.0008389474
5140.2716491697	0.0008678193
5142.2004565427	0.0007919003
5144.1292639158	0.0008824877
5146.0580712888	0.0008682968
5147.9868786619	0.0008382497
5149.9156860349	0.0008734533
5151.8444934080	0.0008589402
5153.7733007810	0.0007884979
5155.7021081541	0.0008204281
5157.6309155271	0.0008582431
5159.5597229002	0.0008203553
5161.4885302732	0.0008546917
5163.4173376463	0.0008343935
5165.3461450193	0.0008235142
5167.2749523923	0.0008427185
5169.2037597654	0.0008636202
5171.1325671384	0.0008460546
5173.0613745115	0.0007511021
5174.9901818845	0.0008148279
5176.9189892576	0.0008963904
5178.8477966306	0.0008218979
5180.7766040037	0.0008095141
5182.7054113767	0.0008311251
5184.6342187498	0.0007631871
5186.5630261228	0.0008250969
5188.4918334959	0.0008764957
5190.4206408689	0.0007928818
5192.3494482420	0.0008743693
5194.2782556150	0.0008602167
5196.2070629880	0.0007592772
5198.1358703611	0.0007901479
5200.0646777341	0.0007281695
5201.9934851072	0.0007486185
5203.9222924802	0.0007833329
5205.8510998533	0.0007342823
5207.7799072263	0.0007449932
5209.7087145994	0.0007108444
5211.6375219724	0.0008171985
5213.5663293455	0.0008403645
5215.4951367185	0.0007175779
5217.4239440916	0.0007479038
5219.3527514646	0.0007115776
5221.2815588377	0.0007887234
5223.2103662107	0.0008132255
5225.1391735837	0.0006674214
5227.0679809568	0.0007411806
5228.9967883298	0.0007797517
5230.9255957029	0.0007799088
5232.8544030759	0.0008023643
5234.7832104490	0.0007415278
5236.7120178220	0.0007237700
5238.6408251951	0.0007561968
5240.5696325681	0.0007826692
5242.4984399412	0.0007409803
5244.4272473142	0.0006799638
5246.3560546873	0.0006724007
5248.2848620603	0.0007014584
5250.2136694334	0.0006761113
5252.1424768064	0.0006813051
5254.0712841795	0.0007413036
5256.0000915525	0.0007421271
5257.9288989255	0.0006928876
5259.8577062986	0.0006892361
5261.7865136716	0.0007911041
5263.7153210447	0.0006977003
5265.6441284177	0.0006280447
5267.5729357908	0.0007048991
5269.5017431638	0.0006170702
5271.4305505369	0.0006652694
5273.3593579099	0.0007358356
5275.2881652830	0.0006994129
5277.2169726560	0.0007360490
5279.1457800291	0.0007408011
5281.0745874021	0.0007002883
5283.0033947752	0.0006716293
5284.9322021482	0.0006866361
5286.8610095212	0.0006816987
5288.7898168943	0.0006641838
5290.7186242673	0.0006860560
5292.6474316404	0.0007277902
5294.5762390134	0.0007040461
5296.5050463865	0.0007271822
5298.4338537595	0.0007009186
5300.3626611326	0.0005655984
5302.2914685056	0.0007390263
5304.2202758787	0.0008188289
5306.1490832517	0.0006638630
5308.0778906248	0.0006098344
5310.0066979978	0.0005910624
5311.9355053709	0.0007069142
5313.8643127439	0.0007175441
5315.7931201169	0.0006617908
5317.7219274900	0.0007040498
5319.6507348630	0.0007437491
5321.5795422361	0.0006957951
5323.5083496091	0.0005774662
5325.4371569822	0.0006577095
5327.3659643552	0.0006366341
5329.2947717283	0.0005590223
5331.2235791013	0.0006147145
5333.1523864744	0.0005778600
5335.0811938474	0.0006331542
5337.0100012205	0.0006651757
5338.9388085935	0.0006061289
5340.8676159666	0.0005816640
5342.7964233396	0.0005838842
5344.7252307126	0.0005922362
5346.6540380857	0.0005670824
5348.5828454587	0.0006506958
5350.5116528318	0.0006846226
5352.4404602048	0.0006276752
5354.3692675779	0.0006131114
5356.2980749509	0.0006084674
5358.2268823240	0.0006478494
5360.1556896970	0.0006274399
5362.0844970701	0.0005947259
5364.0133044431	0.0005752645
5365.9421118162	0.0005838739
5367.8709191892	0.0006391570
5369.7997265623	0.0006146280
5371.7285339353	0.0006349308
5373.6573413083	0.0006382442
5375.5861486814	0.0005938790
5377.5149560544	0.0005742478
5379.4437634275	0.0005747348
5381.3725708005	0.0006414382
5383.3013781736	0.0005937243
5385.2301855466	0.0005672595
5387.1589929197	0.0005865689
5389.0878002927	0.0005769914
5391.0166076658	0.0006550242
5392.9454150388	0.0006000743
5394.8742224119	0.0005489108
5396.8030297849	0.0005744725
5398.7318371580	0.0005623603
5400.6606445310	0.0005627382
5402.5894519041	0.0005358184
5404.5182592771	0.0005600135
5406.4470666501	0.0005701382
5408.3758740232	0.0005923028
5410.3046813962	0.0005822025
5412.2334887693	0.0005458212
5414.1622961423	0.0005671551
5416.0911035154	0.0005308139
5418.0199108884	0.0005628327
5419.9487182615	0.0005608657
5421.8775256345	0.0005805109
5423.8063330076	0.0006204004
5425.7351403806	0.0005331413
5427.6639477537	0.0005243043
5429.5927551267	0.0005221774
5431.5215624998	0.0005857850
5433.4503698728	0.0005363092
5435.3791772458	0.0004266406
5437.3079846189	0.0005340093
5439.2367919919	0.0005339411
5441.1655993650	0.0005327640
5443.0944067380	0.0005195540
5445.0232141111	0.0005050862
5446.9520214841	0.0005373200
5448.8808288572	0.0004551408
5450.8096362302	0.0004918059
5452.7384436033	0.0004812086
5454.6672509763	0.0004421502
5456.5960583494	0.0005122253
5458.5248657224	0.0005058288
5460.4536730955	0.0005061257
5462.3824804685	0.0005139909
5464.3112878415	0.0004944539
5466.2400952146	0.0004524550
5468.1689025876	0.0004415349
5470.0977099607	0.0005074303
5472.0265173337	0.0005341298
5473.9553247068	0.0004932863
5475.8841320798	0.0004588884
5477.8129394529	0.0004460814
5479.7417468259	0.0005491840
5481.6705541990	0.0006222280
5483.5993615720	0.0004924798
5485.5281689451	0.0005042680
5487.4569763181	0.0005211787
5489.3857836912	0.0004782922
5491.3145910642	0.0005165163
5493.2433984372	0.0004279705
5495.1722058103	0.0004890012
5497.1010131833	0.0005695104
5499.0298205564	0.0004712081
5500.9586279294	0.0004141795
5502.8874353025	0.0004150519
5504.8162426755	0.0004623168
5506.7450500486	0.0004544004
5508.6738574216	0.0004984423
5510.6026647947	0.0005323723
5512.5314721677	0.0004787400
5514.4602795408	0.0004794726
5516.3890869138	0.0005127249
5518.3178942869	0.0004969527
5520.2467016599	0.0004083935
5522.1755090330	0.0004215450
5524.1043164060	0.0004798715
5526.0331237790	0.0004775755
5527.9619311521	0.0004269923
5529.8907385251	0.0004133670
5531.8195458982	0.0004501752
5533.7483532712	0.0004704212
5535.6771606443	0.0005426459
5537.6059680173	0.0004798047
5539.5347753904	0.0004421592
5541.4635827634	0.0004563632
5543.3923901365	0.0004025047
5545.3211975095	0.0004900235
5547.2500048826	0.0004548531
5549.1788122556	0.0003764405
5551.1076196287	0.0004571890
5553.0364270017	0.0005012272
5554.9652343747	0.0004692932
5556.8940417478	0.0004445754
5558.8228491208	0.0004313073
5560.7516564939	0.0004063647
5562.6804638669	0.0004581392
5564.6092712400	0.0004171882
5566.5380786130	0.0003605365
5568.4668859861	0.0003953150
5570.3956933591	0.0003949099
5572.3245007322	0.0004780200
5574.2533081052	0.0004534560
5576.1821154783	0.0003737157
5578.1109228513	0.0004132953
5580.0397302244	0.0004106608
5581.9685375974	0.0004434017
5583.8973449704	0.0004171607
5585.8261523435	0.0003383896
5587.7549597165	0.0004239986
5589.6837670896	0.0004594298
5591.6125744626	0.0003796580
5593.5413818357	0.0004483573
5595.4701892087	0.0005210605
5597.3989965818	0.0004432807
5599.3278039548	0.0004427268
5601.2566113279	0.0004277151
5603.1854187009	0.0003761905
5605.1142260740	0.0004385611
5607.0430334470	0.0004096171
5608.9718408201	0.0003712030
5610.9006481931	0.0003870919
5612.8294555661	0.0004171973
5614.7582629392	0.0004528784
5616.6870703122	0.0003731245
5618.6158776853	0.0004297421
5620.5446850583	0.0004636601
5622.4734924314	0.0003996409
5624.4022998044	0.0004092426
5626.3311071775	0.0003102333
5628.2599145505	0.0003497909
5630.1887219236	0.0004231338
5632.1175292966	0.0003832321
5634.0463366697	0.0004027977
5635.9751440427	0.0003795088
5637.9039514158	0.0003680926
5639.8327587888	0.0003410955
5641.7615661619	0.0003410054
5643.6903735349	0.0003767307
5645.6191809079	0.0003872276
5647.5479882810	0.0004437439
5649.4767956540	0.0003964910
5651.4056030271	0.0003430296
5653.3344104001	0.0004120184
5655.2632177732	0.0003844399
5657.1920251462	0.0003728461
5659.1208325193	0.0003935929
5661.0496398923	0.0002912733
5662.9784472654	0.0003264218
5664.9072546384	0.0004066581
5666.8360620115	0.0003877351
5668.7648693845	0.0003696571
5670.6936767576	0.0003768702
5672.6224841306	0.0004407931
5674.5512915036	0.0003951678
5676.4800988767	0.0003962896
5678.4089062497	0.0004134196
5680.3377136228	0.0003548065
5682.2665209958	0.0003898846
5684.1953283689	0.0003776401
5686.1241357419	0.0003678930
5688.0529431150	0.0003426734
5689.9817504880	0.0003497146
5691.9105578611	0.0003747804
5693.8393652341	0.0003363464
5695.7681726072	0.0003708056
5697.6969799802	0.0003765782
5699.6257873533	0.0003634766
5701.5545947263	0.0003575427
5703.4834020993	0.0003949336
5705.4122094724	0.0003549498
5707.3410168454	0.0002897108
5709.2698242185	0.0003435828
5711.1986315915	0.0003067844
5713.1274389646	0.0003017235
5715.0562463376	0.0003191797
5716.9850537107	0.0003627627
5718.9138610837	0.0003983546
5720.8426684568	0.0003616896
5722.7714758298	0.0003647236
5724.7002832029	0.0003246308
5726.6290905759	0.0003392503
5728.5578979490	0.0003053457
5730.4867053220	0.0003148026
5732.4155126950	0.0003742707
5734.3443200681	0.0002814345
5736.2731274411	0.0003068120
5738.2019348142	0.0003485222
5740.1307421872	0.0003268869
5742.0595495603	0.0003826080
5743.9883569333	0.0003478961
5745.9171643064	0.0002434843
5747.8459716794	0.0002945390
5749.7747790525	0.0003503583
5751.7035864255	0.0003393202
5753.6323937986	0.0003265675
5755.5612011716	0.0003078818
5757.4900085447	0.0003807253
5759.4188159177	0.0002937412
5761.3476232907	0.0002823481
5763.2764306638	0.0003849374
5765.2052380368	0.0002583974
5767.1340454099	0.0002793454
5769.0628527829	0.0002828581
5770.9916601560	0.0002149525
5772.9204675290	0.0003377785
5774.8492749021	0.0003839905
5776.7780822751	0.0003109311
5778.7068896482	0.0002420283
5780.6356970212	0.0002579733
5782.5645043943	0.0003216416
5784.4933117673	0.0003196644
5786.4221191404	0.0003432537
5788.3509265134	0.0004056939
5790.2797338865	0.0003434698
5792.2085412595	0.0002801860
5794.1373486325	0.0002771403
5796.0661560056	0.0002679477
5797.9949633786	0.0003195970
5799.9237707517	0.0002966236
5801.8525781247	0.0002415991
5803.7813854978	0.0002535993
5805.7101928708	0.0002801754
5807.6390002439	0.0002993662
5809.5678076169	0.0002703065
5811.4966149900	0.0002860593
5813.4254223630	0.0003686889
5815.3542297361	0.0003589853
5817.2830371091	0.0002870963
5819.2118444822	0.0003132736
5821.1406518552	0.0002990794
5823.0694592282	0.0002856106
5824.9982666013	0.0003115146
5826.9270739743	0.0002693217
5828.8558813474	0.0002682618
5830.7846887204	0.0002133292
5832.7134960935	0.0002703684
5834.6423034665	0.0003344237
5836.5711108396	0.0002356031
5838.4999182126	0.0003206189
5840.4287255857	0.0003246830
5842.3575329587	0.0002499225
5844.2863403318	0.0003128154
5846.2151477048	0.0003036197
5848.1439550779	0.0003026832
5850.0727624509	0.0003364946
5852.0015698239	0.0002894822
5853.9303771970	0.0002519653
5855.8591845700	0.0003063362
5857.7879919431	0.0002369396
5859.7167993161	0.0001930021
5861.6456066892	0.0002919654
5863.5744140622	0.0002071052
5865.5032214353	0.0002140055
5867.4320288083	0.0002892817
5869.3608361814	0.0002312038
5871.2896435544	0.0002848946
5873.2184509275	0.0002744001
5875.1472583005	0.0002613255
5877.0760656736	0.0003198748
5879.0048730466	0.0002706757
5880.9336804196	0.0002522242
5882.8624877927	0.0002744509
5884.7912951657	0.0002731901
5886.7201025388	0.0002378782
5888.6489099118	0.0001882611
5890.5777172849	0.0002180924
5892.5065246579	0.0003079628
5894.4353320310	0.0003170411
5896.3641394040	0.0002717032
5898.2929467771	0.0002321429
5900.2217541501	0.0002130542
5902.1505615232	0.0002630747
5904.0793688962	0.0001840496
5906.0081762693	0.0001632621
5907.9369836423	0.0002629207
5909.8657910154	0.0002233264
5911.7945983884	0.0002386856
5913.7234057614	0.0002041588
5915.6522131345	0.0001807776
5917.5810205075	0.0002604462
5919.5098278806	0.0002328102
5921.4386352536	0.0001985277
5923.3674426267	0.0001778724
5925.2962499997	0.0002197517
5927.2250573728	0.0002367552
5929.1538647458	0.0002197307
5931.0826721189	0.0002745935
5933.0114794919	0.0002706512
5934.9402868650	0.0002418636
5936.8690942380	0.0002130139
5938.7979016111	0.0002521809
5940.7267089841	0.0003073907
5942.6555163571	0.0002413240
5944.5843237302	0.0002554064
5946.5131311032	0.0002648795
5948.4419384763	0.0001466018
5950.3707458493	0.0002124336
5952.2995532224	0.0002786578
5954.2283605954	0.0001744966
5956.1571679685	0.0001837333
5958.0859753415	0.0002209549
5960.0147827146	0.0002325579
5961.9435900876	0.0002413380
5963.8723974607	0.0002769725
5965.8012048337	0.0002473211
5967.7300122068	0.0001852938
5969.6588195798	0.0002395005
5971.5876269528	0.0001878950
5973.5164343259	0.0002366606
5975.4452416989	0.0002330415
5977.3740490720	0.0001684563
5979.3028564450	0.0002857365
5981.2316638181	0.0001939559
5983.1604711911	0.0001841591
5985.0892785642	0.0002252055
5987.0180859372	0.0001898423
5988.9468933103	0.0001981678
5990.8757006833	0.0001345447
5992.8045080564	0.0002218707
5994.7333154294	0.0002069763
5996.6621228025	0.0001701905
5998.5909301755	0.0002558450
6000.5197375485	0.0002123118
