399.2631262207	0.0010025077
401.1919335938	0.0007938076
403.1207409668	0.0012598147
405.0495483398	0.0008084606
406.9783557129	0.0007394135
408.9071630859	0.0015166397
410.8359704590	0.0011931598
412.7647778320	0.0013082934
414.6935852051	0.0012349485
416.6223925781	0.0010106519
418.5511999512	0.0014259870
420.4800073242	0.0010546204
422.4088146973	0.0008496401
424.3376220703	0.0009632379
426.2664294434	0.0013921666
428.1952368164	0.0015061733
430.1240441895	0.0010863291
432.0528515625	0.0014583529
433.9816589355	0.0009883740
435.9104663086	0.0008433758
437.8392736816	0.0015418225
439.7680810547	0.0013869256
441.6968884277	0.0011673096
443.6256958008	0.0011702731
445.5545031738	0.0013698670
447.4833105469	0.0010895329
449.4121179199	0.0011297469
451.3409252930	0.0011377706
453.2697326660	0.0006266847
455.1985400391	0.0009526103
457.1273474121	0.0010306247
459.0561547852	0.0007837837
460.9849621582	0.0008177821
462.9137695313	0.0010322190
464.8425769043	0.0007289737
466.7713842773	0.0003544293
468.7001916504	0.0004806411
470.6289990234	0.0004653177
472.5578063965	0.0008424817
474.4866137695	0.0005443559
476.4154211426	0.0002840676
478.3442285156	0.0006369689
480.2730358887	0.0005546270
482.2018432617	0.0005253362
484.1306506348	0.0006908036
486.0594580078	0.0006723821
487.9882653809	0.0003453657
489.9170727539	0.0006276066
491.8458801270	0.0002936147
493.7746875000	0.0003068555
495.7034948730	0.0004036286
497.6323022461	0.0001747283
499.5611096191	0.0008266123
501.4899169922	0.0005428283
503.4187243652	0.0005656765
505.3475317383	0.0002584412
507.2763391113	0.0001624055
509.2051464844	0.0003264400
511.1339538574	0.0000772497
513.0627612305	0.0006811054
514.9915686035	0.0005355933
516.9203759766	0.0008242255
518.8491833496	0.0007092428
520.7779907227	0.0003719358
522.7067980957	0.0005571455
524.6356054688	0.0001442519
526.5644128418	0.0006275991
528.4932202148	0.0005876824
530.4220275879	0.0004037737
532.3508349609	0.0001802408
534.2796423340	0.0000287639
536.2084497070	0.0006541932
538.1372570801	0.0003971794
540.0660644531	0.0005977057
541.9948718262	0.0004447990
543.9236791992	0.0001687557
545.8524865723	0.0009039748
547.7812939453	0.0006268304
549.7101013184	0.0001685928
551.6389086914	0.0006131218
553.5677160645	0.0007573635
555.4965234375	0.0003587853
557.4253308105	0.0004393916
559.3541381836	0.0004129796
561.2829455566	0.0004493134
563.2117529297	0.0002688190
565.1405603027	0.0000261973
567.0693676758	0.0007376193
568.9981750488	0.0004053781
570.9269824219	0.0002486373
572.8557897949	0.0003763758
574.7845971680	0.0004085501
576.7134045410	0.0009320970
578.6422119141	-0.0000384903
580.5710192871	0.0001466185
582.4998266602	0.0005641732
584.4286340332	-0.0000378349
586.3574414063	0.0006360683
588.2862487793	0.0004658102
590.2150561523	0.0001891233
592.1438635254	0.0002975633
594.0726708984	0.0000242792
596.0014782715	0.0004402137
597.9302856445	0.0006361038
599.8590930176	0.0003489946
601.7879003906	0.0003469918
603.7167077637	0.0004326030
605.6455151367	0.0004161936
607.5743225098	0.0006774401
609.5031298828	0.0002028150
611.4319372559	0.0000064309
613.3607446289	0.0006462447
615.2895520020	0.0003516613
617.2183593750	0.0001874481
619.1471667480	0.0004565900
621.0759741211	0.0004331629
623.0047814941	0.0000274032
624.9335888672	0.0003672481
626.8623962402	0.0003652983
628.7912036133	-0.0000485938
630.7200109863	0.0006997938
632.6488183594	0.0008710655
634.5776257324	0.0009576080
636.5064331055	0.0009147599
638.4352404785	0.0012012770
640.3640478516	0.0016102610
642.2928552246	0.0012026498
644.2216625977	0.0018604514
646.1504699707	0.0021025948
648.0792773438	0.0015360405
650.0080847168	0.0019878203
651.9368920898	0.0019780868
653.8656994629	0.0020359829
655.7945068359	0.0022917024
657.7233142090	0.0021377304
659.6521215820	0.0026912100
661.5809289551	0.0024408642
663.5097363281	0.0023817928
665.4385437012	0.0028003994
667.3673510742	0.0023525362
669.2961584473	0.0030598352
671.2249658203	0.0033222558
673.1537731934	0.0031528152
675.0825805664	0.0032937243
677.0113879395	0.0029718708
678.9401953125	0.0037612154
680.8690026855	0.0036893459
682.7978100586	0.0032732224
684.7266174316	0.0037645989
686.6554248047	0.0035133706
688.5842321777	0.0033665879
690.5130395508	0.0035544727
692.4418469238	0.0038334702
694.3706542969	0.0041725757
696.2994616699	0.0049064895
698.2282690430	0.0055237077
700.1570764160	0.0055199256
702.0858837891	0.0056886650
704.0146911621	0.0053360434
705.9434985352	0.0047313403
707.8723059082	0.0042758882
709.8011132813	0.0034085787
711.7299206543	0.0025061537
713.6587280273	0.0017404036
715.5875354004	0.0008431100
717.5163427734	0.0005487632
719.4451501465	0.0006720402
721.3739575195	0.0001675896
723.3027648926	0.0004850542
725.2315722656	0.0007248581
727.1603796387	-0.0000998112
729.0891870117	0.0001353189
731.0179943848	0.0002717703
732.9468017578	-0.0001467959
734.8756091309	0.0002394427
736.8044165039	0.0004998076
738.7332238770	0.0003369308
740.6620312500	0.0001963871
742.5908386230	0.0005160992
744.5196459961	0.0005683388
746.4484533691	0.0003153114
748.3772607422	0.0003734920
750.3060681152	0.0002755436
752.2348754883	0.0005579043
754.1636828613	0.0004616396
756.0924902344	0.0002050055
758.0212976074	0.0001763204
759.9501049805	0.0003362241
761.8789123535	0.0006085746
763.8077197266	0.0003330717
765.7365270996	0.0002088072
767.6653344727	0.0006163486
769.5941418457	0.0006698753
771.5229492188	0.0004069021
773.4517565918	0.0003749200
775.3805639648	0.0004197747
777.3093713379	0.0003317475
779.2381787109	0.0006677330
781.1669860840	0.0006409651
783.0957934570	0.0003543120
785.0246008301	0.0005968616
786.9534082031	0.0004502769
788.8822155762	0.0004956202
790.8110229492	0.0007265046
792.7398303223	0.0007235083
794.6686376953	0.0004933372
796.5974450684	0.0004940886
798.5262524414	0.0011227094
800.4550598145	0.0010737239
802.3838671875	0.0011639332
804.3126745605	0.0008724106
806.2414819336	0.0006206215
808.1702893066	0.0009579362
810.0990966797	0.0003749592
812.0279040527	0.0007051112
813.9567114258	0.0006886305
815.8855187988	0.0004570683
817.8143261719	0.0006603620
819.7431335449	0.0001690929
821.6719409180	0.0006725279
823.6007482910	0.0004951138
825.5295556641	0.0002480786
827.4583630371	0.0008626225
829.3871704102	0.0009485423
831.3159777832	0.0011980626
833.2447851563	0.0015202705
835.1735925293	0.0017194864
837.1023999023	0.0014590336
839.0312072754	0.0014625466
840.9600146484	0.0016220124
842.8888220215	0.0015023198
844.8176293945	0.0015162689
846.7464367676	0.0013408574
848.6752441406	0.0012904829
850.6040515137	0.0013621787
852.5328588867	0.0013533486
854.4616662598	0.0011344459
856.3904736328	0.0012880391
858.3192810059	0.0010800976
860.2480883789	0.0005626404
862.1768957520	0.0008413066
864.1057031250	0.0006093319
866.0345104980	0.0004956456
867.9633178711	0.0007454185
869.8921252441	0.0004908495
871.8209326172	0.0004356696
873.7497399902	0.0005927595
875.6785473633	0.0002688280
877.6073547363	0.0002508027
879.5361621094	0.0007628328
881.4649694824	0.0005021044
883.3937768555	0.0003624683
885.3225842285	0.0004296004
887.2513916016	0.0002912810
889.1801989746	0.0004693578
891.1090063477	0.0007177666
893.0378137207	0.0006966212
894.9666210938	0.0003239080
896.8954284668	0.0003612273
898.8242358398	0.0003385019
900.7530432129	0.0002747643
902.6818505859	0.0004882192
904.6106579590	0.0004570002
906.5394653320	0.0005576928
908.4682727051	0.0005034310
910.3970800781	0.0006614704
912.3258874512	0.0011108718
914.2546948242	0.0013045311
916.1835021973	0.0012774712
918.1123095703	0.0012854132
920.0411169434	0.0014522187
921.9699243164	0.0015254203
923.8987316895	0.0016688994
925.8275390625	0.0016358028
927.7563464355	0.0019544875
929.6851538086	0.0022475417
931.6139611816	0.0021775251
933.5427685547	0.0026893714
935.4715759277	0.0028680074
937.4003833008	0.0028073872
939.3291906738	0.0029132336
941.2579980469	0.0029711477
943.1868054199	0.0029792376
945.1156127930	0.0028453842
947.0444201660	0.0031006332
948.9732275391	0.0031924634
950.9020349121	0.0029829619
952.8308422852	0.0029167705
954.7596496582	0.0029237401
956.6884570313	0.0030785170
958.6172644043	0.0030627071
960.5460717773	0.0030227876
962.4748791504	0.0032803670
964.4036865234	0.0033316948
966.3324938965	0.0031454721
968.2613012695	0.0033714098
970.1901086426	0.0036220243
972.1189160156	0.0036931010
974.0477233887	0.0040148650
975.9765307617	0.0042654192
977.9053381348	0.0044463263
979.8341455078	0.0047378889
981.7629528809	0.0052667847
983.6917602539	0.0060030371
985.6205676270	0.0066406894
987.5493750000	0.0073409849
989.4781823730	0.0081161875
991.4069897461	0.0090317056
993.3357971191	0.0100896135
995.2646044922	0.0109722149
997.1934118652	0.0117012775
999.1222192383	0.0125126615
1001.0510266113	0.0134340525
1002.9798339844	0.0143355923
1004.9086413574	0.0153591391
1006.8374487305	0.0164838545
1008.7662561035	0.0176625475
1010.6950634766	0.0185703319
1012.6238708496	0.0193590298
1014.5526782227	0.0205110814
1016.4814855957	0.0213662572
1018.4102929688	0.0223915689
1020.3391003418	0.0235984363
1022.2679077148	0.0244780555
1024.1967150879	0.0256206412
1026.1255224609	0.0264758691
1028.0543298340	0.0271661617
1029.9831372070	0.0281509198
1031.9119445801	0.0289989226
1033.8407519531	0.0294115003
1035.7695593262	0.0298602544
1037.6983666992	0.0303540360
1039.6271740723	0.0302779675
1041.5559814453	0.0303804912
1043.4847888184	0.0302241314
1045.4135961914	0.0296808816
1047.3424035645	0.0295076128
1049.2712109375	0.0292108506
1051.2000183105	0.0285289828
1053.1288256836	0.0277191810
1055.0576330566	0.0273738839
1056.9864404297	0.0269855745
1058.9152478027	0.0263355188
1060.8440551758	0.0254614018
1062.7728625488	0.0245194640
1064.7016699219	0.0237182733
1066.6304772949	0.0226527601
1068.5592846680	0.0219836310
1070.4880920410	0.0209627673
1072.4168994141	0.0198453460
1074.3457067871	0.0193533748
1076.2745141602	0.0183953214
1078.2033215332	0.0172880031
1080.1321289062	0.0165504403
1082.0609362793	0.0159902424
1083.9897436523	0.0150820306
1085.9185510254	0.0143693257
1087.8473583984	0.0137199201
1089.7761657715	0.0129709011
1091.7049731445	0.0127244322
1093.6337805176	0.0122141410
1095.5625878906	0.0116370386
1097.4913952637	0.0110838497
1099.4202026367	0.0108650513
1101.3490100098	0.0107971681
1103.2778173828	0.0103609543
1105.2066247559	0.0102565009
1107.1354321289	0.0099061811
1109.0642395019	0.0095870038
1110.9930468750	0.0097261705
1112.9218542480	0.0094928332
1114.8506616211	0.0092940927
1116.7794689941	0.0096582025
1118.7082763672	0.0096682496
1120.6370837402	0.0094005298
1122.5658911133	0.0095711164
1124.4946984863	0.0098327436
1126.4235058594	0.0100527238
1128.3523132324	0.0100898715
1130.2811206055	0.0102256648
1132.2099279785	0.0104858074
1134.1387353516	0.0109321428
1136.0675427246	0.0114232451
1137.9963500977	0.0118493252
1139.9251574707	0.0126844272
1141.8539648437	0.0133338012
1143.7827722168	0.0143219205
1145.7115795898	0.0154094631
1147.6403869629	0.0161526315
1149.5691943359	0.0172693003
1151.4980017090	0.0181257352
1153.4268090820	0.0187209323
1155.3556164551	0.0195932947
1157.2844238281	0.0205618814
1159.2132312012	0.0211660657
1161.1420385742	0.0218773261
1163.0708459473	0.0227691270
1164.9996533203	0.0237218030
1166.9284606934	0.0246979389
1168.8572680664	0.0253103524
1170.7860754394	0.0262885951
1172.7148828125	0.0273480937
1174.6436901855	0.0283699594
1176.5724975586	0.0295332447
1178.5013049316	0.0306481570
1180.4301123047	0.0317821503
1182.3589196777	0.0330350511
1184.2877270508	0.0344891027
1186.2165344238	0.0358957611
1188.1453417969	0.0377265960
1190.0741491699	0.0394717157
1192.0029565430	0.0412532724
1193.9317639160	0.0431464911
1195.8605712891	0.0449721701
1197.7893786621	0.0470831655
1199.7181860351	0.0489275195
1201.6469934082	0.0512475893
1203.5758007812	0.0534969829
1205.5046081543	0.0555141494
1207.4334155273	0.0574883819
1209.3622229004	0.0592338219
1211.2910302734	0.0612705424
1213.2198376465	0.0627891719
1215.1486450195	0.0641765296
1217.0774523926	0.0655652285
1219.0062597656	0.0669372678
1220.9350671387	0.0680020005
1222.8638745117	0.0686250776
1224.7926818848	0.0692297742
1226.7214892578	0.0697497278
1228.6502966308	0.0703761876
1230.5791040039	0.0704106688
1232.5079113769	0.0706680119
1234.4367187500	0.0708591193
1236.3655261230	0.0705963969
1238.2943334961	0.0705573261
1240.2231408691	0.0704522133
1242.1519482422	0.0702658445
1244.0807556152	0.0697453320
1246.0095629883	0.0696737021
1247.9383703613	0.0691187978
1249.8671777344	0.0683935732
1251.7959851074	0.0681442916
1253.7247924805	0.0674713254
1255.6535998535	0.0668166727
1257.5824072266	0.0655438751
1259.5112145996	0.0644475371
1261.4400219726	0.0637854040
1263.3688293457	0.0629808605
1265.2976367187	0.0619568154
1267.2264440918	0.0612758547
1269.1552514648	0.0606534779
1271.0840588379	0.0591427162
1273.0128662109	0.0582981147
1274.9416735840	0.0573816001
1276.8704809570	0.0563195348
1278.7992883301	0.0551792309
1280.7280957031	0.0538598001
1282.6569030762	0.0532276407
1284.5857104492	0.0521412566
1286.5145178223	0.0510805994
1288.4433251953	0.0501556620
1290.3721325683	0.0497135594
1292.3009399414	0.0493266284
1294.2297473144	0.0486075357
1296.1585546875	0.0484651998
1298.0873620605	0.0483547822
1300.0161694336	0.0485732332
1301.9449768066	0.0487817004
1303.8737841797	0.0490910187
1305.8025915527	0.0496669598
1307.7313989258	0.0503332987
1309.6602062988	0.0510509238
1311.5890136719	0.0517432839
1313.5178210449	0.0528727323
1315.4466284180	0.0540880188
1317.3754357910	0.0554129630
1319.3042431640	0.0568250120
1321.2330505371	0.0586027205
1323.1618579101	0.0603009611
1325.0906652832	0.0620429218
1327.0194726562	0.0639803037
1328.9482800293	0.0653714165
1330.8770874023	0.0668511018
1332.8058947754	0.0683178827
1334.7347021484	0.0699343532
1336.6635095215	0.0707050115
1338.5923168945	0.0703732669
1340.5211242676	0.0714852512
1342.4499316406	0.0737510175
1344.3787390137	0.0743167102
1346.3075463867	0.0741145015
1348.2363537597	0.0741747096
1350.1651611328	0.0736033171
1352.0939685058	0.0735126436
1354.0227758789	0.0725934803
1355.9515832519	0.0718738586
1357.8803906250	0.0717171878
1359.8091979980	0.0705339909
1361.7380053711	0.0681115389
1363.6668127441	0.0671173930
1365.5956201172	0.0697287023
1367.5244274902	0.0680797100
1369.4532348633	0.0674070865
1371.3820422363	0.0686981902
1373.3108496094	0.0652392283
1375.2396569824	0.0657877922
1377.1684643555	0.0669798851
1379.0972717285	0.0667290241
1381.0260791015	0.0667603165
1382.9548864746	0.0664643943
1384.8836938476	0.0667158142
1386.8125012207	0.0642257035
1388.7413085937	0.0651818812
1390.6701159668	0.0693771839
1392.5989233398	0.0683453232
1394.5277307129	0.0647766739
1396.4565380859	0.0671615750
1398.3853454590	0.0674650371
1400.3141528320	0.0669465810
1402.2429602051	0.0714289024
1404.1717675781	0.0679660961
1406.1005749512	0.0683723986
1408.0293823242	0.0705384314
1409.9581896972	0.0681095719
1411.8869970703	0.0693965554
1413.8158044433	0.0671951920
1415.7446118164	0.0681884736
1417.6734191894	0.0626276881
1419.6022265625	0.0570621118
1421.5310339355	0.0635970533
1423.4598413086	0.0617932603
1425.3886486816	0.0598731413
1427.3174560547	0.0601783246
1429.2462634277	0.0563285127
1431.1750708008	0.0545042306
1433.1038781738	0.0547419935
1435.0326855469	0.0503875501
1436.9614929199	0.0438748598
1438.8903002929	0.0482127331
1440.8191076660	0.0490160510
1442.7479150390	0.0459885970
1444.6767224121	0.0477385223
1446.6055297851	0.0445827171
1448.5343371582	0.0448685624
1450.4631445312	0.0462135188
1452.3919519043	0.0470696762
1454.3207592773	0.0489452034
1456.2495666504	0.0422497466
1458.1783740234	0.0439571217
1460.1071813965	0.0560309775
1462.0359887695	0.0593883768
1463.9647961426	0.0597544163
1465.8936035156	0.0623574555
1467.8224108886	0.0700491890
1469.7512182617	0.0749609768
1471.6800256347	0.0691400915
1473.6088330078	0.0728280395
1475.5376403808	0.0816430748
1477.4664477539	0.0875159651
1479.3952551269	0.0947206914
1481.3240625000	0.0969876945
1483.2528698730	0.1025281847
1485.1816772461	0.1058950573
1487.1104846191	0.1056075990
1489.0392919922	0.1057512239
1490.9680993652	0.1070768088
1492.8969067383	0.1208685860
1494.8257141113	0.1190095097
1496.7545214843	0.1098853350
1498.6833288574	0.1219793111
1500.6121362304	0.1253690273
1502.5409436035	0.1328049898
1504.4697509765	0.1272036135
1506.3985583496	0.0989901721
1508.3273657226	0.1165748388
1510.2561730957	0.1324827075
1512.1849804687	0.1289290190
1514.1137878418	0.1380001605
1516.0425952148	0.1270046085
1517.9714025879	0.1319491863
1519.9002099609	0.1274831891
1521.8290173340	0.1140025556
1523.7578247070	0.1339207292
1525.6866320801	0.1319196820
1527.6154394531	0.1317826509
1529.5442468261	0.1421835124
1531.4730541992	0.1379574239
1533.4018615722	0.1286032498
1535.3306689453	0.1345067620
1537.2594763183	0.1416563839
1539.1882836914	0.1080795079
1541.1170910644	0.1121049821
1543.0458984375	0.1297370493
1544.9747058105	0.1256625354
1546.9035131836	0.1432946622
1548.8323205566	0.1354076266
1550.7611279297	0.1388388127
1552.6899353027	0.1373975277
1554.6187426758	0.1270874739
1556.5475500488	0.1343665421
1558.4763574218	0.1016458869
1560.4051647949	0.1073179692
1562.3339721679	0.1424660981
1564.2627795410	0.1359827220
1566.1915869140	0.1385665536
1568.1203942871	0.1371966302
1570.0492016601	0.1243923753
1571.9780090332	0.1386253983
1573.9068164062	0.1395106316
1575.8356237793	0.1153552681
1577.7644311523	0.1267474890
1579.6932385254	0.1400811374
1581.6220458984	0.1341750175
1583.5508532715	0.1366543472
1585.4796606445	0.1343302429
1587.4084680175	0.1345606744
1589.3372753906	0.1333948225
1591.2660827636	0.1323276758
1593.1948901367	0.1321495473
1595.1236975097	0.1300083697
1597.0525048828	0.1306424439
1598.9813122558	0.1291098595
1600.9101196289	0.1288223416
1602.8389270019	0.1259396374
1604.7677343750	0.1267556548
1606.6965417480	0.1247993931
1608.6253491211	0.1234589815
1610.5541564941	0.1225378662
1612.4829638672	0.1219265535
1614.4117712402	0.1222451553
1616.3405786132	0.1029635817
1618.2693859863	0.1089724526
1620.1981933593	0.1228151768
1622.1270007324	0.1104582250
1624.0558081054	0.1104136705
1625.9846154785	0.1137789786
1627.9134228515	0.1130666658
1629.8422302246	0.1118316501
1631.7710375976	0.1173998415
1633.6998449707	0.1099984944
1635.6286523437	0.0940148607
1637.5574597168	0.1063520908
1639.4862670898	0.1148656160
1641.4150744629	0.1129221767
1643.3438818359	0.1157450676
1645.2726892090	0.1067478508
1647.2014965820	0.0968993083
1649.1303039550	0.1161209792
1651.0591113281	0.1112337634
1652.9879187011	0.0784448236
1654.9167260742	0.1010570601
1656.8455334472	0.1224015206
1658.7743408203	0.1183962971
1660.7031481933	0.1221885234
1662.6319555664	0.1138312072
1664.5607629394	0.1196472943
1666.4895703125	0.1273660809
1668.4183776855	0.1152611375
1670.3471850586	0.1134989262
1672.2759924316	0.1261345744
1674.2047998047	0.1191251576
1676.1336071777	0.1160061434
1678.0624145507	0.1308923960
1679.9912219238	0.1278024018
1681.9200292968	0.1278569996
1683.8488366699	0.1084919870
1685.7776440429	0.1077290922
1687.7064514160	0.1408515275
1689.6352587890	0.1262353659
1691.5640661621	0.1367569715
1693.4928735351	0.1398370564
1695.4216809082	0.1087471545
1697.3504882812	0.1294094920
1699.2792956543	0.1179703102
1701.2081030273	0.1087426096
1703.1369104004	0.1400215924
1705.0657177734	0.1313160360
1706.9945251464	0.1321968585
1708.9233325195	0.1419492215
1710.8521398925	0.1376937181
1712.7809472656	0.1402278394
1714.7097546386	0.1327401102
1716.6385620117	0.1215270907
1718.5673693847	0.1200110763
1720.4961767578	0.1383515894
1722.4249841308	0.1427362561
1724.3537915039	0.1348404288
1726.2825988769	0.1442971230
1728.2114062500	0.1352739036
1730.1402136230	0.1369443536
1732.0690209961	0.1335305572
1733.9978283691	0.1075549424
1735.9266357421	0.1280606091
1737.8554431152	0.1395451128
1739.7842504882	0.1271946132
1741.7130578613	0.1364331841
1743.6418652343	0.1386936009
1745.5706726074	0.1389786303
1747.4994799804	0.1405486166
1749.4282873535	0.1359662712
1751.3570947265	0.1312657148
1753.2859020996	0.1426478624
1755.2147094726	0.1482252479
1757.1435168457	0.1378769279
1759.0723242187	0.1488048434
1761.0011315918	0.1420123726
1762.9299389648	0.1379966736
1764.8587463379	0.1539366543
1766.7875537109	0.1415054798
1768.7163610839	0.1425306052
1770.6451684570	0.1421695501
1772.5739758300	0.1302958429
1774.5027832031	0.1424270570
1776.4315905761	0.1489342600
1778.3603979492	0.1469603032
1780.2892053222	0.1460187137
1782.2180126953	0.1468253285
1784.1468200683	0.1466160566
1786.0756274414	0.1445492506
1788.0044348144	0.1503021121
1789.9332421875	0.1473732591
1791.8620495605	0.1363465488
1793.7908569336	0.1408205628
1795.7196643066	0.1491831839
1797.6484716796	0.1475052834
1799.5772790527	0.1457099617
1801.5060864257	0.1439555585
1803.4348937988	0.1473206580
1805.3637011718	0.1500691473
1807.2925085449	0.1484792233
1809.2213159179	0.1489047408
1811.1501232910	0.1459796727
1813.0789306640	0.1493451893
1815.0077380371	0.1498723924
1816.9365454101	0.1484716237
1818.8653527832	0.1494903564
1820.7941601562	0.1489747167
1822.7229675293	0.1507144719
1824.6517749023	0.1429476142
1826.5805822753	0.1467762291
1828.5093896484	0.1470867395
1830.4381970214	0.1400003135
1832.3670043945	0.1495337784
1834.2958117675	0.1487701982
1836.2246191406	0.1485981643
1838.1534265136	0.1482196003
1840.0822338867	0.1488599032
1842.0110412597	0.1487886310
1843.9398486328	0.1355001926
1845.8686560058	0.1424321979
1847.7974633789	0.1485857964
1849.7262707519	0.1460096985
1851.6550781250	0.1492808759
1853.5838854980	0.1468199193
1855.5126928710	0.1479931623
1857.4415002441	0.1472389400
1859.3703076171	0.1464342773
1861.2991149902	0.1472051144
1863.2279223632	0.1456624269
1865.1567297363	0.1470754743
1867.0855371093	0.1433905959
1869.0143444824	0.1385184377
1870.9431518554	0.1427463293
1872.8719592285	0.1467257887
1874.8007666015	0.1447577477
1876.7295739746	0.1453982294
1878.6583813476	0.1449489295
1880.5871887207	0.1443584859
1882.5159960937	0.1452278197
1884.4448034667	0.1433229148
1886.3736108398	0.1448303759
1888.3024182128	0.1421772242
1890.2312255859	0.1399345696
1892.1600329589	0.1440504938
1894.0888403320	0.1424017996
1896.0176477050	0.1417354047
1897.9464550781	0.1430285573
1899.8752624511	0.1422312260
1901.8040698242	0.1424119174
1903.7328771972	0.1417659819
1905.6616845703	0.1421830654
1907.5904919433	0.1410233527
1909.5192993164	0.1402069330
1911.4481066894	0.1409079432
1913.3769140625	0.1408940852
1915.3057214355	0.1419172585
1917.2345288085	0.1370594203
1919.1633361816	0.1368491501
1921.0921435546	0.1410261393
1923.0209509277	0.1375721693
1924.9497583007	0.1394466758
1926.8785656738	0.1406059116
1928.8073730468	0.1391508281
1930.7361804199	0.1402666569
1932.6649877929	0.1388658136
1934.5937951660	0.1398063302
1936.5226025390	0.1388685703
1938.4514099121	0.1391713917
1940.3802172851	0.1392380595
1942.3090246582	0.1357492805
1944.2378320312	0.1375458539
1946.1666394042	0.1385673136
1948.0954467773	0.1382265389
1950.0242541503	0.1387338936
1951.9530615234	0.1383249164
1953.8818688964	0.1382890493
1955.8106762695	0.1376041472
1957.7394836425	0.1378201544
1959.6682910156	0.1378791779
1961.5970983886	0.1374936402
1963.5259057617	0.1377368569
1965.4547131347	0.1369188577
1967.3835205078	0.1358078420
1969.3123278808	0.1367698312
1971.2411352539	0.1372181177
1973.1699426269	0.1364313662
1975.0987499999	0.1366902590
1977.0275573730	0.1362565756
1978.9563647460	0.1362180412
1980.8851721191	0.1359544694
1982.8139794921	0.1355874836
1984.7427868652	0.1358689964
1986.6715942382	0.1347739100
1988.6004016113	0.1349575520
1990.5292089843	0.1341461837
1992.4580163574	0.1326458752
1994.3868237304	0.1341698170
1996.3156311035	0.1342639923
1998.2444384765	0.1333828270
2000.1732458496	0.1335899234
2002.1020532226	0.1331365854
2004.0308605956	0.1328159422
2005.9596679687	0.1325252056
2007.8884753417	0.1322377324
2009.8172827148	0.1320342124
2011.7460900878	0.1315197051
2013.6748974609	0.1314197779
2015.6037048339	0.1306509674
2017.5325122070	0.1298968196
2019.4613195800	0.1303002536
2021.3901269531	0.1301302314
2023.3189343261	0.1296488345
2025.2477416992	0.1293954253
2027.1765490722	0.1291474998
2029.1053564453	0.1289292872
2031.0341638183	0.1284387559
2032.9629711914	0.1281853914
2034.8917785644	0.1279817224
2036.8205859374	0.1275432110
2038.7493933105	0.1272574961
2040.6782006835	0.1267381608
2042.6070080566	0.1263838112
2044.5358154296	0.1263267696
2046.4646228027	0.1260116398
2048.3934301757	0.1259218752
2050.3222375488	0.1256134957
2052.2510449218	0.1251351684
2054.1798522949	0.1249521673
2056.1086596679	0.1248023063
2058.0374670410	0.1245135590
2059.9662744140	0.1239926666
2061.8950817871	0.1239435375
2063.8238891601	0.1234309673
2065.7526965331	0.1227379888
2067.6815039062	0.1229453161
2069.6103112792	0.1228228062
2071.5391186523	0.1225398108
2073.4679260253	0.1221686304
2075.3967333984	0.1217827573
2077.3255407714	0.1216745824
2079.2543481445	0.1214239970
2081.1831555175	0.1212192923
2083.1119628906	0.1210134104
2085.0407702636	0.1206955910
2086.9695776367	0.1203485280
2088.8983850097	0.1200573593
2090.8271923828	0.1197678596
2092.7559997558	0.1196487546
2094.6848071288	0.1194917262
2096.6136145019	0.1192346066
2098.5424218749	0.1190533042
2100.4712292480	0.1187787503
2102.4000366210	0.1186582223
2104.3288439941	0.1184243858
2106.2576513671	0.1182223409
2108.1864587402	0.1179416552
2110.1152661132	0.1176437587
2112.0440734863	0.1177681386
2113.9728808593	0.1173653081
2115.9016882324	0.1170176193
2117.8304956054	0.1171527803
2119.7593029785	0.1168027073
2121.6881103515	0.1164689064
2123.6169177245	0.1164462268
2125.5457250976	0.1163473502
2127.4745324706	0.1161224842
2129.4033398437	0.1158439368
2131.3321472167	0.1158458889
2133.2609545898	0.1156776249
2135.1897619628	0.1152301580
2137.1185693359	0.1152409911
2139.0473767089	0.1152009070
2140.9761840820	0.1149553806
2142.9049914550	0.1149815246
2144.8337988281	0.1148721129
2146.7626062011	0.1144387573
2148.6914135742	0.1143758893
2150.6202209472	0.1143577695
2152.5490283203	0.1140121669
2154.4778356933	0.1140414253
2156.4066430663	0.1139235944
2158.3354504394	0.1137055755
2160.2642578124	0.1135378182
2162.1930651855	0.1133384258
2164.1218725585	0.1132338792
2166.0506799316	0.1130160540
2167.9794873046	0.1131659746
2169.9082946777	0.1129147634
2171.8371020507	0.1126523167
2173.7659094238	0.1127830148
2175.6947167968	0.1125716567
2177.6235241699	0.1124006659
2179.5523315429	0.1122730598
2181.4811389160	0.1123129725
2183.4099462890	0.1120385826
2185.3387536620	0.1118244082
2187.2675610351	0.1117596179
2189.1963684081	0.1115858778
2191.1251757812	0.1117334589
2193.0539831542	0.1113985926
2194.9827905273	0.1112410724
2196.9115979003	0.1113379598
2198.8404052734	0.1111341938
2200.7692126464	0.1110876948
2202.6980200195	0.1109309644
2204.6268273925	0.1107342839
2206.5556347656	0.1107490212
2208.4844421386	0.1106024534
2210.4132495117	0.1103830636
2212.3420568847	0.1103446037
2214.2708642577	0.1100462824
2216.1996716308	0.1100000218
2218.1284790038	0.1098892987
2220.0572863769	0.1096551567
2221.9860937499	0.1096959114
2223.9149011230	0.1094038785
2225.8437084960	0.1093989983
2227.7725158691	0.1092667133
2229.7013232421	0.1090855673
2231.6301306152	0.1089177877
2233.5589379882	0.1086099595
2235.4877453613	0.1086317971
2237.4165527343	0.1083408892
2239.3453601074	0.1082922369
2241.2741674804	0.1081770658
2243.2029748534	0.1079601869
2245.1317822265	0.1079643518
2247.0605895995	0.1077107936
2248.9893969726	0.1075375080
2250.9182043456	0.1074025184
2252.8470117187	0.1073188186
2254.7758190917	0.1071028337
2256.7046264648	0.1069897190
2258.6334338378	0.1068376303
2260.5622412109	0.1066919938
2262.4910485839	0.1067486554
2264.4198559570	0.1064586565
2266.3486633300	0.1061927974
2268.2774707031	0.1061762720
2270.2062780761	0.1061779708
2272.1350854491	0.1059214324
2274.0638928222	0.1058387756
2275.9927001952	0.1057179943
2277.9215075683	0.1055589616
2279.8503149413	0.1055844724
2281.7791223144	0.1054135934
2283.7079296874	0.1054725498
2285.6367370605	0.1051710919
2287.5655444335	0.1048753858
2289.4943518066	0.1046210080
2291.4231591796	0.1043562293
2293.3519665527	0.1042828709
2295.2807739257	0.1037660688
2297.2095812988	0.1036150679
2299.1383886718	0.1032511592
2301.0671960449	0.1028535441
2302.9960034179	0.1024051011
2304.9248107909	0.1016547903
2306.8536181640	0.1012356728
2308.7824255370	0.1002810597
2310.7112329101	0.0995357037
2312.6400402831	0.0986905321
2314.5688476562	0.0975489244
2316.4976550292	0.0966118127
2318.4264624023	0.0951884240
2320.3552697753	0.0938327760
2322.2840771484	0.0926148742
2324.2128845214	0.0914596915
2326.1416918945	0.0903874487
2328.0704992675	0.0892992839
2329.9993066406	0.0880866945
2331.9281140136	0.0873195082
2333.8569213866	0.0871934518
2335.7857287597	0.0867234394
2337.7145361327	0.0867165923
2339.6433435058	0.0866790861
2341.5721508788	0.0866868272
2343.5009582519	0.0881117284
2345.4297656249	0.0897966623
2347.3585729980	0.0936210752
2349.2873803710	0.0968500674
2351.2161877441	0.0934021324
2353.1449951171	0.0885033906
2355.0738024902	0.0853186250
2357.0026098632	0.0824588835
2358.9314172363	0.0810438320
2360.8602246093	0.0799760520
2362.7890319823	0.0798596069
2364.7178393554	0.0804075003
2366.6466467284	0.0813724771
2368.5754541015	0.0832062811
2370.5042614745	0.0850371867
2372.4330688476	0.0875948891
2374.3618762206	0.0900929943
2376.2906835937	0.0925309137
2378.2194909667	0.0947512686
2380.1482983398	0.0963242054
2382.0771057128	0.0975450426
2384.0059130859	0.0980203897
2385.9347204589	0.0983798206
2387.8635278320	0.0984097272
2389.7923352050	0.0984452888
2391.7211425780	0.0982604697
2393.6499499511	0.0981328040
2395.5787573241	0.0982469246
2397.5075646972	0.0978087634
2399.4363720702	0.0978681892
2401.3651794433	0.0976939499
2403.2939868163	0.0974845290
2405.2227941894	0.0975544229
2407.1516015624	0.0972770751
2409.0804089355	0.0972565636
2411.0092163085	0.0970348418
2412.9380236816	0.0968149155
2414.8668310546	0.0967480987
2416.7956384277	0.0966385156
2418.7244458007	0.0965899825
2420.6532531738	0.0964415222
2422.5820605468	0.0962573141
2424.5108679198	0.0962184966
2426.4396752929	0.0960651487
2428.3684826659	0.0958353132
2430.2972900390	0.0958139300
2432.2260974120	0.0956647694
2434.1549047851	0.0956513360
2436.0837121581	0.0954538509
2438.0125195312	0.0953039676
2439.9413269042	0.0952657312
2441.8701342773	0.0949432552
2443.7989416503	0.0949974209
2445.7277490234	0.0948158801
2447.6565563964	0.0946270078
2449.5853637695	0.0945816487
2451.5141711425	0.0943757221
2453.4429785155	0.0942521542
2455.3717858886	0.0940762088
2457.3005932616	0.0940665007
2459.2294006347	0.0939628631
2461.1582080077	0.0938311294
2463.0870153808	0.0936493799
2465.0158227538	0.0935751498
2466.9446301269	0.0934662521
2468.8734374999	0.0932444930
2470.8022448730	0.0932690203
2472.7310522460	0.0930532664
2474.6598596191	0.0929415673
2476.5886669921	0.0928304717
2478.5174743652	0.0927123278
2480.4462817382	0.0926209390
2482.3750891112	0.0924340636
2484.3038964843	0.0924010426
2486.2327038573	0.0922064483
2488.1615112304	0.0921522528
2490.0903186034	0.0920180082
2492.0191259765	0.0919427574
2493.9479333495	0.0918173492
2495.8767407226	0.0915082842
2497.8055480956	0.0915842801
2499.7343554687	0.0914459005
2501.6631628417	0.0912638307
2503.5919702148	0.0911925957
2505.5207775878	0.0911015123
2507.4495849609	0.0909953788
2509.3783923339	0.0907800645
2511.3071997069	0.0906945616
2513.2360070800	0.0906424671
2515.1648144530	0.0905096456
2517.0936218261	0.0903102160
2519.0224291991	0.0903178900
2520.9512365722	0.0901759714
2522.8800439452	0.0899381340
2524.8088513183	0.0898773745
2526.7376586913	0.0897922218
2528.6664660644	0.0897850394
2530.5952734374	0.0895497799
2532.5240808105	0.0894435123
2534.4528881835	0.0893916488
2536.3816955566	0.0892265886
2538.3105029296	0.0891581029
2540.2393103027	0.0889516175
2542.1681176757	0.0888620839
2544.0969250487	0.0886458531
2546.0257324218	0.0884845704
2547.9545397948	0.0883967057
2549.8833471679	0.0881511196
2551.8121545409	0.0881367400
2553.7409619140	0.0880753547
2555.6697692870	0.0879261270
2557.5985766601	0.0878141448
2559.5273840331	0.0878090411
2561.4561914062	0.0876393467
2563.3849987792	0.0873797387
2565.3138061523	0.0873634815
2567.2426135253	0.0871745050
2569.1714208984	0.0871217400
2571.1002282714	0.0870149732
2573.0290356444	0.0867772847
2574.9578430175	0.0866843313
2576.8866503905	0.0864866078
2578.8154577636	0.0864860639
2580.7442651366	0.0863138586
2582.6730725097	0.0861736387
2584.6018798827	0.0861504972
2586.5306872558	0.0859529078
2588.4594946288	0.0859266371
2590.3883020019	0.0857082605
2592.3171093749	0.0856821984
2594.2459167480	0.0855916217
2596.1747241210	0.0853227079
2598.1035314941	0.0853650942
2600.0323388671	0.0851451159
2601.9611462401	0.0850424320
2603.8899536132	0.0849121511
2605.8187609862	0.0846149474
2607.7475683593	0.0845344067
2609.6763757323	0.0844678059
2611.6051831054	0.0844426155
2613.5339904784	0.0841970816
2615.4627978515	0.0840006471
2617.3916052245	0.0840522200
2619.3204125976	0.0839290023
2621.2492199706	0.0837767571
2623.1780273437	0.0837533623
2625.1068347167	0.0835656747
2627.0356420898	0.0833420604
2628.9644494628	0.0832137167
2630.8932568358	0.0830633044
2632.8220642089	0.0830291808
2634.7508715819	0.0829222649
2636.6796789550	0.0827754289
2638.6084863280	0.0826070085
2640.5372937011	0.0825431198
2642.4661010741	0.0824965686
2644.3949084472	0.0822894424
2646.3237158202	0.0822193474
2648.2525231933	0.0819822699
2650.1813305663	0.0818828642
2652.1101379394	0.0817893818
2654.0389453124	0.0816005468
2655.9677526855	0.0816130042
2657.8965600585	0.0814401060
2659.8253674315	0.0813806951
2661.7541748046	0.0812550783
2663.6829821776	0.0811249614
2665.6117895507	0.0809886754
2667.5405969237	0.0807839483
2669.4694042968	0.0807205215
2671.3982116698	0.0804944634
2673.3270190429	0.0804014578
2675.2558264159	0.0802683830
2677.1846337890	0.0802074820
2679.1134411620	0.0801278800
2681.0422485351	0.0798280537
2682.9710559081	0.0797636956
2684.8998632812	0.0796966851
2686.8286706542	0.0796297491
2688.7574780273	0.0794414952
2690.6862854003	0.0792674720
2692.6150927733	0.0792014450
2694.5439001464	0.0789501220
2696.4727075194	0.0788771957
2698.4015148925	0.0789189339
2700.3303222655	0.0786945745
2702.2591296386	0.0784797668
2704.1879370116	0.0783527642
2706.1167443847	0.0781581625
2708.0455517577	0.0781450868
2709.9743591308	0.0780154765
2711.9031665038	0.0777680725
2713.8319738769	0.0776435882
2715.7607812499	0.0775935501
2717.6895886230	0.0775471255
2719.6183959960	0.0773664191
2721.5472033690	0.0772646815
2723.4760107421	0.0770745277
2725.4048181151	0.0770462602
2727.3336254882	0.0768705085
2729.2624328612	0.0766273886
2731.1912402343	0.0767523944
2733.1200476073	0.0764287487
2735.0488549804	0.0762712732
2736.9776623534	0.0762054548
2738.9064697265	0.0760173947
2740.8352770995	0.0760503933
2742.7640844726	0.0757985562
2744.6928918456	0.0756951421
2746.6216992187	0.0756353587
2748.5505065917	0.0753722563
2750.4793139647	0.0752077699
2752.4081213378	0.0750809684
2754.3369287108	0.0749586374
2756.2657360839	0.0748775452
2758.1945434569	0.0746958107
2760.1233508300	0.0745958984
2762.0521582030	0.0744556561
2763.9809655761	0.0741342232
2765.9097729491	0.0741377547
2767.8385803222	0.0739818364
2769.7673876952	0.0738058388
2771.6961950683	0.0737234354
2773.6250024413	0.0735644847
2775.5538098144	0.0734707564
2777.4826171874	0.0731576681
2779.4114245604	0.0731571168
2781.3402319335	0.0729944110
2783.2690393065	0.0726501420
2785.1978466796	0.0725873262
2787.1266540526	0.0725198239
2789.0554614257	0.0724065080
2790.9842687987	0.0721587315
2792.9130761718	0.0720631182
2794.8418835448	0.0718967766
2796.7706909179	0.0718005002
2798.6994982909	0.0715809911
2800.6283056640	0.0713121518
2802.5571130370	0.0712445229
2804.4859204101	0.0710497275
2806.4147277831	0.0710722506
2808.3435351562	0.0708364695
2810.2723425292	0.0706560761
2812.2011499022	0.0705544204
2814.1299572753	0.0702678114
2816.0587646483	0.0701436698
2817.9875720214	0.0699588060
2819.9163793944	0.0698586702
2821.8451867675	0.0696977526
2823.7739941405	0.0695878118
2825.7028015136	0.0693370402
2827.6316088866	0.0691950247
2829.5604162597	0.0690092742
2831.4892236327	0.0686251819
2833.4180310058	0.0686388016
2835.3468383788	0.0683123469
2837.2756457519	0.0681650713
2839.2044531249	0.0680986047
2841.1332604979	0.0677444637
2843.0620678710	0.0674664900
2844.9908752440	0.0669043213
2846.9196826171	0.0665458441
2848.8484899901	0.0662531108
2850.7772973632	0.0659615621
2852.7061047362	0.0658935457
2854.6349121093	0.0658258200
2856.5637194823	0.0656707883
2858.4925268554	0.0655266494
2860.4213342284	0.0653722361
2862.3501416015	0.0653377622
2864.2789489745	0.0653605461
2866.2077563476	0.0650458634
2868.1365637206	0.0650437474
2870.0653710936	0.0649009123
2871.9941784667	0.0645966381
2873.9229858397	0.0645935833
2875.8517932128	0.0643465966
2877.7806005858	0.0642465577
2879.7094079589	0.0641618371
2881.6382153319	0.0640465692
2883.5670227050	0.0639106855
2885.4958300780	0.0637474507
2887.4246374511	0.0635678619
2889.3534448241	0.0633452684
2891.2822521972	0.0632978380
2893.2110595702	0.0629861951
2895.1398669433	0.0627342463
2897.0686743163	0.0625897944
2898.9974816893	0.0623376854
2900.9262890624	0.0620415248
2902.8550964354	0.0617632866
2904.7839038085	0.0615799427
2906.7127111815	0.0613277778
2908.6415185546	0.0611288771
2910.5703259276	0.0607442893
2912.4991333007	0.0603816137
2914.4279406737	0.0599848852
2916.3567480468	0.0595925078
2918.2855554198	0.0594395548
2920.2143627929	0.0591924936
2922.1431701659	0.0590297133
2924.0719775390	0.0589193888
2926.0007849120	0.0588503033
2927.9295922851	0.0586490259
2929.8583996581	0.0585369244
2931.7872070311	0.0585420765
2933.7160144042	0.0584470183
2935.6448217772	0.0584727712
2937.5736291503	0.0583648458
2939.5024365233	0.0582919493
2941.4312438964	0.0581877232
2943.3600512694	0.0581411943
2945.2888586425	0.0580186844
2947.2176660155	0.0577772148
2949.1464733886	0.0577021055
2951.0752807616	0.0574659072
2953.0040881347	0.0572683737
2954.9328955077	0.0569923222
2956.8617028808	0.0567796230
2958.7905102538	0.0564255565
2960.7193176268	0.0560712516
2962.6481249999	0.0561345667
2964.5769323729	0.0558883175
2966.5057397460	0.0556962602
2968.4345471190	0.0556394607
2970.3633544921	0.0556461960
2972.2921618651	0.0556650497
2974.2209692382	0.0554952472
2976.1497766112	0.0555125438
2978.0785839843	0.0554101951
2980.0073913573	0.0552232713
2981.9361987304	0.0551289879
2983.8650061034	0.0550651327
2985.7938134765	0.0549264550
2987.7226208495	0.0546494015
2989.6514282225	0.0544795766
2991.5802355956	0.0543254614
2993.5090429686	0.0540891364
2995.4378503417	0.0539572686
2997.3666577147	0.0537652001
2999.2954650878	0.0534334220
3001.2242724608	0.0533581711
3003.1530798339	0.0532113761
3005.0818872069	0.0528553762
3007.0106945800	0.0526434965
3008.9395019530	0.0524892807
3010.8683093261	0.0522113517
3012.7971166991	0.0518544428
3014.7259240722	0.0516174883
3016.6547314452	0.0514838211
3018.5835388182	0.0514096245
3020.5123461913	0.0510898456
3022.4411535643	0.0508741327
3024.3699609374	0.0506676733
3026.2987683104	0.0502884015
3028.2275756835	0.0502986014
3030.1563830565	0.0499003008
3032.0851904296	0.0494627431
3034.0139978026	0.0493616015
3035.9428051757	0.0490764119
3037.8716125487	0.0488398597
3039.8004199218	0.0485774577
3041.7292272948	0.0484254435
3043.6580346679	0.0481336787
3045.5868420409	0.0479227826
3047.5156494139	0.0477221273
3049.4444567870	0.0472446233
3051.3732641600	0.0470612906
3053.3020715331	0.0468669273
3055.2308789061	0.0465034582
3057.1596862792	0.0462185182
3059.0884936522	0.0460893065
3061.0173010253	0.0458801091
3062.9461083983	0.0455687270
3064.8749157714	0.0452309474
3066.8037231444	0.0449231267
3068.7325305175	0.0448804349
3070.6613378905	0.0445927903
3072.5901452636	0.0442967936
3074.5189526366	0.0441351607
3076.4477600097	0.0437785015
3078.3765673827	0.0435288399
3080.3053747557	0.0432266295
3082.2341821288	0.0429763719
3084.1629895018	0.0427734852
3086.0917968749	0.0423604026
3088.0206042479	0.0420692228
3089.9494116210	0.0418675169
3091.8782189940	0.0416153818
3093.8070263671	0.0413263813
3095.7358337401	0.0409413725
3097.6646411132	0.0407648459
3099.5934484862	0.0405332893
3101.5222558593	0.0400392860
3103.4510632323	0.0398311280
3105.3798706054	0.0397062115
3107.3086779784	0.0393271446
3109.2374853514	0.0390200950
3111.1662927245	0.0388621911
3113.0951000975	0.0384615101
3115.0239074706	0.0380754434
3116.9527148436	0.0378680080
3118.8815222167	0.0376008488
3120.8103295897	0.0373765081
3122.7391369628	0.0370415412
3124.6679443358	0.0367928036
3126.5967517089	0.0364497714
3128.5255590819	0.0361157618
3130.4543664550	0.0360178649
3132.3831738280	0.0356353149
3134.3119812011	0.0353072025
3136.2407885741	0.0350619406
3138.1695959471	0.0348858684
3140.0984033202	0.0346679315
3142.0272106932	0.0343050882
3143.9560180663	0.0340902172
3145.8848254393	0.0337239914
3147.8136328124	0.0334303528
3149.7424401854	0.0331567489
3151.6712475585	0.0328599364
3153.6000549315	0.0326945260
3155.5288623046	0.0323967934
3157.4576696776	0.0321385860
3159.3864770507	0.0319037214
3161.3152844237	0.0315623917
3163.2440917968	0.0313640088
3165.1728991698	0.0312857665
3167.1017065428	0.0308870077
3169.0305139159	0.0305465162
3170.9593212889	0.0304017998
3172.8881286620	0.0300859101
3174.8169360350	0.0299464893
3176.7457434081	0.0297390334
3178.6745507811	0.0294075347
3180.6033581542	0.0293166116
3182.5321655272	0.0291143246
3184.4609729003	0.0288148224
3186.3897802733	0.0286458656
3188.3185876464	0.0284244288
3190.2473950194	0.0282253418
3192.1762023925	0.0280123483
3194.1050097655	0.0278242752
3196.0338171386	0.0276527144
3197.9626245116	0.0273997821
3199.8914318846	0.0273694694
3201.8202392577	0.0271194298
3203.7490466307	0.0269010626
3205.6778540038	0.0269023404
3207.6066613768	0.0266077034
3209.5354687499	0.0264915638
3211.4642761229	0.0264030993
3213.3930834960	0.0261915345
3215.3218908690	0.0260200910
3217.2506982421	0.0260173082
3219.1795056151	0.0259651542
3221.1083129882	0.0256779753
3223.0371203612	0.0255911350
3224.9659277343	0.0255182758
3226.8947351073	0.0255093593
3228.8235424803	0.0253633000
3230.7523498534	0.0251839943
3232.6811572264	0.0251716152
3234.6099645995	0.0250200890
3236.5387719725	0.0250240453
3238.4675793456	0.0249934569
3240.3963867186	0.0248531718
3242.3251940917	0.0247331746
3244.2540014647	0.0246852208
3246.1828088378	0.0246243589
3248.1116162108	0.0245238226
3250.0404235839	0.0244964138
3251.9692309569	0.0244717207
3253.8980383300	0.0244827792
3255.8268457030	0.0243426599
3257.7556530760	0.0242716204
3259.6844604491	0.0242891125
3261.6132678221	0.0243204050
3263.5420751952	0.0242146030
3265.4708825682	0.0241001844
3267.3996899413	0.0241169147
3269.3284973143	0.0239997990
3271.2573046874	0.0241248347
3273.1861120604	0.0239363872
3275.1149194335	0.0238431431
3277.0437268065	0.0240069292
3278.9725341796	0.0238652788
3280.9013415526	0.0238877125
3282.8301489257	0.0237485170
3284.7589562987	0.0238012597
3286.6877636717	0.0236922354
3288.6165710448	0.0235918686
3290.5453784178	0.0237339903
3292.4741857909	0.0234444626
3294.4029931639	0.0235462002
3296.3318005370	0.0235948116
3298.2606079100	0.0234598555
3300.1894152831	0.0235087778
3302.1182226561	0.0234203003
3304.0470300292	0.0233270526
3305.9758374022	0.0233158451
3307.9046447753	0.0232929587
3309.8334521483	0.0231586955
3311.7622595214	0.0232688487
3313.6910668944	0.0232506804
3315.6198742675	0.0231549814
3317.5486816405	0.0231673084
3319.4774890135	0.0229677763
3321.4062963866	0.0229775235
3323.3351037596	0.0230641700
3325.2639111327	0.0229928419
3327.1927185057	0.0229686089
3329.1215258788	0.0229554325
3331.0503332518	0.0228660256
3332.9791406249	0.0228497256
3334.9079479979	0.0227887928
3336.8367553710	0.0227989703
3338.7655627440	0.0228348337
3340.6943701171	0.0227337871
3342.6231774901	0.0227512792
3344.5519848632	0.0226778872
3346.4807922362	0.0227803178
3348.4095996092	0.0227427427
3350.3384069823	0.0226044804
3352.2672143553	0.0227191262
3354.1960217284	0.0225899629
3356.1248291014	0.0225596614
3358.0536364745	0.0225122198
3359.9824438475	0.0224971175
3361.9112512206	0.0225182585
3363.8400585936	0.0224706344
3365.7688659667	0.0225276444
3367.6976733397	0.0224260874
3369.6264807128	0.0224446319
3371.5552880858	0.0224868935
3373.4840954589	0.0224549826
3375.4129028319	0.0224491842
3377.3417102049	0.0224616751
3379.2705175780	0.0225212295
3381.1993249510	0.0225527380
3383.1281323241	0.0224985294
3385.0569396971	0.0224411413
3386.9857470702	0.0224667974
3388.9145544432	0.0224352833
3390.8433618163	0.0225508418
3392.7721691893	0.0225394629
3394.7009765624	0.0225347187
3396.6297839354	0.0226481929
3398.5585913085	0.0225445442
3400.4873986815	0.0225346126
3402.4162060546	0.0225607585
3404.3450134276	0.0226102918
3406.2738208006	0.0226512887
3408.2026281737	0.0228095837
3410.1314355467	0.0228291824
3412.0602429198	0.0227859206
3413.9890502928	0.0229129251
3415.9178576659	0.0228573605
3417.8466650389	0.0230059773
3419.7754724120	0.0230329074
3421.7042797850	0.0230101049
3423.6330871581	0.0231166966
3425.5618945311	0.0231569447
3427.4907019042	0.0231885333
3429.4195092772	0.0231903158
3431.3483166503	0.0233602729
3433.2771240233	0.0233715251
3435.2059313963	0.0234167837
3437.1347387694	0.0234270208
3439.0635461424	0.0235301480
3440.9923535155	0.0235675536
3442.9211608885	0.0234906785
3444.8499682616	0.0237320326
3446.7787756346	0.0235328041
3448.7075830077	0.0236619823
3450.6363903807	0.0239725262
3452.5651977538	0.0238835327
3454.4940051268	0.0240522176
3456.4228124999	0.0241657104
3458.3516198729	0.0241322815
3460.2804272460	0.0241453610
3462.2092346190	0.0242841393
3464.1380419921	0.0242808126
3466.0668493651	0.0244112592
3467.9956567381	0.0245486554
3469.9244641112	0.0245662965
3471.8532714842	0.0245851949
3473.7820788573	0.0246018004
3475.7108862303	0.0248105023
3477.6396936034	0.0247662626
3479.5685009764	0.0249071941
3481.4973083495	0.0247839950
3483.4261157225	0.0248299092
3485.3549230956	0.0252570920
3487.2837304686	0.0250114389
3489.2125378417	0.0252000839
3491.1413452147	0.0254215375
3493.0701525878	0.0254026316
3494.9989599608	0.0255069621
3496.9277673338	0.0254734233
3498.8565747069	0.0255941451
3500.7853820799	0.0256950483
3502.7141894530	0.0254755728
3504.6429968260	0.0255245566
3506.5718041991	0.0260921977
3508.5006115721	0.0258879475
3510.4294189452	0.0258349739
3512.3582263182	0.0261696577
3514.2870336913	0.0262550749
3516.2158410643	0.0265049227
3518.1446484374	0.0264083222
3520.0734558104	0.0266145598
3522.0022631835	0.0265857317
3523.9310705565	0.0263792779
3525.8598779295	0.0264643244
3527.7886853026	0.0264295842
3529.7174926756	0.0266902186
3531.6463000487	0.0268908162
3533.5751074217	0.0271957405
3535.5039147948	0.0271587931
3537.4327221678	0.0270596705
3539.3615295409	0.0274273902
3541.2903369139	0.0275329612
3543.2191442870	0.0274950769
3545.1479516600	0.0270155407
3547.0767590331	0.0267945193
3549.0055664061	0.0275765955
3550.9343737792	0.0276889708
3552.8631811522	0.0273761135
3554.7919885252	0.0278845131
3556.7207958983	0.0280401446
3558.6496032713	0.0280494262
3560.5784106444	0.0279292427
3562.5072180174	0.0279201977
3564.4360253905	0.0282272659
3566.3648327635	0.0268470421
3568.2936401366	0.0263650808
3570.2224475096	0.0281111225
3572.1512548827	0.0287563317
3574.0800622557	0.0285056084
3576.0088696288	0.0287277866
3577.9376770018	0.0288221799
3579.8664843749	0.0287689697
3581.7952917479	0.0287831239
3583.7240991210	0.0290726181
3585.6529064940	0.0286877677
3587.5817138670	0.0268177576
3589.5105212401	0.0275818631
3591.4393286131	0.0295584984
3593.3681359862	0.0288821012
3595.2969433592	0.0285793934
3597.2257507323	0.0291278195
3599.1545581053	0.0293676443
3601.0833654784	0.0291490257
3603.0121728514	0.0295174569
3604.9409802245	0.0300456434
3606.8697875975	0.0291380025
3608.7985949706	0.0279088505
3610.7274023436	0.0285337791
3612.6562097167	0.0290714446
3614.5850170897	0.0285223313
3616.5138244627	0.0302092209
3618.4426318358	0.0284760371
3620.3714392088	0.0277955569
3622.3002465819	0.0305385552
3624.2290539549	0.0298678316
3626.1578613280	0.0310633425
3628.0866687010	0.0273090042
3630.0154760741	0.0255125463
3631.9442834471	0.0306423195
3633.8730908202	0.0300193056
3635.8018981932	0.0305094626
3637.7307055663	0.0311342906
3639.6595129393	0.0309019908
3641.5883203124	0.0312095694
3643.5171276854	0.0308336057
3645.4459350584	0.0312128961
3647.3747424315	0.0288776457
3649.3035498045	0.0270350762
3651.2323571776	0.0272743125
3653.1611645506	0.0313564986
3655.0899719237	0.0311038513
3657.0187792967	0.0285608210
3658.9475866698	0.0320246890
3660.8763940428	0.0315402821
3662.8052014159	0.0320510492
3664.7340087889	0.0320205204
3666.6628161620	0.0318465196
3668.5916235350	0.0312786475
3670.5204309081	0.0266829543
3672.4492382811	0.0310073346
3674.3780456541	0.0299827829
3676.3068530272	0.0259410031
3678.2356604002	0.0310531668
3680.1644677733	0.0317374729
3682.0932751463	0.0317291580
3684.0220825194	0.0325727090
3685.9508898924	0.0322705247
3687.8796972655	0.0294996686
3689.8085046385	0.0276928246
3691.7373120116	0.0310529806
3693.6661193846	0.0315994658
3695.5949267577	0.0321473144
3697.5237341307	0.0321847126
3699.4525415038	0.0319370814
3701.3813488768	0.0314649269
3703.3101562499	0.0303871706
3705.2389636229	0.0328024402
3707.1677709959	0.0315821096
3709.0965783690	0.0309646856
3711.0253857420	0.0295751579
3712.9541931151	0.0280727744
3714.8830004881	0.0318828784
3716.8118078612	0.0314400755
3718.7406152342	0.0316780955
3720.6694226073	0.0311218649
3722.5982299803	0.0302641243
3724.5270373534	0.0312431715
3726.4558447264	0.0292729922
3728.3846520995	0.0312113315
3730.3134594725	0.0308969207
3732.2422668456	0.0289232731
3734.1710742186	0.0283909291
3736.0998815916	0.0272919871
3738.0286889647	0.0285183471
3739.9574963377	0.0303457640
3741.8863037108	0.0316853374
3743.8151110838	0.0256992429
3745.7439184569	0.0244920217
3747.6727258299	0.0302212089
3749.6015332030	0.0267545283
3751.5303405760	0.0251183026
3753.4591479491	0.0279915966
3755.3879553221	0.0297755599
3757.3167626952	0.0305992458
3759.2455700682	0.0287996456
3761.1743774413	0.0295851287
3763.1031848143	0.0308637470
3765.0319921873	0.0293770488
3766.9607995604	0.0298614316
3768.8896069334	0.0295409728
3770.8184143065	0.0284481011
3772.7472216795	0.0302407946
3774.6760290526	0.0302478336
3776.6048364256	0.0302567817
3778.5336437987	0.0296348464
3780.4624511717	0.0286797956
3782.3912585448	0.0302069802
3784.3200659178	0.0295685548
3786.2488732909	0.0294041596
3788.1776806639	0.0298958253
3790.1064880370	0.0296926033
3792.0352954100	0.0295352004
3793.9641027830	0.0299111400
3795.8929101561	0.0285051037
3797.8217175291	0.0282215215
3799.7505249022	0.0293824524
3801.6793322752	0.0244816244
3803.6081396483	0.0276845805
3805.5369470213	0.0295321159
3807.4657543944	0.0252031684
3809.3945617674	0.0292462632
3811.3233691405	0.0288194977
3813.2521765135	0.0296684448
3815.1809838866	0.0271762237
3817.1097912596	0.0245014895
3819.0385986327	0.0294549502
3820.9674060057	0.0250847675
3822.8962133787	0.0260323882
3824.8250207518	0.0292727724
3826.7538281248	0.0271016546
3828.6826354979	0.0286195800
3830.6114428709	0.0277777910
3832.5402502440	0.0270451754
3834.4690576170	0.0275835544
3836.3978649901	0.0264101215
3838.3266723631	0.0241765492
3840.2554797362	0.0258994326
3842.1842871092	0.0275198836
3844.1130944823	0.0265021697
3846.0419018553	0.0280407611
3847.9707092284	0.0276442841
3849.8995166014	0.0278159566
3851.8283239745	0.0255415551
3853.7571313475	0.0203975476
3855.6859387205	0.0230710395
3857.6147460936	0.0277739260
3859.5435534666	0.0272281207
3861.4723608397	0.0268811788
3863.4011682127	0.0264727119
3865.3299755858	0.0249441769
3867.2587829588	0.0270887874
3869.1875903319	0.0252909176
3871.1163977049	0.0238015130
3873.0452050780	0.0270657763
3874.9740124510	0.0253639631
3876.9028198241	0.0268829837
3878.8316271971	0.0273646675
3880.7604345702	0.0242270995
3882.6892419432	0.0269694105
3884.6180493162	0.0256236531
3886.5468566893	0.0238170773
3888.4756640623	0.0270349476
3890.4044714354	0.0258287396
3892.3332788084	0.0245637000
3894.2620861815	0.0265044160
3896.1908935545	0.0267311465
3898.1197009276	0.0257350653
3900.0485083006	0.0246825479
3901.9773156737	0.0244320594
3903.9061230467	0.0241970569
3905.8349304198	0.0244988501
3907.7637377928	0.0262553003
3909.6925451659	0.0262024030
3911.6213525389	0.0259261169
3913.5501599119	0.0262963232
3915.4789672850	0.0256209373
3917.4077746580	0.0250216182
3919.3365820311	0.0249559507
3921.2653894041	0.0255822428
3923.1941967772	0.0254902355
3925.1230041502	0.0250511263
3927.0518115233	0.0253779236
3928.9806188963	0.0256163124
3930.9094262694	0.0251155160
3932.8382336424	0.0245716237
3934.7670410155	0.0252267830
3936.6958483885	0.0253882334
3938.6246557616	0.0252659209
3940.5534631346	0.0253644846
3942.4822705076	0.0246320963
3944.4110778807	0.0247453507
3946.3398852537	0.0250702463
3948.2686926268	0.0245655999
3950.1974999998	0.0245920084
3952.1263073729	0.0247939080
3954.0551147459	0.0248257201
3955.9839221190	0.0248680525
3957.9127294920	0.0246570520
3959.8415368651	0.0245466251
3961.7703442381	0.0244224034
3963.6991516112	0.0244516935
3965.6279589842	0.0246487185
3967.5567663573	0.0244489629
3969.4855737303	0.0243345909
3971.4143811034	0.0243381187
3973.3431884764	0.0242141448
3975.2719958494	0.0241476186
3977.2008032225	0.0241639726
3979.1296105955	0.0241084397
3981.0584179686	0.0240737572
3982.9872253416	0.0240199994
3984.9160327147	0.0238956381
3986.8448400877	0.0240080617
3988.7736474608	0.0238485038
3990.7024548338	0.0237159729
3992.6312622069	0.0238605123
3994.5600695799	0.0237796903
3996.4888769530	0.0237009376
3998.4176843260	0.0236254707
4000.3464916991	0.0235866047
4002.2752990721	0.0235203560
4004.2041064451	0.0234867521
4006.1329138182	0.0234335065
4008.0617211912	0.0233372916
4009.9905285643	0.0233130604
4011.9193359373	0.0232240260
4013.8481433104	0.0232367609
4015.7769506834	0.0231883861
4017.7057580565	0.0231177211
4019.6345654295	0.0230129361
4021.5633728026	0.0229170900
4023.4921801756	0.0228979196
4025.4209875487	0.0228291526
4027.3497949217	0.0229257382
4029.2786022948	0.0228831675
4031.2074096678	0.0227992237
4033.1362170408	0.0227909386
4035.0650244139	0.0226554163
4036.9938317869	0.0226290878
4038.9226391600	0.0226592645
4040.8514465330	0.0225623939
4042.7802539061	0.0224267542
4044.7090612791	0.0223879665
4046.6378686522	0.0223724432
4048.5666760252	0.0223252922
4050.4954833983	0.0222678445
4052.4242907713	0.0222970210
4054.3530981444	0.0222249124
4056.2819055174	0.0220881738
4058.2107128905	0.0220908504
4060.1395202635	0.0220349580
4062.0683276365	0.0220329724
4063.9971350096	0.0219649747
4065.9259423826	0.0218866374
4067.8547497557	0.0218358785
4069.7835571287	0.0217380784
4071.7123645018	0.0217886120
4073.6411718748	0.0216593891
4075.5699792479	0.0215767045
4077.4987866209	0.0215980820
4079.4275939940	0.0214717835
4081.3564013670	0.0215537660
4083.2852087401	0.0215365682
4085.2140161131	0.0213640444
4087.1428234862	0.0213704817
4089.0716308592	0.0212533064
4091.0004382323	0.0211504679
4092.9292456053	0.0212580971
4094.8580529783	0.0212912280
4096.7868603514	0.0211467296
4098.7156677244	0.0209991001
4100.6444750975	0.0209787823
4102.5732824705	0.0209594388
4104.5020898436	0.0210003369
4106.4308972166	0.0209211726
4108.3597045897	0.0207566693
4110.2885119627	0.0207274556
4112.2173193358	0.0207232796
4114.1461267088	0.0207787529
4116.0749340819	0.0206486378
4118.0037414549	0.0206022169
4119.9325488280	0.0206372738
4121.8613562010	0.0205057692
4123.7901635740	0.0204176903
4125.7189709471	0.0204277299
4127.6477783201	0.0204920359
4129.5765856932	0.0202728491
4131.5053930662	0.0202527810
4133.4342004393	0.0203126892
4135.3630078123	0.0202049166
4137.2918151854	0.0201702453
4139.2206225584	0.0200205017
4141.1494299315	0.0200523902
4143.0782373045	0.0200082418
4145.0070446776	0.0199848600
4146.9358520506	0.0199059919
4148.8646594237	0.0198412016
4150.7934667967	0.0199047476
4152.7222741697	0.0197319314
4154.6510815428	0.0197513476
4156.5798889158	0.0196600147
4158.5086962889	0.0195856821
4160.4375036619	0.0195118301
4162.3663110350	0.0195079912
4164.2951184080	0.0195780061
4166.2239257811	0.0193680134
4168.1527331541	0.0194348283
4170.0815405272	0.0193517841
4172.0103479002	0.0193097759
4173.9391552733	0.0192314629
4175.8679626463	0.0191251971
4177.7967700194	0.0192559995
4179.7255773924	0.0191042423
4181.6543847654	0.0191134047
4183.5831921385	0.0190903358
4185.5119995115	0.0190641508
4187.4408068846	0.0190053321
4189.3696142576	0.0188873671
4191.2984216307	0.0188167207
4193.2272290037	0.0187667236
4195.1560363768	0.0188246910
4197.0848437498	0.0185854845
4199.0136511229	0.0186201707
4200.9424584959	0.0185935572
4202.8712658690	0.0185311325
4204.8000732420	0.0185818169
4206.7288806151	0.0184005424
4208.6576879881	0.0184903331
4210.5864953611	0.0183720253
4212.5153027342	0.0183218643
4214.4441101072	0.0183253661
4216.3729174803	0.0182679817
4218.3017248533	0.0182984732
4220.2305322264	0.0181967840
4222.1593395994	0.0182196312
4224.0881469725	0.0181056336
4226.0169543455	0.0180861242
4227.9457617186	0.0180008449
4229.8745690916	0.0179158486
4231.8033764647	0.0179756898
4233.7321838377	0.0178844705
4235.6609912108	0.0179396383
4237.5897985838	0.0178623926
4239.5186059569	0.0177747384
4241.4474133299	0.0177722685
4243.3762207029	0.0177225601
4245.3050280760	0.0177752897
4247.2338354490	0.0177170783
4249.1626428221	0.0175837651
4251.0914501951	0.0175809599
4253.0202575682	0.0175203979
4254.9490649412	0.0174599811
4256.8778723143	0.0174482912
4258.8066796873	0.0173391066
4260.7354870604	0.0173353869
4262.6642944334	0.0171963982
4264.5931018065	0.0172198713
4266.5219091795	0.0172477923
4268.4507165526	0.0170637034
4270.3795239256	0.0171729699
4272.3083312986	0.0170278773
4274.2371386717	0.0169699695
4276.1659460447	0.0170553662
4278.0947534178	0.0169825740
4280.0235607908	0.0169619694
4281.9523681639	0.0168813318
4283.8811755369	0.0168418363
4285.8099829100	0.0167683922
4287.7387902830	0.0168395359
4289.6675976561	0.0167727396
4291.5964050291	0.0166549273
4293.5252124022	0.0166463573
4295.4540197752	0.0165974349
4297.3828271483	0.0166322105
4299.3116345213	0.0165653192
4301.2404418943	0.0165818650
4303.1692492674	0.0165010095
4305.0980566404	0.0164213292
4307.0268640135	0.0163924340
4308.9556713865	0.0163935944
4310.8844787596	0.0163979717
4312.8132861326	0.0162556693
4314.7420935057	0.0163181238
4316.6709008787	0.0162360594
4318.5997082518	0.0161665529
4320.5285156248	0.0161057897
4322.4573229979	0.0160884038
4324.3861303709	0.0161597989
4326.3149377440	0.0160132814
4328.2437451170	0.0160419457
4330.1725524900	0.0159432478
4332.1013598631	0.0158931725
4334.0301672361	0.0158716775
4335.9589746092	0.0157993603
4337.8877819822	0.0158549715
4339.8165893553	0.0157356579
4341.7453967283	0.0156927016
4343.6742041014	0.0156487431
4345.6030114744	0.0156547818
4347.5318188475	0.0155969504
4349.4606262205	0.0155200996
4351.3894335936	0.0155388825
4353.3182409666	0.0154444892
4355.2470483397	0.0154299755
4357.1758557127	0.0154509507
4359.1046630858	0.0154549759
4361.0334704588	0.0153302383
4362.9622778318	0.0152534209
4364.8910852049	0.0152035579
4366.8198925779	0.0152203720
4368.7486999510	0.0152733484
4370.6775073240	0.0151139516
4372.6063146971	0.0151191056
4374.5351220701	0.0150798298
4376.4639294432	0.0150220748
4378.3927368162	0.0150220953
4380.3215441893	0.0149477087
4382.2503515623	0.0149483848
4384.1791589354	0.0149270212
4386.1079663084	0.0148235643
4388.0367736815	0.0147275627
4389.9655810545	0.0148012135
4391.8943884275	0.0148009043
4393.8231958006	0.0147822639
4395.7520031736	0.0147060622
4397.6808105467	0.0145997340
4399.6096179197	0.0146224294
4401.5384252928	0.0145442933
4403.4672326658	0.0145544503
4405.3960400389	0.0145048602
4407.3248474119	0.0144219846
4409.2536547850	0.0144207757
4411.1824621580	0.0143944575
4413.1112695311	0.0143144056
4415.0400769041	0.0143005941
4416.9688842772	0.0143344421
4418.8976916502	0.0141970497
4420.8264990232	0.0142688975
4422.7553063963	0.0142290825
4424.6841137693	0.0141531555
4426.6129211424	0.0141467117
4428.5417285154	0.0139835300
4430.4705358885	0.0140584521
4432.3993432615	0.0139210159
4434.3281506346	0.0138884922
4436.2569580076	0.0140246032
4438.1857653807	0.0138568264
4440.1145727537	0.0138437040
4442.0433801268	0.0138859265
4443.9721874998	0.0137948263
4445.9009948729	0.0137530509
4447.8298022459	0.0137575660
4449.7586096189	0.0136707518
4451.6874169920	0.0136550656
4453.6162243650	0.0136244055
4455.5450317381	0.0135752065
4457.4738391111	0.0135773728
4459.4026464842	0.0134948846
4461.3314538572	0.0135044400
4463.2602612303	0.0134445122
4465.1890686033	0.0133934487
4467.1178759764	0.0133575927
4469.0466833494	0.0133106448
4470.9754907225	0.0133082867
4472.9042980955	0.0132346414
4474.8331054686	0.0133181158
4476.7619128416	0.0132953217
4478.6907202147	0.0131893791
4480.6195275877	0.0131769348
4482.5483349607	0.0130938850
4484.4771423338	0.0130553953
4486.4059497068	0.0130854454
4488.3347570799	0.0130765233
4490.2635644529	0.0130078448
4492.1923718260	0.0130062569
4494.1211791990	0.0129145663
4496.0499865721	0.0128120296
4497.9787939451	0.0128213633
4499.9076013182	0.0128160715
4501.8364086912	0.0128605124
4503.7652160643	0.0127997296
4505.6940234373	0.0127647165
4507.6228308104	0.0127616534
4509.5516381834	0.0126199350
4511.4804455564	0.0126307998
4513.4092529295	0.0126379952
4515.3380603025	0.0125117451
4517.2668676756	0.0125087947
4519.1956750486	0.0125121009
4521.1244824217	0.0125097837
4523.0532897947	0.0124671757
4524.9820971678	0.0123849940
4526.9109045408	0.0124048162
4528.8397119139	0.0123526081
4530.7685192869	0.0123496205
4532.6973266600	0.0123249898
4534.6261340330	0.0122501049
4536.5549414061	0.0122300647
4538.4837487791	0.0121760033
4540.4125561521	0.0122349318
4542.3413635252	0.0121144727
4544.2701708982	0.0120838266
4546.1989782713	0.0121995006
4548.1277856443	0.0120746158
4550.0565930174	0.0121004004
4551.9854003904	0.0120323561
4553.9142077635	0.0119253509
4555.8430151365	0.0119741941
4557.7718225096	0.0118969530
4559.7006298826	0.0118161719
4561.6294372557	0.0117703658
4563.5582446287	0.0118242484
4565.4870520018	0.0117789228
4567.4158593748	0.0117050884
4569.3446667478	0.0117613953
4571.2734741209	0.0116597908
4573.2022814939	0.0116517385
4575.1310888670	0.0116906576
4577.0598962400	0.0116150975
4578.9887036131	0.0115882102
4580.9175109861	0.0114962086
4582.8463183592	0.0114615224
4584.7751257322	0.0114879385
4586.7039331053	0.0114552844
4588.6327404783	0.0113872103
4590.5615478514	0.0113574099
4592.4903552244	0.0113671236
4594.4191625975	0.0112858508
4596.3479699705	0.0113220876
4598.2767773435	0.0113523677
4600.2055847166	0.0112344213
4602.1343920896	0.0111785298
4604.0631994627	0.0111453244
4605.9920068357	0.0111263478
4607.9208142088	0.0110991327
4609.8496215818	0.0110796187
4611.7784289549	0.0110380668
4613.7072363279	0.0110411113
4615.6360437010	0.0110535193
4617.5648510740	0.0109598003
4619.4936584471	0.0109230597
4621.4224658201	0.0108722392
4623.3512731932	0.0108089875
4625.2800805662	0.0108413324
4627.2088879393	0.0108891409
4629.1376953123	0.0107883625
4631.0665026853	0.0107233422
4632.9953100584	0.0107302498
4634.9241174314	0.0106673222
4636.8529248045	0.0106888497
4638.7817321775	0.0106759816
4640.7105395506	0.0107354252
4642.6393469236	0.0106437104
4644.5681542967	0.0105263162
4646.4969616697	0.0106292628
4648.4257690428	0.0105109001
4650.3545764158	0.0104996040
4652.2833837889	0.0104633961
4654.2121911619	0.0103870910
4656.1409985350	0.0104400720
4658.0698059080	0.0103765242
4659.9986132810	0.0103807412
4661.9274206541	0.0103563005
4663.8562280271	0.0103494171
4665.7850354002	0.0102860816
4667.7138427732	0.0102176061
4669.6426501463	0.0102448771
4671.5714575193	0.0101978835
4673.5002648924	0.0102014355
4675.4290722654	0.0101688420
4677.3578796385	0.0101306438
4679.2866870115	0.0101323482
4681.2154943846	0.0100715626
4683.1443017576	0.0100515001
4685.0731091307	0.0101054665
4687.0019165037	0.0100515019
4688.9307238767	0.0099948309
4690.8595312498	0.0099422224
4692.7883386228	0.0098877167
4694.7171459959	0.0099768359
4696.6459533689	0.0098973513
4698.5747607420	0.0098847002
4700.5035681150	0.0099083036
4702.4323754881	0.0097856894
4704.3611828611	0.0098043308
4706.2899902342	0.0097633004
4708.2187976072	0.0097111147
4710.1476049803	0.0097397603
4712.0764123533	0.0097521823
4714.0052197264	0.0097073894
4715.9340270994	0.0096543673
4717.8628344724	0.0095539484
4719.7916418455	0.0095054116
4721.7204492185	0.0095444294
4723.6492565916	0.0095149307
4725.5780639646	0.0095541412
4727.5068713377	0.0094533432
4729.4356787107	0.0094024148
4731.3644860838	0.0095026437
4733.2932934568	0.0094762584
4735.2221008299	0.0093561709
4737.1509082029	0.0093455203
4739.0797155760	0.0094005223
4741.0085229490	0.0092345309
4742.9373303221	0.0093058255
4744.8661376951	0.0093254037
4746.7949450682	0.0092287585
4748.7237524412	0.0092872791
4750.6525598142	0.0092118150
4752.5813671873	0.0092125200
4754.5101745603	0.0091472063
4756.4389819334	0.0091512864
4758.3677893064	0.0091231605
4760.2965966795	0.0090799890
4762.2254040525	0.0090262257
4764.1542114256	0.0089752041
4766.0830187986	0.0090786070
4768.0118261717	0.0088896956
4769.9406335447	0.0089703137
4771.8694409178	0.0089989342
4773.7982482908	0.0088760853
4775.7270556639	0.0089201815
4777.6558630369	0.0088269059
4779.5846704099	0.0088771647
4781.5134777830	0.0087655783
4783.4422851560	0.0087664705
4785.3710925291	0.0088130748
4787.2998999021	0.0087747714
4789.2287072752	0.0087541118
4791.1575146482	0.0087274136
4793.0863220213	0.0088184457
4795.0151293943	0.0086385747
4796.9439367674	0.0086390674
4798.8727441404	0.0086221769
4800.8015515135	0.0085419547
4802.7303588865	0.0085851355
4804.6591662596	0.0085605457
4806.5879736326	0.0085941125
4808.5167810056	0.0084704738
4810.4455883787	0.0084954556
4812.3743957517	0.0084448121
4814.3032031248	0.0084270239
4816.2320104978	0.0084289853
4818.1608178709	0.0083269253
4820.0896252439	0.0084179500
4822.0184326170	0.0083398717
4823.9472399900	0.0083808070
4825.8760473631	0.0083692484
4827.8048547361	0.0083024167
4829.7336621092	0.0082962383
4831.6624694822	0.0082121771
4833.5912768553	0.0082025193
4835.5200842283	0.0081917737
4837.4488916013	0.0082395989
4839.3776989744	0.0081387507
4841.3065063474	0.0082105137
4843.2353137205	0.0081919041
4845.1641210935	0.0080387387
4847.0929284666	0.0081263352
4849.0217358396	0.0080036540
4850.9505432127	0.0079623172
4852.8793505857	0.0079592858
4854.8081579588	0.0079430602
4856.7369653318	0.0079568457
4858.6657727049	0.0079137776
4860.5945800779	0.0079733375
4862.5233874510	0.0079012457
4864.4521948240	0.0077802269
4866.3810021971	0.0077648456
4868.3098095701	0.0077928021
4870.2386169431	0.0078162365
4872.1674243162	0.0077653406
4874.0962316892	0.0076221013
4876.0250390623	0.0076634241
4877.9538464353	0.0077428268
4879.8826538084	0.0076531856
4881.8114611814	0.0076109739
4883.7402685545	0.0076285265
4885.6690759275	0.0076839114
4887.5978833006	0.0075759795
4889.5266906736	0.0076010451
4891.4554980467	0.0076413648
4893.3843054197	0.0075169820
4895.3131127928	0.0075013591
4897.2419201658	0.0074482081
4899.1707275388	0.0075216875
4901.0995349119	0.0075102067
4903.0283422849	0.0074819680
4904.9571496580	0.0074345265
4906.8859570310	0.0073267752
4908.8147644041	0.0073997630
4910.7435717771	0.0074006105
4912.6723791502	0.0073682577
4914.6011865232	0.0072649084
4916.5299938963	0.0073158108
4918.4588012693	0.0072962283
4920.3876086424	0.0072544515
4922.3164160154	0.0073751719
4924.2452233885	0.0072176922
4926.1740307615	0.0071999915
4928.1028381345	0.0072059082
4930.0316455076	0.0072271465
4931.9604528806	0.0072391140
4933.8892602537	0.0070767533
4935.8180676267	0.0070648105
4937.7468749998	0.0070730220
4939.6756823728	0.0071101757
4941.6044897459	0.0070329295
4943.5332971189	0.0070039183
4945.4621044920	0.0070188325
4947.3909118650	0.0069821393
4949.3197192381	0.0069920425
4951.2485266111	0.0068684262
4953.1773339842	0.0069321524
4955.1061413572	0.0069711301
4957.0349487302	0.0068733599
4958.9637561033	0.0069252988
4960.8925634763	0.0068856087
4962.8213708494	0.0068203425
4964.7501782224	0.0068654884
4966.6789855955	0.0068260804
4968.6077929685	0.0067985049
4970.5366003416	0.0068010199
4972.4654077146	0.0066953171
4974.3942150877	0.0066863750
4976.3230224607	0.0066565257
4978.2518298338	0.0066692084
4980.1806372068	0.0067154272
4982.1094445799	0.0066480250
4984.0382519529	0.0067042811
4985.9670593259	0.0066722450
4987.8958666990	0.0065757418
4989.8246740720	0.0065827030
4991.7534814451	0.0066428147
4993.6822888181	0.0066285459
4995.6110961912	0.0065640835
4997.5399035642	0.0065709325
4999.4687109373	0.0065247118
5001.3975183103	0.0065247118
5003.3263256834	0.0064504128
5005.2551330564	0.0063913399
5007.1839404295	0.0064543718
5009.1127478025	0.0064353785
5011.0415551756	0.0063913530
5012.9703625486	0.0063669966
5014.8991699217	0.0063623069
5016.8279772947	0.0062860921
5018.7567846677	0.0063174032
5020.6855920408	0.0063751424
5022.6143994138	0.0062883990
5024.5432067869	0.0062705036
5026.4720141599	0.0062822141
5028.4008215330	0.0062589664
5030.3296289060	0.0062259138
5032.2584362791	0.0062508993
5034.1872436521	0.0062201740
5036.1160510252	0.0061582448
5038.0448583982	0.0061124722
5039.9736657713	0.0060970085
5041.9024731443	0.0061448263
5043.8312805174	0.0060519446
5045.7600878904	0.0060605342
5047.6888952634	0.0060707186
5049.6177026365	0.0059978962
5051.5465100095	0.0060282890
5053.4753173826	0.0059463391
5055.4041247556	0.0059738639
5057.3329321287	0.0060231029
5059.2617395017	0.0059219217
5061.1905468748	0.0059383772
5063.1193542478	0.0059372159
5065.0481616209	0.0058550839
5066.9769689939	0.0058827689
5068.9057763670	0.0059042242
5070.8345837400	0.0058155246
5072.7633911131	0.0058259917
5074.6921984861	0.0058185966
5076.6210058591	0.0057254164
5078.5498132322	0.0057417117
5080.4786206052	0.0057543200
5082.4074279783	0.0057305875
5084.3362353513	0.0057181660
5086.2650427244	0.0057235779
5088.1938500974	0.0056951153
5090.1226574705	0.0056318049
5092.0514648435	0.0056247246
5093.9802722166	0.0056290985
5095.9090795896	0.0056695393
5097.8378869627	0.0056181811
5099.7666943357	0.0056223478
5101.6955017088	0.0057102414
5103.6243090818	0.0055644810
5105.5531164548	0.0055389265
5107.4819238279	0.0055527426
5109.4107312009	0.0054663722
5111.3395385740	0.0055149193
5113.2683459470	0.0055151191
5115.1971533201	0.0054804306
5117.1259606931	0.0054440862
5119.0547680662	0.0054647862
5120.9835754392	0.0054738261
5122.9123828123	0.0054459237
5124.8411901853	0.0054323771
5126.7699975584	0.0053716609
5128.6988049314	0.0054045669
5130.6276123045	0.0053760046
5132.5564196775	0.0053442148
5134.4852270506	0.0053479960
5136.4140344236	0.0053290045
5138.3428417966	0.0053487271
5140.2716491697	0.0053190114
5142.2004565427	0.0053188568
5144.1292639158	0.0052158032
5146.0580712888	0.0052222167
5147.9868786619	0.0053559747
5149.9156860349	0.0053001996
5151.8444934080	0.0052350857
5153.7733007810	0.0051899403
5155.7021081541	0.0051613390
5157.6309155271	0.0051636589
5159.5597229002	0.0051991111
5161.4885302732	0.0051575052
5163.4173376463	0.0050587580
5165.3461450193	0.0051041981
5167.2749523923	0.0051385546
5169.2037597654	0.0050394796
5171.1325671384	0.0049956180
5173.0613745115	0.0050820499
5174.9901818845	0.0050624828
5176.9189892576	0.0050319582
5178.8477966306	0.0050059953
5180.7766040037	0.0049402099
5182.7054113767	0.0049907062
5184.6342187498	0.0049741175
5186.5630261228	0.0049282834
5188.4918334959	0.0049326085
5190.4206408689	0.0049372753
5192.3494482420	0.0049430057
5194.2782556150	0.0049280105
5196.2070629880	0.0048616012
5198.1358703611	0.0048478153
5200.0646777341	0.0049248915
5201.9934851072	0.0048691803
5203.9222924802	0.0048195329
5205.8510998533	0.0047731926
5207.7799072263	0.0047347974
5209.7087145994	0.0047918088
5211.6375219724	0.0048306733
5213.5663293455	0.0048936089
5215.4951367185	0.0048336131
5217.4239440916	0.0048056436
5219.3527514646	0.0047849072
5221.2815588377	0.0046439557
5223.2103662107	0.0047077127
5225.1391735837	0.0047212718
5227.0679809568	0.0046288804
5228.9967883298	0.0046855109
5230.9255957029	0.0046403562
5232.8544030759	0.0046363240
5234.7832104490	0.0047186827
5236.7120178220	0.0046386970
5238.6408251951	0.0046255761
5240.5696325681	0.0045941877
5242.4984399412	0.0045355419
5244.4272473142	0.0045361216
5246.3560546873	0.0044742757
5248.2848620603	0.0044433614
5250.2136694334	0.0044497205
5252.1424768064	0.0045143068
5254.0712841795	0.0044696112
5256.0000915525	0.0044401046
5257.9288989255	0.0044762678
5259.8577062986	0.0044888072
5261.7865136716	0.0044741021
5263.7153210447	0.0042804703
5265.6441284177	0.0043373490
5267.5729357908	0.0043883445
5269.5017431638	0.0043467022
5271.4305505369	0.0044608675
5273.3593579099	0.0043877061
5275.2881652830	0.0043650204
5277.2169726560	0.0044066752
5279.1457800291	0.0044038212
5281.0745874021	0.0043801181
5283.0033947752	0.0043715327
5284.9322021482	0.0043410691
5286.8610095212	0.0043069562
5288.7898168943	0.0043091779
5290.7186242673	0.0042554219
5292.6474316404	0.0043056747
5294.5762390134	0.0042359401
5296.5050463865	0.0042260764
5298.4338537595	0.0042178268
5300.3626611326	0.0041661048
5302.2914685056	0.0043049566
5304.2202758787	0.0042344839
5306.1490832517	0.0041974336
5308.0778906248	0.0041820235
5310.0066979978	0.0042297663
5311.9355053709	0.0042303884
5313.8643127439	0.0040717609
5315.7931201169	0.0041521499
5317.7219274900	0.0041265590
5319.6507348630	0.0041558919
5321.5795422361	0.0041623618
5323.5083496091	0.0040263385
5325.4371569822	0.0040529240
5327.3659643552	0.0040298575
5329.2947717283	0.0039996719
5331.2235791013	0.0040415567
5333.1523864744	0.0040385034
5335.0811938474	0.0040225252
5337.0100012205	0.0040071756
5338.9388085935	0.0038766428
5340.8676159666	0.0040180199
5342.7964233396	0.0040026973
5344.7252307126	0.0037117726
5346.6540380857	0.0039169150
5348.5828454587	0.0039513442
5350.5116528318	0.0039106151
5352.4404602048	0.0039142268
5354.3692675779	0.0037543764
5356.2980749509	0.0038813604
5358.2268823240	0.0038958678
5360.1556896970	0.0038207108
5362.0844970701	0.0038038041
5364.0133044431	0.0037937858
5365.9421118162	0.0038120970
5367.8709191892	0.0037676864
5369.7997265623	0.0037776905
5371.7285339353	0.0037516041
5373.6573413083	0.0037160937
5375.5861486814	0.0037303749
5377.5149560544	0.0037213955
5379.4437634275	0.0037594922
5381.3725708005	0.0038180028
5383.3013781736	0.0037170900
5385.2301855466	0.0036455886
5387.1589929197	0.0037146169
5389.0878002927	0.0037588356
5391.0166076658	0.0037544947
5392.9454150388	0.0036513819
5394.8742224119	0.0036163698
5396.8030297849	0.0036699127
5398.7318371580	0.0036500455
5400.6606445310	0.0036087660
5402.5894519041	0.0036479402
5404.5182592771	0.0036444257
5406.4470666501	0.0036396838
5408.3758740232	0.0036513133
5410.3046813962	0.0035183439
5412.2334887693	0.0034982718
5414.1622961423	0.0034147729
5416.0911035154	0.0034503620
5418.0199108884	0.0036252406
5419.9487182615	0.0035228538
5421.8775256345	0.0035632525
5423.8063330076	0.0035348770
5425.7351403806	0.0034909467
5427.6639477537	0.0035630818
5429.5927551267	0.0034878622
5431.5215624998	0.0034992080
5433.4503698728	0.0034644278
5435.3791772458	0.0033939227
5437.3079846189	0.0034529080
5439.2367919919	0.0035040951
5441.1655993650	0.0033820765
5443.0944067380	0.0033668256
5445.0232141111	0.0034048036
5446.9520214841	0.0033222619
5448.8808288572	0.0034416947
5450.8096362302	0.0034438181
5452.7384436033	0.0033787326
5454.6672509763	0.0034071952
5456.5960583494	0.0033735172
5458.5248657224	0.0033929129
5460.4536730955	0.0033391935
5462.3824804685	0.0032669122
5464.3112878415	0.0032778056
5466.2400952146	0.0033146581
5468.1689025876	0.0032852124
5470.0977099607	0.0032667187
5472.0265173337	0.0033009239
5473.9553247068	0.0032281270
5475.8841320798	0.0031387343
5477.8129394529	0.0031645298
5479.7417468259	0.0032568902
5481.6705541990	0.0032840972
5483.5993615720	0.0032457421
5485.5281689451	0.0032093273
5487.4569763181	0.0032141961
5489.3857836912	0.0031784712
5491.3145910642	0.0031559628
5493.2433984372	0.0031562853
5495.1722058103	0.0031235549
5497.1010131833	0.0032081832
5499.0298205564	0.0031591975
5500.9586279294	0.0030714818
5502.8874353025	0.0031201667
5504.8162426755	0.0031297356
5506.7450500486	0.0031261663
5508.6738574216	0.0030824007
5510.6026647947	0.0030911178
5512.5314721677	0.0030667167
5514.4602795408	0.0030472465
5516.3890869138	0.0030672718
5518.3178942869	0.0030605816
5520.2467016599	0.0030422909
5522.1755090330	0.0029593422
5524.1043164060	0.0030090073
5526.0331237790	0.0029853496
5527.9619311521	0.0029401612
5529.8907385251	0.0029873897
5531.8195458982	0.0029644943
5533.7483532712	0.0030109019
5535.6771606443	0.0029728776
5537.6059680173	0.0029628617
5539.5347753904	0.0029656047
5541.4635827634	0.0029569706
5543.3923901365	0.0030457117
5545.3211975095	0.0029735458
5547.2500048826	0.0029241699
5549.1788122556	0.0029392964
5551.1076196287	0.0029345651
5553.0364270017	0.0029373032
5554.9652343747	0.0028762768
5556.8940417478	0.0028685145
5558.8228491208	0.0028947901
5560.7516564939	0.0028674356
5562.6804638669	0.0028361762
5564.6092712400	0.0028894269
5566.5380786130	0.0029231443
5568.4668859861	0.0029056780
5570.3956933591	0.0028697711
5572.3245007322	0.0027871379
5574.2533081052	0.0027694511
5576.1821154783	0.0027780095
5578.1109228513	0.0028424601
5580.0397302244	0.0028460941
5581.9685375974	0.0027404961
5583.8973449704	0.0027516638
5585.8261523435	0.0027568308
5587.7549597165	0.0027627633
5589.6837670896	0.0027428865
5591.6125744626	0.0027152505
5593.5413818357	0.0027598022
5595.4701892087	0.0027104174
5597.3989965818	0.0027703776
5599.3278039548	0.0027842335
5601.2566113279	0.0026549823
5603.1854187009	0.0027340599
5605.1142260740	0.0027264571
5607.0430334470	0.0026279213
5608.9718408201	0.0026854768
5610.9006481931	0.0026666066
5612.8294555661	0.0026010203
5614.7582629392	0.0025975299
5616.6870703122	0.0026003881
5618.6158776853	0.0026317718
5620.5446850583	0.0026705526
5622.4734924314	0.0026489412
5624.4022998044	0.0026059551
5626.3311071775	0.0026042606
5628.2599145505	0.0025677336
5630.1887219236	0.0025834977
5632.1175292966	0.0025934051
5634.0463366697	0.0024723774
5635.9751440427	0.0025215433
5637.9039514158	0.0025736862
5639.8327587888	0.0025152552
5641.7615661619	0.0025248893
5643.6903735349	0.0024832198
5645.6191809079	0.0025485829
5647.5479882810	0.0025920956
5649.4767956540	0.0025284279
5651.4056030271	0.0024993452
5653.3344104001	0.0024452016
5655.2632177732	0.0024674200
5657.1920251462	0.0024497001
5659.1208325193	0.0024357401
5661.0496398923	0.0024573205
5662.9784472654	0.0024337359
5664.9072546384	0.0024941203
5666.8360620115	0.0024513323
5668.7648693845	0.0023809723
5670.6936767576	0.0024510773
5672.6224841306	0.0024246473
5674.5512915036	0.0024078547
5676.4800988767	0.0024590706
5678.4089062497	0.0023916792
5680.3377136228	0.0023623363
5682.2665209958	0.0023887840
5684.1953283689	0.0024260874
5686.1241357419	0.0023988788
5688.0529431150	0.0023086495
5689.9817504880	0.0023541898
5691.9105578611	0.0023204563
5693.8393652341	0.0023292541
5695.7681726072	0.0023830850
5697.6969799802	0.0022825715
5699.6257873533	0.0022621122
5701.5545947263	0.0023170081
5703.4834020993	0.0023717224
5705.4122094724	0.0022858577
5707.3410168454	0.0022649053
5709.2698242185	0.0023103443
5711.1986315915	0.0022592379
5713.1274389646	0.0022876211
5715.0562463376	0.0022647616
5716.9850537107	0.0022749957
5718.9138610837	0.0022162003
5720.8426684568	0.0021774117
5722.7714758298	0.0022195810
5724.7002832029	0.0021538122
5726.6290905759	0.0022503610
5728.5578979490	0.0022868109
5730.4867053220	0.0022386929
5732.4155126950	0.0022639851
5734.3443200681	0.0022007888
5736.2731274411	0.0021323487
5738.2019348142	0.0021287287
5740.1307421872	0.0021289364
5742.0595495603	0.0021669036
5743.9883569333	0.0022218404
5745.9171643064	0.0021302272
5747.8459716794	0.0020743455
5749.7747790525	0.0021161204
5751.7035864255	0.0021513128
5753.6323937986	0.0021140473
5755.5612011716	0.0020764542
5757.4900085447	0.0021028596
5759.4188159177	0.0020498065
5761.3476232907	0.0020493297
5763.2764306638	0.0020132218
5765.2052380368	0.0020659231
5767.1340454099	0.0021184380
5769.0628527829	0.0020269849
5770.9916601560	0.0020697303
5772.9204675290	0.0020443350
5774.8492749021	0.0020495411
5776.7780822751	0.0020497972
5778.7068896482	0.0020406337
5780.6356970212	0.0020549011
5782.5645043943	0.0020112917
5784.4933117673	0.0020508147
5786.4221191404	0.0020174813
5788.3509265134	0.0020429518
5790.2797338865	0.0019969004
5792.2085412595	0.0019760502
5794.1373486325	0.0020484305
5796.0661560056	0.0019513769
5797.9949633786	0.0019334948
5799.9237707517	0.0019409468
5801.8525781247	0.0019563907
5803.7813854978	0.0019308908
5805.7101928708	0.0019113441
5807.6390002439	0.0019141956
5809.5678076169	0.0019129118
5811.4966149900	0.0019699659
5813.4254223630	0.0018947835
5815.3542297361	0.0019266533
5817.2830371091	0.0019592734
5819.2118444822	0.0019520929
5821.1406518552	0.0020121271
5823.0694592282	0.0019112118
5824.9982666013	0.0018215324
5826.9270739743	0.0018430329
5828.8558813474	0.0018951307
5830.7846887204	0.0018733665
5832.7134960935	0.0019038937
5834.6423034665	0.0019082220
5836.5711108396	0.0017780236
5838.4999182126	0.0018222739
5840.4287255857	0.0018905752
5842.3575329587	0.0018337413
5844.2863403318	0.0018165794
5846.2151477048	0.0018370399
5848.1439550779	0.0018120445
5850.0727624509	0.0017654957
5852.0015698239	0.0017910921
5853.9303771970	0.0018002936
5855.8591845700	0.0017615410
5857.7879919431	0.0018273279
5859.7167993161	0.0017998426
5861.6456066892	0.0017345326
5863.5744140622	0.0017710754
5865.5032214353	0.0017073823
5867.4320288083	0.0017621259
5869.3608361814	0.0017857228
5871.2896435544	0.0017434668
5873.2184509275	0.0017301410
5875.1472583005	0.0016805199
5877.0760656736	0.0017295455
5879.0048730466	0.0016380950
5880.9336804196	0.0016794199
5882.8624877927	0.0017245009
5884.7912951657	0.0016483341
5886.7201025388	0.0016909128
5888.6489099118	0.0016644623
5890.5777172849	0.0017057918
5892.5065246579	0.0016471831
5894.4353320310	0.0016753257
5896.3641394040	0.0016821888
5898.2929467771	0.0016268662
5900.2217541501	0.0017413484
5902.1505615232	0.0016214878
5904.0793688962	0.0016295463
5906.0081762693	0.0016767001
5907.9369836423	0.0016636180
5909.8657910154	0.0017258573
5911.7945983884	0.0016663591
5913.7234057614	0.0016332727
5915.6522131345	0.0015834842
5917.5810205075	0.0016179850
5919.5098278806	0.0016136642
5921.4386352536	0.0016070502
5923.3674426267	0.0016153891
5925.2962499997	0.0015746213
5927.2250573728	0.0016672020
5929.1538647458	0.0016080998
5931.0826721189	0.0015337132
5933.0114794919	0.0015780152
5934.9402868650	0.0015654387
5936.8690942380	0.0015306619
5938.7979016111	0.0015532132
5940.7267089841	0.0016087056
5942.6555163571	0.0015732286
5944.5843237302	0.0015887148
5946.5131311032	0.0016303259
5948.4419384763	0.0015329325
5950.3707458493	0.0014740748
5952.2995532224	0.0015089407
5954.2283605954	0.0014598941
5956.1571679685	0.0015054680
5958.0859753415	0.0015300579
5960.0147827146	0.0014394178
5961.9435900876	0.0015097739
5963.8723974607	0.0014622760
5965.8012048337	0.0014102963
5967.7300122068	0.0014577693
5969.6588195798	0.0014284489
5971.5876269528	0.0014777523
5973.5164343259	0.0014782234
5975.4452416989	0.0014247356
5977.3740490720	0.0014380452
5979.3028564450	0.0014793098
5981.2316638181	0.0014590155
5983.1604711911	0.0013829018
5985.0892785642	0.0013746254
5987.0180859372	0.0014426622
5988.9468933103	0.0014586018
5990.8757006833	0.0014470441
5992.8045080564	0.0014475840
5994.7333154294	0.0014196861
5996.6621228025	0.0014721097
5998.5909301755	0.0014162352
6000.5197375485	0.0013574412
