399.2631262207	0.0002532058
401.1919335938	0.0004062364
403.1207409668	0.0006610565
405.0495483398	0.0007684658
406.9783557129	0.0002840035
408.9071630859	0.0001662593
410.8359704590	0.0003593647
412.7647778320	0.0004690317
414.6935852051	0.0001734108
416.6223925781	0.0001452666
418.5511999512	0.0008021885
420.4800073242	0.0005470455
422.4088146973	0.0004379334
424.3376220703	0.0006404942
426.2664294434	0.0004254043
428.1952368164	0.0002355482
430.1240441895	0.0000377002
432.0528515625	0.0005354571
433.9816589355	0.0005117955
435.9104663086	0.0003953372
437.8392736816	0.0004386349
439.7680810547	0.0001695988
441.6968884277	0.0006535235
443.6256958008	0.0006822221
445.5545031738	0.0005242594
447.4833105469	0.0005362973
449.4121179199	0.0006875595
451.3409252930	0.0005053045
453.2697326660	-0.0000355693
455.1985400391	0.0005015953
457.1273474121	0.0002990808
459.0561547852	-0.0000620126
460.9849621582	0.0004594474
462.9137695313	0.0005032372
464.8425769043	0.0003958304
466.7713842773	0.0003286629
468.7001916504	0.0002303973
470.6289990234	0.0001054141
472.5578063965	0.0001879636
474.4866137695	0.0000355463
476.4154211426	-0.0000571178
478.3442285156	0.0003303784
480.2730358887	0.0004317969
482.2018432617	0.0001546929
484.1306506348	0.0000759127
486.0594580078	0.0003972879
487.9882653809	0.0004052113
489.9170727539	0.0003335546
491.8458801270	0.0000861650
493.7746875000	0.0001707419
495.7034948730	0.0003512100
497.6323022461	0.0001479379
499.5611096191	0.0003451477
501.4899169922	0.0002039658
503.4187243652	0.0003353844
505.3475317383	0.0003951394
507.2763391113	0.0003686803
509.2051464844	0.0003392437
511.1339538574	-0.0001227657
513.0627612305	0.0003223159
514.9915686035	0.0004223320
516.9203759766	0.0003225165
518.8491833496	0.0000048606
520.7779907227	-0.0002170155
522.7067980957	0.0003529244
524.6356054688	0.0001142888
526.5644128418	0.0003764714
528.4932202148	0.0003997634
530.4220275879	-0.0000300895
532.3508349609	0.0002183989
534.2796423340	0.0002065206
536.2084497070	0.0003181866
538.1372570801	-0.0000298141
540.0660644531	-0.0001664152
541.9948718262	0.0003559382
543.9236791992	0.0001890652
545.8524865723	0.0002382518
547.7812939453	0.0004564224
549.7101013184	0.0000214495
551.6389086914	-0.0000433098
553.5677160645	0.0001926030
555.4965234375	0.0002750225
557.4253308105	0.0003834087
559.3541381836	0.0003021871
561.2829455566	-0.0000825352
563.2117529297	-0.0001082179
565.1405603027	0.0002958195
567.0693676758	0.0000732313
568.9981750488	0.0000443773
570.9269824219	0.0003251333
572.8557897949	-0.0000127923
574.7845971680	-0.0000373372
576.7134045410	0.0001729956
578.6422119141	0.0000709191
580.5710192871	0.0004814247
582.4998266602	0.0001548886
584.4286340332	-0.0000368014
586.3574414063	0.0002527788
588.2862487793	0.0000633197
590.2150561523	0.0002043702
592.1438635254	-0.0000556775
594.0726708984	0.0000230013
596.0014782715	0.0002958302
597.9302856445	0.0001295490
599.8590930176	0.0001227101
601.7879003906	0.0000683862
603.7167077637	0.0000061177
605.6455151367	0.0001361068
607.5743225098	0.0002057843
609.5031298828	-0.0000260032
611.4319372559	0.0002857519
613.3607446289	0.0000607826
615.2895520020	0.0000928510
617.2183593750	0.0000135725
619.1471667480	-0.0003263674
621.0759741211	0.0001250737
623.0047814941	0.0002289289
624.9335888672	0.0001946590
626.8623962402	0.0001709683
628.7912036133	0.0000661522
630.7200109863	0.0001393419
632.6488183594	0.0005447505
634.5776257324	0.0005534885
636.5064331055	0.0003827696
638.4352404785	0.0005987281
640.3640478516	0.0006123773
642.2928552246	0.0007694787
644.2216625977	0.0007898560
646.1504699707	0.0009218184
648.0792773438	0.0013016330
650.0080847168	0.0011196060
651.9368920898	0.0008126535
653.8656994629	0.0009795795
655.7945068359	0.0011619712
657.7233142090	0.0009756881
659.6521215820	0.0011790232
661.5809289551	0.0012544409
663.5097363281	0.0014089830
665.4385437012	0.0015488535
667.3673510742	0.0011211300
669.2961584473	0.0012951479
671.2249658203	0.0012732826
673.1537731934	0.0015169363
675.0825805664	0.0018658728
677.0113879395	0.0014320825
678.9401953125	0.0017033662
680.8690026855	0.0019834952
682.7978100586	0.0017679189
684.7266174316	0.0018008917
686.6554248047	0.0018224715
688.5842321777	0.0015060301
690.5130395508	0.0016693026
692.4418469238	0.0020230666
694.3706542969	0.0021563701
696.2994616699	0.0026225834
698.2282690430	0.0025446049
700.1570764160	0.0026991279
702.0858837891	0.0029189514
704.0146911621	0.0028168801
705.9434985352	0.0027291668
707.8723059082	0.0018963829
709.8011132813	0.0016593065
711.7299206543	0.0012779534
713.6587280273	0.0006779424
715.5875354004	0.0006958443
717.5163427734	0.0003951449
719.4451501465	0.0005148012
721.3739575195	0.0003352310
723.3027648926	0.0001533868
725.2315722656	0.0004727364
727.1603796387	0.0000484277
729.0891870117	-0.0001009639
731.0179943848	0.0002695693
732.9468017578	0.0002853678
734.8756091309	0.0002351796
736.8044165039	0.0004158413
738.7332238770	0.0005348102
740.6620312500	0.0002633533
742.5908386230	0.0001251358
744.5196459961	0.0003733575
746.4484533691	0.0004920295
748.3772607422	0.0004072963
750.3060681152	0.0001466944
752.2348754883	0.0000660395
754.1636828613	0.0002659312
756.0924902344	0.0001539627
758.0212976074	0.0003349111
759.9501049805	0.0006443149
761.8789123535	0.0003785405
763.8077197266	0.0004471244
765.7365270996	0.0004416564
767.6653344727	0.0004037923
769.5941418457	0.0004212793
771.5229492188	0.0003738386
773.4517565918	0.0007285801
775.3805639648	0.0002297239
777.3093713379	0.0001399779
779.2381787109	0.0006045299
781.1669860840	0.0002588354
783.0957934570	0.0003635827
785.0246008301	0.0003024217
786.9534082031	0.0000965078
788.8822155762	0.0003427805
790.8110229492	0.0004558603
792.7398303223	0.0004094025
794.6686376953	0.0003190469
796.5974450684	0.0005561267
798.5262524414	0.0005961860
800.4550598145	0.0005110732
802.3838671875	0.0005985856
804.3126745605	0.0004740362
806.2414819336	0.0004506266
808.1702893066	0.0004338372
810.0990966797	0.0004313037
812.0279040527	0.0004737361
813.9567114258	0.0004345702
815.8855187988	0.0006697710
817.8143261719	0.0005738852
819.7431335449	0.0001678157
821.6719409180	0.0003675836
823.6007482910	0.0006231848
825.5295556641	0.0005580205
827.4583630371	0.0004888715
829.3871704102	0.0006312491
831.3159777832	0.0006708215
833.2447851563	0.0005594689
835.1735925293	0.0009358973
837.1023999023	0.0009519623
839.0312072754	0.0007276664
840.9600146484	0.0009558900
842.8888220215	0.0008415825
844.8176293945	0.0004883856
846.7464367676	0.0005662821
848.6752441406	0.0007030127
850.6040515137	0.0004642582
852.5328588867	0.0008051594
854.4616662598	0.0009721372
856.3904736328	0.0006396199
858.3192810059	0.0008373427
860.2480883789	0.0005412679
862.1768957520	0.0004405165
864.1057031250	0.0007082823
866.0345104980	0.0004832985
867.9633178711	0.0002936545
869.8921252441	0.0004005200
871.8209326172	0.0008311357
873.7497399902	0.0007034078
875.6785473633	0.0004666160
877.6073547363	0.0005352432
879.5361621094	0.0004232313
881.4649694824	0.0002995473
883.3937768555	0.0002894843
885.3225842285	0.0005258149
887.2513916016	0.0004356170
889.1801989746	0.0003932582
891.1090063477	0.0004344797
893.0378137207	0.0003760647
894.9666210938	0.0005133821
896.8954284668	0.0004741065
898.8242358398	0.0005505697
900.7530432129	0.0004180089
902.6818505859	0.0004709943
904.6106579590	0.0007893691
906.5394653320	0.0005060894
908.4682727051	0.0003347172
910.3970800781	0.0004197235
912.3258874512	0.0006998350
914.2546948242	0.0008538708
916.1835021973	0.0006860610
918.1123095703	0.0006729958
920.0411169434	0.0008070762
921.9699243164	0.0011296492
923.8987316895	0.0011160595
925.8275390625	0.0010844483
927.7563464355	0.0010923288
929.6851538086	0.0008803786
931.6139611816	0.0011969851
933.5427685547	0.0013272136
935.4715759277	0.0012666031
937.4003833008	0.0013575832
939.3291906738	0.0012474913
941.2579980469	0.0012748023
943.1868054199	0.0013289964
945.1156127930	0.0014162461
947.0444201660	0.0014694065
948.9732275391	0.0015961565
950.9020349121	0.0015994704
952.8308422852	0.0013519749
954.7596496582	0.0014482324
956.6884570313	0.0015466951
958.6172644043	0.0015980403
960.5460717773	0.0014987425
962.4748791504	0.0013624883
964.4036865234	0.0015832470
966.3324938965	0.0015102096
968.2613012695	0.0014243820
970.1901086426	0.0016314695
972.1189160156	0.0015858830
974.0477233887	0.0016407141
975.9765307617	0.0020794063
977.9053381348	0.0020983173
979.8341455078	0.0020017703
981.7629528809	0.0023602103
983.6917602539	0.0025172746
985.6205676270	0.0027701058
987.5493750000	0.0030193334
989.4781823730	0.0032369932
991.4069897461	0.0038181227
993.3357971191	0.0039863754
995.2646044922	0.0041569918
997.1934118652	0.0046038944
999.1222192383	0.0049370946
1001.0510266113	0.0051400214
1002.9798339844	0.0053849407
1004.9086413574	0.0059908358
1006.8374487305	0.0061146999
1008.7662561035	0.0062920852
1010.6950634766	0.0066709146
1012.6238708496	0.0067867832
1014.5526782227	0.0075806393
1016.4814855957	0.0077933129
1018.4102929688	0.0078797471
1020.3391003418	0.0085782213
1022.2679077148	0.0087578679
1024.1967150879	0.0091793248
1026.1255224609	0.0094445627
1028.0543298340	0.0096551217
1029.9831372070	0.0100443363
1031.9119445801	0.0101211406
1033.8407519531	0.0102839451
1035.7695593262	0.0106024444
1037.6983666992	0.0109186769
1039.6271740723	0.0104887635
1041.5559814453	0.0105331577
1043.4847888184	0.0108148931
1045.4135961914	0.0103360210
1047.3424035645	0.0101761706
1049.2712109375	0.0097892638
1051.2000183105	0.0097467527
1053.1288256836	0.0098207481
1055.0576330566	0.0095932391
1056.9864404297	0.0092800958
1058.9152478027	0.0086899297
1060.8440551758	0.0087806834
1062.7728625488	0.0085352026
1064.7016699219	0.0081425700
1066.6304772949	0.0078684986
1068.5592846680	0.0073670866
1070.4880920410	0.0072164941
1072.4168994141	0.0068813809
1074.3457067871	0.0067081023
1076.2745141602	0.0062621925
1078.2033215332	0.0059335269
1080.1321289062	0.0058855284
1082.0609362793	0.0053905016
1083.9897436523	0.0052158525
1085.9185510254	0.0049602529
1087.8473583984	0.0048313402
1089.7761657715	0.0046819411
1091.7049731445	0.0041685589
1093.6337805176	0.0040062200
1095.5625878906	0.0039717183
1097.4913952637	0.0039174072
1099.4202026367	0.0039018076
1101.3490100098	0.0039815437
1103.2778173828	0.0037069768
1105.2066247559	0.0035096353
1107.1354321289	0.0037084138
1109.0642395019	0.0034276214
1110.9930468750	0.0033429705
1112.9218542480	0.0034011975
1114.8506616211	0.0032527773
1116.7794689941	0.0035269973
1118.7082763672	0.0034460931
1120.6370837402	0.0032374416
1122.5658911133	0.0036208783
1124.4946984863	0.0035763616
1126.4235058594	0.0034038238
1128.3523132324	0.0035576653
1130.2811206055	0.0034996418
1132.2099279785	0.0037396327
1134.1387353516	0.0039307899
1136.0675427246	0.0038568159
1137.9963500977	0.0041039404
1139.9251574707	0.0043242993
1141.8539648437	0.0045639863
1143.7827722168	0.0049054818
1145.7115795898	0.0051643588
1147.6403869629	0.0051739733
1149.5691943359	0.0053510843
1151.4980017090	0.0058851861
1153.4268090820	0.0060399184
1155.3556164551	0.0062746201
1157.2844238281	0.0064612953
1159.2132312012	0.0065686544
1161.1420385742	0.0070762574
1163.0708459473	0.0073496476
1164.9996533203	0.0076079592
1166.9284606934	0.0076691099
1168.8572680664	0.0079632904
1170.7860754394	0.0083877575
1172.7148828125	0.0082359379
1174.6436901855	0.0088118892
1176.5724975586	0.0091646630
1178.5013049316	0.0092313290
1180.4301123047	0.0098711075
1182.3589196777	0.0101812072
1184.2877270508	0.0107048266
1186.2165344238	0.0110569792
1188.1453417969	0.0113663767
1190.0741491699	0.0119618839
1192.0029565430	0.0123449834
1193.9317639160	0.0130381892
1195.8605712891	0.0135606434
1197.7893786621	0.0140381902
1199.7181860351	0.0147402659
1201.6469934082	0.0153496880
1203.5758007812	0.0160490926
1205.5046081543	0.0165083036
1207.4334155273	0.0170442294
1209.3622229004	0.0176913664
1211.2910302734	0.0179896597
1213.2198376465	0.0185380466
1215.1486450195	0.0189863034
1217.0774523926	0.0191525612
1219.0062597656	0.0197191276
1220.9350671387	0.0199234001
1222.8638745117	0.0198722407
1224.7926818848	0.0200572200
1226.7214892578	0.0202088915
1228.6502966308	0.0203878488
1230.5791040039	0.0204670168
1232.5079113769	0.0206809845
1234.4367187500	0.0206399299
1236.3655261230	0.0204672664
1238.2943334961	0.0204756781
1240.2231408691	0.0203365050
1242.1519482422	0.0203792695
1244.0807556152	0.0203548111
1246.0095629883	0.0202296674
1247.9383703613	0.0199885815
1249.8671777344	0.0199027881
1251.7959851074	0.0199647099
1253.7247924805	0.0195392892
1255.6535998535	0.0192228984
1257.5824072266	0.0189791098
1259.5112145996	0.0186199229
1261.4400219726	0.0183604285
1263.3688293457	0.0179560892
1265.2976367187	0.0176653396
1267.2264440918	0.0177197903
1269.1552514648	0.0174105354
1271.0840588379	0.0169169474
1273.0128662109	0.0169019513
1274.9416735840	0.0167468321
1276.8704809570	0.0163653549
1278.7992883301	0.0158517733
1280.7280957031	0.0155971870
1282.6569030762	0.0154657997
1284.5857104492	0.0151149407
1286.5145178223	0.0150174741
1288.4433251953	0.0145975631
1290.3721325683	0.0142418807
1292.3009399414	0.0142475404
1294.2297473144	0.0142123867
1296.1585546875	0.0140505154
1298.0873620605	0.0140080629
1300.0161694336	0.0141421156
1301.9449768066	0.0139162093
1303.8737841797	0.0140835140
1305.8025915527	0.0142526664
1307.7313989258	0.0144276749
1309.6602062988	0.0148730278
1311.5890136719	0.0150114652
1313.5178210449	0.0152857015
1315.4466284180	0.0154831968
1317.3754357910	0.0159954261
1319.3042431640	0.0163174383
1321.2330505371	0.0165184457
1323.1618579101	0.0171547718
1325.0906652832	0.0176364686
1327.0194726562	0.0183595084
1328.9482800293	0.0186428130
1330.8770874023	0.0188316796
1332.8058947754	0.0194012523
1334.7347021484	0.0196997188
1336.6635095215	0.0197677873
1338.5923168945	0.0198247638
1340.5211242676	0.0202015955
1342.4499316406	0.0204731263
1344.3787390137	0.0208194777
1346.3075463867	0.0209874790
1348.2363537597	0.0206481535
1350.1651611328	0.0206576865
1352.0939685058	0.0206519067
1354.0227758789	0.0202503186
1355.9515832519	0.0200995766
1357.8803906250	0.0200704895
1359.8091979980	0.0196748786
1361.7380053711	0.0190331284
1363.6668127441	0.0189076103
1365.5956201172	0.0194016676
1367.5244274902	0.0191453882
1369.4532348633	0.0190243609
1371.3820422363	0.0190577954
1373.3108496094	0.0183436293
1375.2396569824	0.0184400938
1377.1684643555	0.0186065808
1379.0972717285	0.0186657496
1381.0260791015	0.0187459402
1382.9548864746	0.0185941383
1384.8836938476	0.0185325649
1386.8125012207	0.0178883187
1388.7413085937	0.0181887783
1390.6701159668	0.0193325710
1392.5989233398	0.0188871585
1394.5277307129	0.0179008991
1396.4565380859	0.0186958201
1398.3853454590	0.0186342523
1400.3141528320	0.0184511989
1402.2429602051	0.0197206810
1404.1717675781	0.0187587813
1406.1005749512	0.0188134015
1408.0293823242	0.0194136947
1409.9581896972	0.0188879184
1411.8869970703	0.0190675445
1413.8158044433	0.0183860362
1415.7446118164	0.0188211128
1417.6734191894	0.0172815323
1419.6022265625	0.0158311464
1421.5310339355	0.0177328102
1423.4598413086	0.0171633139
1425.3886486816	0.0164958164
1427.3174560547	0.0166635886
1429.2462634277	0.0157306343
1431.1750708008	0.0151783526
1433.1038781738	0.0152244661
1435.0326855469	0.0141019765
1436.9614929199	0.0124974027
1438.8903002929	0.0135592762
1440.8191076660	0.0137509052
1442.7479150390	0.0129717924
1444.6767224121	0.0131711680
1446.6055297851	0.0125632025
1448.5343371582	0.0127346702
1450.4631445312	0.0129151046
1452.3919519043	0.0131721310
1454.3207592773	0.0134942047
1456.2495666504	0.0119310170
1458.1783740234	0.0125890430
1460.1071813965	0.0154675888
1462.0359887695	0.0163158961
1463.9647961426	0.0165445153
1465.8936035156	0.0171100087
1467.8224108886	0.0192009695
1469.7512182617	0.0203043073
1471.6800256347	0.0184729397
1473.6088330078	0.0197581239
1475.5376403808	0.0219675824
1477.4664477539	0.0233375281
1479.3952551269	0.0251708627
1481.3240625000	0.0256553404
1483.2528698730	0.0271952078
1485.1816772461	0.0278364904
1487.1104846191	0.0279632397
1489.0392919922	0.0278285332
1490.9680993652	0.0279872790
1492.8969067383	0.0319167450
1494.8257141113	0.0309842005
1496.7545214843	0.0286812503
1498.6833288574	0.0319225714
1500.6121362304	0.0325312763
1502.5409436035	0.0343157463
1504.4697509765	0.0326637290
1506.3985583496	0.0258224290
1508.3273657226	0.0303820372
1510.2561730957	0.0342422053
1512.1849804687	0.0332370251
1514.1137878418	0.0352875963
1516.0425952148	0.0325953886
1517.9714025879	0.0337926224
1519.9002099609	0.0326154605
1521.8290173340	0.0295261294
1523.7578247070	0.0345877111
1525.6866320801	0.0338255391
1527.6154394531	0.0337667987
1529.5442468261	0.0362646729
1531.4730541992	0.0350651965
1533.4018615722	0.0329033583
1535.3306689453	0.0342528969
1537.2594763183	0.0358018428
1539.1882836914	0.0275091138
1541.1170910644	0.0286752097
1543.0458984375	0.0329534896
1544.9747058105	0.0318947360
1546.9035131836	0.0364202037
1548.8323205566	0.0343310125
1550.7611279297	0.0350802839
1552.6899353027	0.0347604305
1554.6187426758	0.0323349759
1556.5475500488	0.0339401513
1558.4763574218	0.0258059762
1560.4051647949	0.0275737755
1562.3339721679	0.0359889269
1564.2627795410	0.0343408808
1566.1915869140	0.0350902006
1568.1203942871	0.0345520489
1570.0492016601	0.0315929353
1571.9780090332	0.0351624861
1573.9068164062	0.0352640152
1575.8356237793	0.0293865539
1577.7644311523	0.0320958905
1579.6932385254	0.0353273228
1581.6220458984	0.0341665857
1583.5508532715	0.0347722769
1585.4796606445	0.0341065526
1587.4084680175	0.0344061181
1589.3372753906	0.0342232063
1591.2660827636	0.0338822268
1593.1948901367	0.0339424983
1595.1236975097	0.0337068960
1597.0525048828	0.0339349881
1598.9813122558	0.0337234065
1600.9101196289	0.0336801410
1602.8389270019	0.0331735611
1604.7677343750	0.0337818637
1606.6965417480	0.0332413167
1608.6253491211	0.0333395712
1610.5541564941	0.0331259482
1612.4829638672	0.0331681371
1614.4117712402	0.0337850899
1616.3405786132	0.0287305117
1618.2693859863	0.0308383442
1620.1981933593	0.0346954390
1622.1270007324	0.0317291766
1624.0558081054	0.0323672071
1625.9846154785	0.0336091593
1627.9134228515	0.0337180123
1629.8422302246	0.0337484330
1631.7710375976	0.0357922614
1633.6998449707	0.0335640647
1635.6286523437	0.0293379351
1637.5574597168	0.0336751789
1639.4862670898	0.0365425572
1641.4150744629	0.0362241566
1643.3438818359	0.0372705162
1645.2726892090	0.0346017517
1647.2014965820	0.0317843631
1649.1303039550	0.0383401252
1651.0591113281	0.0364694446
1652.9879187011	0.0262141973
1654.9167260742	0.0340691395
1656.8455334472	0.0408360586
1658.7743408203	0.0396995470
1660.7031481933	0.0409542844
1662.6319555664	0.0383672118
1664.5607629394	0.0402947813
1666.4895703125	0.0427107513
1668.4183776855	0.0391180739
1670.3471850586	0.0386273488
1672.2759924316	0.0426308364
1674.2047998047	0.0404890105
1676.1336071777	0.0394984037
1678.0624145507	0.0442008600
1679.9912219238	0.0432046168
1681.9200292968	0.0429991037
1683.8488366699	0.0366926119
1685.7776440429	0.0368842371
1687.7064514160	0.0474038720
1689.6352587890	0.0424245298
1691.5640661621	0.0459602475
1693.4928735351	0.0465675704
1695.4216809082	0.0364763625
1697.3504882812	0.0433460698
1699.2792956543	0.0393201038
1701.2081030273	0.0364398770
1703.1369104004	0.0463595688
1705.0657177734	0.0431622863
1706.9945251464	0.0436494276
1708.9233325195	0.0465110764
1710.8521398925	0.0449730828
1712.7809472656	0.0458258614
1714.7097546386	0.0431484506
1716.6385620117	0.0395276509
1718.5673693847	0.0389262885
1720.4961767578	0.0445317738
1722.4249841308	0.0457587317
1724.3537915039	0.0431915969
1726.2825988769	0.0459277853
1728.2114062500	0.0429641977
1730.1402136230	0.0434086770
1732.0690209961	0.0418989062
1733.9978283691	0.0341259055
1735.9266357421	0.0405042320
1737.8554431152	0.0435415134
1739.7842504882	0.0397858247
1741.7130578613	0.0424420908
1743.6418652343	0.0429446101
1745.5706726074	0.0427506417
1747.4994799804	0.0430379175
1749.4282873535	0.0416113958
1751.3570947265	0.0401436351
1753.2859020996	0.0435571000
1755.2147094726	0.0447595194
1757.1435168457	0.0417833179
1759.0723242187	0.0448776707
1761.0011315918	0.0424461216
1762.9299389648	0.0415200144
1764.8587463379	0.0457167365
1766.7875537109	0.0420533940
1768.7163610839	0.0425387956
1770.6451684570	0.0419994853
1772.5739758300	0.0387254395
1774.5027832031	0.0421222970
1776.4315905761	0.0438623056
1778.3603979492	0.0432532206
1780.2892053222	0.0426507480
1782.2180126953	0.0429057255
1784.1468200683	0.0427586921
1786.0756274414	0.0420872346
1788.0044348144	0.0436591506
1789.9332421875	0.0425813347
1791.8620495605	0.0394138917
1793.7908569336	0.0406192914
1795.7196643066	0.0428018458
1797.6484716796	0.0422088988
1799.5772790527	0.0417233482
1801.5060864257	0.0411799327
1803.4348937988	0.0419220179
1805.3637011718	0.0425669737
1807.2925085449	0.0420432724
1809.2213159179	0.0420839638
1811.1501232910	0.0411948338
1813.0789306640	0.0420198105
1815.0077380371	0.0421383791
1816.9365454101	0.0417854004
1818.8653527832	0.0419813208
1820.7941601562	0.0417451411
1822.7229675293	0.0420885794
1824.6517749023	0.0398098603
1826.5805822753	0.0408474430
1828.5093896484	0.0408940837
1830.4381970214	0.0388738513
1832.3670043945	0.0412910320
1834.2958117675	0.0409821272
1836.2246191406	0.0408924185
1838.1534265136	0.0406824574
1840.0822338867	0.0407730639
1842.0110412597	0.0406886339
1843.9398486328	0.0371907875
1845.8686560058	0.0389101729
1847.7974633789	0.0405568779
1849.7262707519	0.0399878919
1851.6550781250	0.0405384153
1853.5838854980	0.0398613214
1855.5126928710	0.0401254147
1857.4415002441	0.0397654325
1859.3703076171	0.0396263190
1861.2991149902	0.0397483632
1863.2279223632	0.0393562578
1865.1567297363	0.0395827666
1867.0855371093	0.0384012386
1869.0143444824	0.0371460617
1870.9431518554	0.0381961837
1872.8719592285	0.0391965210
1874.8007666015	0.0386700258
1876.7295739746	0.0387946293
1878.6583813476	0.0385710783
1880.5871887207	0.0382948741
1882.5159960937	0.0385373160
1884.4448034667	0.0379752293
1886.3736108398	0.0382274948
1888.3024182128	0.0376114994
1890.2312255859	0.0370666310
1892.1600329589	0.0380872637
1894.0888403320	0.0376039222
1896.0176477050	0.0372430943
1897.9464550781	0.0376715660
1899.8752624511	0.0375732630
1901.8040698242	0.0373314172
1903.7328771972	0.0371084288
1905.6616845703	0.0371942446
1907.5904919433	0.0367019027
1909.5192993164	0.0365583301
1911.4481066894	0.0366633609
1913.3769140625	0.0365742221
1915.3057214355	0.0368005186
1917.2345288085	0.0354917087
1919.1633361816	0.0356543884
1921.0921435546	0.0365161970
1923.0209509277	0.0354518741
1924.9497583007	0.0360763520
1926.8785656738	0.0362813398
1928.8073730468	0.0358284861
1930.7361804199	0.0359850973
1932.6649877929	0.0355881155
1934.5937951660	0.0357618816
1936.5226025390	0.0355943702
1938.4514099121	0.0357801728
1940.3802172851	0.0357979760
1942.3090246582	0.0349056646
1944.2378320312	0.0350720584
1946.1666394042	0.0354717448
1948.0954467773	0.0353862755
1950.0242541503	0.0352856070
1951.9530615234	0.0351413041
1953.8818688964	0.0349795371
1955.8106762695	0.0349760540
1957.7394836425	0.0349159166
1959.6682910156	0.0348470882
1961.5970983886	0.0348710269
1963.5259057617	0.0349169374
1965.4547131347	0.0346877426
1967.3835205078	0.0342414975
1969.3123278808	0.0345136896
1971.2411352539	0.0345414802
1973.1699426269	0.0343447253
1975.0987499999	0.0344556198
1977.0275573730	0.0343295299
1978.9563647460	0.0343701988
1980.8851721191	0.0341428891
1982.8139794921	0.0339106917
1984.7427868652	0.0338800326
1986.6715942382	0.0337894782
1988.6004016113	0.0337536633
1990.5292089843	0.0333770216
1992.4580163574	0.0331841968
1994.3868237304	0.0335478447
1996.3156311035	0.0335406512
1998.2444384765	0.0332455337
2000.1732458496	0.0333226547
2002.1020532226	0.0331065245
2004.0308605956	0.0329970047
2005.9596679687	0.0330214910
2007.8884753417	0.0328277573
2009.8172827148	0.0328148045
2011.7460900878	0.0326532498
2013.6748974609	0.0327080078
2015.6037048339	0.0324219652
2017.5325122070	0.0321289524
2019.4613195800	0.0322943367
2021.3901269531	0.0322032571
2023.3189343261	0.0323106125
2025.2477416992	0.0321025476
2027.1765490722	0.0318521783
2029.1053564453	0.0319267735
2031.0341638183	0.0318369679
2032.9629711914	0.0317495391
2034.8917785644	0.0316719860
2036.8205859374	0.0315409116
2038.7493933105	0.0312709771
2040.6782006835	0.0312117934
2042.6070080566	0.0312364176
2044.5358154296	0.0311880633
2046.4646228027	0.0310938582
2048.3934301757	0.0309302323
2050.3222375488	0.0309311487
2052.2510449218	0.0308742449
2054.1798522949	0.0306680594
2056.1086596679	0.0306091998
2058.0374670410	0.0306642093
2059.9662744140	0.0304522291
2061.8950817871	0.0303866304
2063.8238891601	0.0303244591
2065.7526965331	0.0302362703
2067.6815039062	0.0302957762
2069.6103112792	0.0300247241
2071.5391186523	0.0301004462
2073.4679260253	0.0300400741
2075.3967333984	0.0297909491
2077.3255407714	0.0299027339
2079.2543481445	0.0297883637
2081.1831555175	0.0297509972
2083.1119628906	0.0297804438
2085.0407702636	0.0297158286
2086.9695776367	0.0295162816
2088.8983850097	0.0295004100
2090.8271923828	0.0295351278
2092.7559997558	0.0292989127
2094.6848071288	0.0293276086
2096.6136145019	0.0293394625
2098.5424218749	0.0292324349
2100.4712292480	0.0291563161
2102.4000366210	0.0291345343
2104.3288439941	0.0289462544
2106.2576513671	0.0288788415
2108.1864587402	0.0290014036
2110.1152661132	0.0287596621
2112.0440734863	0.0288505014
2113.9728808593	0.0287974477
2115.9016882324	0.0286484621
2117.8304956054	0.0287884921
2119.7593029785	0.0285471547
2121.6881103515	0.0285862163
2123.6169177245	0.0285898559
2125.5457250976	0.0283957049
2127.4745324706	0.0284328740
2129.4033398437	0.0284335911
2131.3321472167	0.0283703096
2133.2609545898	0.0282734483
2135.1897619628	0.0283206142
2137.1185693359	0.0281869769
2139.0473767089	0.0281279851
2140.9761840820	0.0282125678
2142.9049914550	0.0280307420
2144.8337988281	0.0279519223
2146.7626062011	0.0279365424
2148.6914135742	0.0280096289
2150.6202209472	0.0279528871
2152.5490283203	0.0278097205
2154.4778356933	0.0278529190
2156.4066430663	0.0277292319
2158.3354504394	0.0276853349
2160.2642578124	0.0276870020
2162.1930651855	0.0276495013
2164.1218725585	0.0277109519
2166.0506799316	0.0276735313
2167.9794873046	0.0276190862
2169.9082946777	0.0275400802
2171.8371020507	0.0274084881
2173.7659094238	0.0274229124
2175.6947167968	0.0274830647
2177.6235241699	0.0272843391
2179.5523315429	0.0272091962
2181.4811389160	0.0273342058
2183.4099462890	0.0272663496
2185.3387536620	0.0271653272
2187.2675610351	0.0271733291
2189.1963684081	0.0271780342
2191.1251757812	0.0270127393
2193.0539831542	0.0270978473
2194.9827905273	0.0271444842
2196.9115979003	0.0269791447
2198.8404052734	0.0270132050
2200.7692126464	0.0267974716
2202.6980200195	0.0269164499
2204.6268273925	0.0270239934
2206.5556347656	0.0267459191
2208.4844421386	0.0267755650
2210.4132495117	0.0266256873
2212.3420568847	0.0266231969
2214.2708642577	0.0266870186
2216.1996716308	0.0265343226
2218.1284790038	0.0264962856
2220.0572863769	0.0264423899
2221.9860937499	0.0264838338
2223.9149011230	0.0264375918
2225.8437084960	0.0262261387
2227.7725158691	0.0261237137
2229.7013232421	0.0262386911
2231.6301306152	0.0262345765
2233.5589379882	0.0261791069
2235.4877453613	0.0262361430
2237.4165527343	0.0260886699
2239.3453601074	0.0259455256
2241.2741674804	0.0259993300
2243.2029748534	0.0260112137
2245.1317822265	0.0257953163
2247.0605895995	0.0258142594
2248.9893969726	0.0257892460
2250.9182043456	0.0255462267
2252.8470117187	0.0255851671
2254.7758190917	0.0255341083
2256.7046264648	0.0255437493
2258.6334338378	0.0254687108
2260.5622412109	0.0253897384
2262.4910485839	0.0254916698
2264.4198559570	0.0253970195
2266.3486633300	0.0253634416
2268.2774707031	0.0252509490
2270.2062780761	0.0252222531
2272.1350854491	0.0252212770
2274.0638928222	0.0251334161
2275.9927001952	0.0251482204
2277.9215075683	0.0250896905
2279.8503149413	0.0250626765
2281.7791223144	0.0249512568
2283.7079296874	0.0248674881
2285.6367370605	0.0248678662
2287.5655444335	0.0248309188
2289.4943518066	0.0247896612
2291.4231591796	0.0248069726
2293.3519665527	0.0246930905
2295.2807739257	0.0244523678
2297.2095812988	0.0244094543
2299.1383886718	0.0242690686
2301.0671960449	0.0243168063
2302.9960034179	0.0241584666
2304.9248107909	0.0237900745
2306.8536181640	0.0239527300
2308.7824255370	0.0237349011
2310.7112329101	0.0234313924
2312.6400402831	0.0232624151
2314.5688476562	0.0229076520
2316.4976550292	0.0226813816
2318.4264624023	0.0222835168
2320.3552697753	0.0220499821
2322.2840771484	0.0217791162
2324.2128845214	0.0213693716
2326.1416918945	0.0212754440
2328.0704992675	0.0210718270
2329.9993066406	0.0207373388
2331.9281140136	0.0204895660
2333.8569213866	0.0204369240
2335.7857287597	0.0203387123
2337.7145361327	0.0202268437
2339.6433435058	0.0203480087
2341.5721508788	0.0203499720
2343.5009582519	0.0205677822
2345.4297656249	0.0210205130
2347.3585729980	0.0218434259
2349.2873803710	0.0225482732
2351.2161877441	0.0217062011
2353.1449951171	0.0205600299
2355.0738024902	0.0197705068
2357.0026098632	0.0190393180
2358.9314172363	0.0188988522
2360.8602246093	0.0186921470
2362.7890319823	0.0185566656
2364.7178393554	0.0187106188
2366.6466467284	0.0189311989
2368.5754541015	0.0193257257
2370.5042614745	0.0196447559
2372.4330688476	0.0201695729
2374.3618762206	0.0208423249
2376.2906835937	0.0213344805
2378.2194909667	0.0218529776
2380.1482983398	0.0222249907
2382.0771057128	0.0223533884
2384.0059130859	0.0225729160
2385.9347204589	0.0226751454
2387.8635278320	0.0226132050
2389.7923352050	0.0225192793
2391.7211425780	0.0224756263
2393.6499499511	0.0224928800
2395.5787573241	0.0222931728
2397.5075646972	0.0224098265
2399.4363720702	0.0224605892
2401.3651794433	0.0222424176
2403.2939868163	0.0222650785
2405.2227941894	0.0221078992
2407.1516015624	0.0220854543
2409.0804089355	0.0220632814
2411.0092163085	0.0220430978
2412.9380236816	0.0221507400
2414.8668310546	0.0220754221
2416.7956384277	0.0219837446
2418.7244458007	0.0218823291
2420.6532531738	0.0219999626
2422.5820605468	0.0219158586
2424.5108679198	0.0217275321
2426.4396752929	0.0216928460
2428.3684826659	0.0216425359
2430.2972900390	0.0217481926
2432.2260974120	0.0216869786
2434.1549047851	0.0216260031
2436.0837121581	0.0215560757
2438.0125195312	0.0214881450
2439.9413269042	0.0214098915
2441.8701342773	0.0213041343
2443.7989416503	0.0213834886
2445.7277490234	0.0213541351
2447.6565563964	0.0213323012
2449.5853637695	0.0211950745
2451.5141711425	0.0211420581
2453.4429785155	0.0212198272
2455.3717858886	0.0211380124
2457.3005932616	0.0211252235
2459.2294006347	0.0210140646
2461.1582080077	0.0209980533
2463.0870153808	0.0210940838
2465.0158227538	0.0209715962
2466.9446301269	0.0208003763
2468.8734374999	0.0207648259
2470.8022448730	0.0207138769
2472.7310522460	0.0206989348
2474.6598596191	0.0207126066
2476.5886669921	0.0206165668
2478.5174743652	0.0206365883
2480.4462817382	0.0205879584
2482.3750891112	0.0205095895
2484.3038964843	0.0204977393
2486.2327038573	0.0204492472
2488.1615112304	0.0203708336
2490.0903186034	0.0203281306
2492.0191259765	0.0203971453
2493.9479333495	0.0203312896
2495.8767407226	0.0202648584
2497.8055480956	0.0200941209
2499.7343554687	0.0200276822
2501.6631628417	0.0201560501
2503.5919702148	0.0200793352
2505.5207775878	0.0200507119
2507.4495849609	0.0200343318
2509.3783923339	0.0199918151
2511.3071997069	0.0198269915
2513.2360070800	0.0197907574
2515.1648144530	0.0198415741
2517.0936218261	0.0197666585
2519.0224291991	0.0198107194
2520.9512365722	0.0195961203
2522.8800439452	0.0196401440
2524.8088513183	0.0198400430
2526.7376586913	0.0196462236
2528.6664660644	0.0196363702
2530.5952734374	0.0195950083
2532.5240808105	0.0194092989
2534.4528881835	0.0194123387
2536.3816955566	0.0193514023
2538.3105029296	0.0192865469
2540.2393103027	0.0194358006
2542.1681176757	0.0192932356
2544.0969250487	0.0191816427
2546.0257324218	0.0192650259
2547.9545397948	0.0189964958
2549.8833471679	0.0189649686
2551.8121545409	0.0191405471
2553.7409619140	0.0190328918
2555.6697692870	0.0189213417
2557.5985766601	0.0189280808
2559.5273840331	0.0188735742
2561.4561914062	0.0188755859
2563.3849987792	0.0189115200
2565.3138061523	0.0187946968
2567.2426135253	0.0187438093
2569.1714208984	0.0187177844
2571.1002282714	0.0187063888
2573.0290356444	0.0186385997
2574.9578430175	0.0186119899
2576.8866503905	0.0186518598
2578.8154577636	0.0185720064
2580.7442651366	0.0185596775
2582.6730725097	0.0184577499
2584.6018798827	0.0184259862
2586.5306872558	0.0184416063
2588.4594946288	0.0182466432
2590.3883020019	0.0180685688
2592.3171093749	0.0181219038
2594.2459167480	0.0182117671
2596.1747241210	0.0181607995
2598.1035314941	0.0181838889
2600.0323388671	0.0180747025
2601.9611462401	0.0180606134
2603.8899536132	0.0180401281
2605.8187609862	0.0179002397
2607.7475683593	0.0179378353
2609.6763757323	0.0179038681
2611.6051831054	0.0179479644
2613.5339904784	0.0178301763
2615.4627978515	0.0177869890
2617.3916052245	0.0177661479
2619.3204125976	0.0175729189
2621.2492199706	0.0176755283
2623.1780273437	0.0175871979
2625.1068347167	0.0175230578
2627.0356420898	0.0176014379
2628.9644494628	0.0175841749
2630.8932568358	0.0175084434
2632.8220642089	0.0173894912
2634.7508715819	0.0173877515
2636.6796789550	0.0173745807
2638.6084863280	0.0174330361
2640.5372937011	0.0173471570
2642.4661010741	0.0172703490
2644.3949084472	0.0172202308
2646.3237158202	0.0171191543
2648.2525231933	0.0171632394
2650.1813305663	0.0170792490
2652.1101379394	0.0171837956
2654.0389453124	0.0171526745
2655.9677526855	0.0169421621
2657.8965600585	0.0170217883
2659.8253674315	0.0169592965
2661.7541748046	0.0169145986
2663.6829821776	0.0169219039
2665.6117895507	0.0168836433
2667.5405969237	0.0169408210
2669.4694042968	0.0167386029
2671.3982116698	0.0166112743
2673.3270190429	0.0167379268
2675.2558264159	0.0166028775
2677.1846337890	0.0165854134
2679.1134411620	0.0166002773
2681.0422485351	0.0165115669
2682.9710559081	0.0165680051
2684.8998632812	0.0164413452
2686.8286706542	0.0164801721
2688.7574780273	0.0164827425
2690.6862854003	0.0163382180
2692.6150927733	0.0163412318
2694.5439001464	0.0161959939
2696.4727075194	0.0162214078
2698.4015148925	0.0162563659
2700.3303222655	0.0161833726
2702.2591296386	0.0161644779
2704.1879370116	0.0160748623
2706.1167443847	0.0160868242
2708.0455517577	0.0160519872
2709.9743591308	0.0159338452
2711.9031665038	0.0158375483
2713.8319738769	0.0158316717
2715.7607812499	0.0159673709
2717.6895886230	0.0159427784
2719.6183959960	0.0158567112
2721.5472033690	0.0158856399
2723.4760107421	0.0157270432
2725.4048181151	0.0156450402
2727.3336254882	0.0156691261
2729.2624328612	0.0155162401
2731.1912402343	0.0155112837
2733.1200476073	0.0155180171
2735.0488549804	0.0154962763
2736.9776623534	0.0155064743
2738.9064697265	0.0154934768
2740.8352770995	0.0155014656
2742.7640844726	0.0153305857
2744.6928918456	0.0152598387
2746.6216992187	0.0154053858
2748.5505065917	0.0154055543
2750.4793139647	0.0151856411
2752.4081213378	0.0151614975
2754.3369287108	0.0152788898
2756.2657360839	0.0152160190
2758.1945434569	0.0151556265
2760.1233508300	0.0151051674
2762.0521582030	0.0150612276
2763.9809655761	0.0149335004
2765.9097729491	0.0149634983
2767.8385803222	0.0149904592
2769.7673876952	0.0148073044
2771.6961950683	0.0148717351
2773.6250024413	0.0147894640
2775.5538098144	0.0146695180
2777.4826171874	0.0147573575
2779.4114245604	0.0147311427
2781.3402319335	0.0145952497
2783.2690393065	0.0145336455
2785.1978466796	0.0145860799
2787.1266540526	0.0144798951
2789.0554614257	0.0144640896
2790.9842687987	0.0144286249
2792.9130761718	0.0143585950
2794.8418835448	0.0144169908
2796.7706909179	0.0142752565
2798.6994982909	0.0142875761
2800.6283056640	0.0143326716
2802.5571130370	0.0141508244
2804.4859204101	0.0141101405
2806.4147277831	0.0141705461
2808.3435351562	0.0141384117
2810.2723425292	0.0140295830
2812.2011499022	0.0139811141
2814.1299572753	0.0140076084
2816.0587646483	0.0139695890
2817.9875720214	0.0139065180
2819.9163793944	0.0138190631
2821.8451867675	0.0137036592
2823.7739941405	0.0137559939
2825.7028015136	0.0137208737
2827.6316088866	0.0136472341
2829.5604162597	0.0136715900
2831.4892236327	0.0136313699
2833.4180310058	0.0136138247
2835.3468383788	0.0134812836
2837.2756457519	0.0135314986
2839.2044531249	0.0134713156
2841.1332604979	0.0132570826
2843.0620678710	0.0133856842
2844.9908752440	0.0132305482
2846.9196826171	0.0130920783
2848.8484899901	0.0130624324
2850.7772973632	0.0129099730
2852.7061047362	0.0129970452
2854.6349121093	0.0129520362
2856.5637194823	0.0128946993
2858.4925268554	0.0128994826
2860.4213342284	0.0127669740
2862.3501416015	0.0128464606
2864.2789489745	0.0129408408
2866.2077563476	0.0127554201
2868.1365637206	0.0126553914
2870.0653710936	0.0126218069
2871.9941784667	0.0126240002
2873.9229858397	0.0127446335
2875.8517932128	0.0126392525
2877.7806005858	0.0125274751
2879.7094079589	0.0125075001
2881.6382153319	0.0125084762
2883.5670227050	0.0124992086
2885.4958300780	0.0123645682
2887.4246374511	0.0124080684
2889.3534448241	0.0124278758
2891.2822521972	0.0123968385
2893.2110595702	0.0123537350
2895.1398669433	0.0122276694
2897.0686743163	0.0122817364
2898.9974816893	0.0122291427
2900.9262890624	0.0121130515
2902.8550964354	0.0121111264
2904.7839038085	0.0121265352
2906.7127111815	0.0120899277
2908.6415185546	0.0118818898
2910.5703259276	0.0118242688
2912.4991333007	0.0118781589
2914.4279406737	0.0117478967
2916.3567480468	0.0115994401
2918.2855554198	0.0115761226
2920.2143627929	0.0116160549
2922.1431701659	0.0115599725
2924.0719775390	0.0114592724
2926.0007849120	0.0114857750
2927.9295922851	0.0114941280
2929.8583996581	0.0114102755
2931.7872070311	0.0114768036
2933.7160144042	0.0115553671
2935.6448217772	0.0115107559
2937.5736291503	0.0114425300
2939.5024365233	0.0113247279
2941.4312438964	0.0114047052
2943.3600512694	0.0114867166
2945.2888586425	0.0113517251
2947.2176660155	0.0113142226
2949.1464733886	0.0113042574
2951.0752807616	0.0112400185
2953.0040881347	0.0112022813
2954.9328955077	0.0112199765
2956.8617028808	0.0111382259
2958.7905102538	0.0110342773
2960.7193176268	0.0110247573
2962.6481249999	0.0109579321
2964.5769323729	0.0109626465
2966.5057397460	0.0108840056
2968.4345471190	0.0108564533
2970.3633544921	0.0109472349
2972.2921618651	0.0109255556
2974.2209692382	0.0109375697
2976.1497766112	0.0108566955
2978.0785839843	0.0107793957
2980.0073913573	0.0107283890
2981.9361987304	0.0107729398
2983.8650061034	0.0108560733
2985.7938134765	0.0108410139
2987.7226208495	0.0108823059
2989.6514282225	0.0106975045
2991.5802355956	0.0105931852
2993.5090429686	0.0106441779
2995.4378503417	0.0106273089
2997.3666577147	0.0105948029
2999.2954650878	0.0105182501
3001.2242724608	0.0105626304
3003.1530798339	0.0105085159
3005.0818872069	0.0104542747
3007.0106945800	0.0104935998
3008.9395019530	0.0104953283
3010.8683093261	0.0103084352
3012.7971166991	0.0102027431
3014.7259240722	0.0103488220
3016.6547314452	0.0102530438
3018.5835388182	0.0103044352
3020.5123461913	0.0102748871
3022.4411535643	0.0101739746
3024.3699609374	0.0102223512
3026.2987683104	0.0100488476
3028.2275756835	0.0101095075
3030.1563830565	0.0100654224
3032.0851904296	0.0099899322
3034.0139978026	0.0100137703
3035.9428051757	0.0098912166
3037.8716125487	0.0098950062
3039.8004199218	0.0098603889
3041.7292272948	0.0098716337
3043.6580346679	0.0097845905
3045.5868420409	0.0097600473
3047.5156494139	0.0097571537
3049.4444567870	0.0095923208
3051.3732641600	0.0096256565
3053.3020715331	0.0095721520
3055.2308789061	0.0095870066
3057.1596862792	0.0096545042
3059.0884936522	0.0095955702
3061.0173010253	0.0096312594
3062.9461083983	0.0094597731
3064.8749157714	0.0092887068
3066.8037231444	0.0094079757
3068.7325305175	0.0094153676
3070.6613378905	0.0093478113
3072.5901452636	0.0093071973
3074.5189526366	0.0092344256
3076.4477600097	0.0093173329
3078.3765673827	0.0092467554
3080.3053747557	0.0091588628
3082.2341821288	0.0092611052
3084.1629895018	0.0091505107
3086.0917968749	0.0090574557
3088.0206042479	0.0090418477
3089.9494116210	0.0090144454
3091.8782189940	0.0090472903
3093.8070263671	0.0090136444
3095.7358337401	0.0090044420
3097.6646411132	0.0090927016
3099.5934484862	0.0090097990
3101.5222558593	0.0087674186
3103.4510632323	0.0087461313
3105.3798706054	0.0087716728
3107.3086779784	0.0087419646
3109.2374853514	0.0087634493
3111.1662927245	0.0087368526
3113.0951000975	0.0087306891
3115.0239074706	0.0087208319
3116.9527148436	0.0086559961
3118.8815222167	0.0086482745
3120.8103295897	0.0086755678
3122.7391369628	0.0086091459
3124.6679443358	0.0085688457
3126.5967517089	0.0085055418
3128.5255590819	0.0084378049
3130.4543664550	0.0084313955
3132.3831738280	0.0084010344
3134.3119812011	0.0084552746
3136.2407885741	0.0084086712
3138.1695959471	0.0083493246
3140.0984033202	0.0083769383
3142.0272106932	0.0083634499
3143.9560180663	0.0083464310
3145.8848254393	0.0083017051
3147.8136328124	0.0082470588
3149.7424401854	0.0081478823
3151.6712475585	0.0081174439
3153.6000549315	0.0081341304
3155.5288623046	0.0081903543
3157.4576696776	0.0081934426
3159.3864770507	0.0081886798
3161.3152844237	0.0081584454
3163.2440917968	0.0080130193
3165.1728991698	0.0080997869
3167.1017065428	0.0080193765
3169.0305139159	0.0079911593
3170.9593212889	0.0080554876
3172.8881286620	0.0079009794
3174.8169360350	0.0078858882
3176.7457434081	0.0078451000
3178.6745507811	0.0080467258
3180.6033581542	0.0080058388
3182.5321655272	0.0078608887
3184.4609729003	0.0079159662
3186.3897802733	0.0077495622
3188.3185876464	0.0079536978
3190.2473950194	0.0079283305
3192.1762023925	0.0077879950
3194.1050097655	0.0078346282
3196.0338171386	0.0077903108
3197.9626245116	0.0078820735
3199.8914318846	0.0077328403
3201.8202392577	0.0077625751
3203.7490466307	0.0077870321
3205.6778540038	0.0077122021
3207.6066613768	0.0078323968
3209.5354687499	0.0077746147
3211.4642761229	0.0077832402
3213.3930834960	0.0077864546
3215.3218908690	0.0078078499
3217.2506982421	0.0078208856
3219.1795056151	0.0077446811
3221.1083129882	0.0077773239
3223.0371203612	0.0077759940
3224.9659277343	0.0078045269
3226.8947351073	0.0077726506
3228.8235424803	0.0076549212
3230.7523498534	0.0076997764
3232.6811572264	0.0077680796
3234.6099645995	0.0077349031
3236.5387719725	0.0077657998
3238.4675793456	0.0077982210
3240.3963867186	0.0078027970
3242.3251940917	0.0078205559
3244.2540014647	0.0078330347
3246.1828088378	0.0079079941
3248.1116162108	0.0078847818
3250.0404235839	0.0078952517
3251.9692309569	0.0079867598
3253.8980383300	0.0079356115
3255.8268457030	0.0079182349
3257.7556530760	0.0079902457
3259.6844604491	0.0079509709
3261.6132678221	0.0079069305
3263.5420751952	0.0079977494
3265.4708825682	0.0079756919
3267.3996899413	0.0080017550
3269.3284973143	0.0080368435
3271.2573046874	0.0079318378
3273.1861120604	0.0080730300
3275.1149194335	0.0081382664
3277.0437268065	0.0080534033
3278.9725341796	0.0080927955
3280.9013415526	0.0080551887
3282.8301489257	0.0080399960
3284.7589562987	0.0080921501
3286.6877636717	0.0081135053
3288.6165710448	0.0081283692
3290.5453784178	0.0080275908
3292.4741857909	0.0079820883
3294.4029931639	0.0081595983
3296.3318005370	0.0081577459
3298.2606079100	0.0081033017
3300.1894152831	0.0081824344
3302.1182226561	0.0081490427
3304.0470300292	0.0081728045
3305.9758374022	0.0081672054
3307.9046447753	0.0081370380
3309.8334521483	0.0082283113
3311.7622595214	0.0082598850
3313.6910668944	0.0081992894
3315.6198742675	0.0082292501
3317.5486816405	0.0083273947
3319.4774890135	0.0082351696
3321.4062963866	0.0082912035
3323.3351037596	0.0083773024
3325.2639111327	0.0083129928
3327.1927185057	0.0084334984
3329.1215258788	0.0083218552
3331.0503332518	0.0082588010
3332.9791406249	0.0084424727
3334.9079479979	0.0083956597
3336.8367553710	0.0083146803
3338.7655627440	0.0082804272
3340.6943701171	0.0083522219
3342.6231774901	0.0084642675
3344.5519848632	0.0084731178
3346.4807922362	0.0084460415
3348.4095996092	0.0084488653
3350.3384069823	0.0085147843
3352.2672143553	0.0085203769
3354.1960217284	0.0085334145
3356.1248291014	0.0085645337
3358.0536364745	0.0085802916
3359.9824438475	0.0085674450
3361.9112512206	0.0086257234
3363.8400585936	0.0086836191
3365.7688659667	0.0086571649
3367.6976733397	0.0087652747
3369.6264807128	0.0086289141
3371.5552880858	0.0086043887
3373.4840954589	0.0088607762
3375.4129028319	0.0088334382
3377.3417102049	0.0088262334
3379.2705175780	0.0087639205
3381.1993249510	0.0087801572
3383.1281323241	0.0088873701
3385.0569396971	0.0089330319
3386.9857470702	0.0090609919
3388.9145544432	0.0090350118
3390.8433618163	0.0090146624
3392.7721691893	0.0089663081
3394.7009765624	0.0090572601
3396.6297839354	0.0090954416
3398.5585913085	0.0090002473
3400.4873986815	0.0091906358
3402.4162060546	0.0091621745
3404.3450134276	0.0092469230
3406.2738208006	0.0093857571
3408.2026281737	0.0093071405
3410.1314355467	0.0094367713
3412.0602429198	0.0093975570
3413.9890502928	0.0093980823
3415.9178576659	0.0094843563
3417.8466650389	0.0095227789
3419.7754724120	0.0096160704
3421.7042797850	0.0095122773
3423.6330871581	0.0095591294
3425.5618945311	0.0096571222
3427.4907019042	0.0096440073
3429.4195092772	0.0097568361
3431.3483166503	0.0097746607
3433.2771240233	0.0098070763
3435.2059313963	0.0097976029
3437.1347387694	0.0098007619
3439.0635461424	0.0099383686
3440.9923535155	0.0099166632
3442.9211608885	0.0100156479
3444.8499682616	0.0099934638
3446.7787756346	0.0099751819
3448.7075830077	0.0101963114
3450.6363903807	0.0100972224
3452.5651977538	0.0101539483
3454.4940051268	0.0102321189
3456.4228124999	0.0102260429
3458.3516198729	0.0103296470
3460.2804272460	0.0102374516
3462.2092346190	0.0103178816
3464.1380419921	0.0103129344
3466.0668493651	0.0103073362
3467.9956567381	0.0104851993
3469.9244641112	0.0104944510
3471.8532714842	0.0105196899
3473.7820788573	0.0105976388
3475.7108862303	0.0106509551
3477.6396936034	0.0106244665
3479.5685009764	0.0107054468
3481.4973083495	0.0107562952
3483.4261157225	0.0107388869
3485.3549230956	0.0108599775
3487.2837304686	0.0108456789
3489.2125378417	0.0108743366
3491.1413452147	0.0110464282
3493.0701525878	0.0110681336
3494.9989599608	0.0109642688
3496.9277673338	0.0110111441
3498.8565747069	0.0111406110
3500.7853820799	0.0111641847
3502.7141894530	0.0110491533
3504.6429968260	0.0110239061
3506.5718041991	0.0112707093
3508.5006115721	0.0112522878
3510.4294189452	0.0112122176
3512.3582263182	0.0114197293
3514.2870336913	0.0114657059
3516.2158410643	0.0114491992
3518.1446484374	0.0114703756
3520.0734558104	0.0115790553
3522.0022631835	0.0115409354
3523.9310705565	0.0114455866
3525.8598779295	0.0115434527
3527.7886853026	0.0115738669
3529.7174926756	0.0116388947
3531.6463000487	0.0117431590
3533.5751074217	0.0117777139
3535.5039147948	0.0118402774
3537.4327221678	0.0118388068
3539.3615295409	0.0118847014
3541.2903369139	0.0119814230
3543.2191442870	0.0119464817
3545.1479516600	0.0118444711
3547.0767590331	0.0117615927
3549.0055664061	0.0120716505
3550.9343737792	0.0122076720
3552.8631811522	0.0119582601
3554.7919885252	0.0122097041
3556.7207958983	0.0122703779
3558.6496032713	0.0121379588
3560.5784106444	0.0121930139
3562.5072180174	0.0122339968
3564.4360253905	0.0122811664
3566.3648327635	0.0117214369
3568.2936401366	0.0115570063
3570.2224475096	0.0122351591
3572.1512548827	0.0124712894
3574.0800622557	0.0124265589
3576.0088696288	0.0125100566
3577.9376770018	0.0125157684
3579.8664843749	0.0125547191
3581.7952917479	0.0125953872
3583.7240991210	0.0126970354
3585.6529064940	0.0125192422
3587.5817138670	0.0117594283
3589.5105212401	0.0120505570
3591.4393286131	0.0128396209
3593.3681359862	0.0125591513
3595.2969433592	0.0124290977
3597.2257507323	0.0126272254
3599.1545581053	0.0125909159
3601.0833654784	0.0125968233
3603.0121728514	0.0127999075
3604.9409802245	0.0128734577
3606.8697875975	0.0126177948
3608.7985949706	0.0121009182
3610.7274023436	0.0123431496
3612.6562097167	0.0126586892
3614.5850170897	0.0124345962
3616.5138244627	0.0131066991
3618.4426318358	0.0122784805
3620.3714392088	0.0121099399
3622.3002465819	0.0132524502
3624.2290539549	0.0128635438
3626.1578613280	0.0134491753
3628.0866687010	0.0118951919
3630.0154760741	0.0112255821
3631.9442834471	0.0133184800
3633.8730908202	0.0130251553
3635.8018981932	0.0133880954
3637.7307055663	0.0135212336
3639.6595129393	0.0134015996
3641.5883203124	0.0136755370
3643.5171276854	0.0134250987
3645.4459350584	0.0135026565
3647.3747424315	0.0124927759
3649.3035498045	0.0117684510
3651.2323571776	0.0120030772
3653.1611645506	0.0136554856
3655.0899719237	0.0134896114
3657.0187792967	0.0126342699
3658.9475866698	0.0141559904
3660.8763940428	0.0137981568
3662.8052014159	0.0140770692
3664.7340087889	0.0141024524
3666.6628161620	0.0139226988
3668.5916235350	0.0136402473
3670.5204309081	0.0117542520
3672.4492382811	0.0136029711
3674.3780456541	0.0131306406
3676.3068530272	0.0115375658
3678.2356604002	0.0136869382
3680.1644677733	0.0139166703
3682.0932751463	0.0139436517
3684.0220825194	0.0142875137
3685.9508898924	0.0140929278
3687.8796972655	0.0127912592
3689.8085046385	0.0120475218
3691.7373120116	0.0133568197
3693.6661193846	0.0135780480
3695.5949267577	0.0138343424
3697.5237341307	0.0137820207
3699.4525415038	0.0137225576
3701.3813488768	0.0133785736
3703.3101562499	0.0130000189
3705.2389636229	0.0138714081
3707.1677709959	0.0132493135
3709.0965783690	0.0131166410
3711.0253857420	0.0124393981
3712.9541931151	0.0119108558
3714.8830004881	0.0132964551
3716.8118078612	0.0130651277
3718.7406152342	0.0131158549
3720.6694226073	0.0127725601
3722.5982299803	0.0125723789
3724.5270373534	0.0128154233
3726.4558447264	0.0120625217
3728.3846520995	0.0127449892
3730.3134594725	0.0126190968
3732.2422668456	0.0119001772
3734.1710742186	0.0114748571
3736.0998815916	0.0111041516
3738.0286889647	0.0115182269
3739.9574963377	0.0122780986
3741.8863037108	0.0127090495
3743.8151110838	0.0102018826
3745.7439184569	0.0098251207
3747.6727258299	0.0120011438
3749.6015332030	0.0106454464
3751.5303405760	0.0099299289
3753.4591479491	0.0110266991
3755.3879553221	0.0116989966
3757.3167626952	0.0119747967
3759.2455700682	0.0112593351
3761.1743774413	0.0115300324
3763.1031848143	0.0120722223
3765.0319921873	0.0114066210
3766.9607995604	0.0115207369
3768.8896069334	0.0113546029
3770.8184143065	0.0110284016
3772.7472216795	0.0116446959
3774.6760290526	0.0114511019
3776.6048364256	0.0114915352
3778.5336437987	0.0112646166
3780.4624511717	0.0109585263
3782.3912585448	0.0114394985
3784.3200659178	0.0111993896
3786.2488732909	0.0111410096
3788.1776806639	0.0111599797
3790.1064880370	0.0111319236
3792.0352954100	0.0111311702
3793.9641027830	0.0112166693
3795.8929101561	0.0105895102
3797.8217175291	0.0106083639
3799.7505249022	0.0109343044
3801.6793322752	0.0090486575
3803.6081396483	0.0103586968
3805.5369470213	0.0107716024
3807.4657543944	0.0093224039
3809.3945617674	0.0108487252
3811.3233691405	0.0104582589
3813.2521765135	0.0108024599
3815.1809838866	0.0098724496
3817.1097912596	0.0090371305
3819.0385986327	0.0107199494
3820.9674060057	0.0090400204
3822.8962133787	0.0094615724
3824.8250207518	0.0105203297
3826.7538281248	0.0098664323
3828.6826354979	0.0103641506
3830.6114428709	0.0099136848
3832.5402502440	0.0097068194
3834.4690576170	0.0097555565
3836.3978649901	0.0093357675
3838.3266723631	0.0086942734
3840.2554797362	0.0092065716
3842.1842871092	0.0096592018
3844.1130944823	0.0093302503
3846.0419018553	0.0099381413
3847.9707092284	0.0097519439
3849.8995166014	0.0097687021
3851.8283239745	0.0089670420
3853.7571313475	0.0071521550
3855.6859387205	0.0081658969
3857.6147460936	0.0096852891
3859.5435534666	0.0094494671
3861.4723608397	0.0094119422
3863.4011682127	0.0091137495
3865.3299755858	0.0087086847
3867.2587829588	0.0095110033
3869.1875903319	0.0087550133
3871.1163977049	0.0083717499
3873.0452050780	0.0094546378
3874.9740124510	0.0087652374
3876.9028198241	0.0092745218
3878.8316271971	0.0093671158
3880.7604345702	0.0083077401
3882.6892419432	0.0092186956
3884.6180493162	0.0087070260
3886.5468566893	0.0081804153
3888.4756640623	0.0092108697
3890.4044714354	0.0087129176
3892.3332788084	0.0083875991
3894.2620861815	0.0089478921
3896.1908935545	0.0090139136
3898.1197009276	0.0087331757
3900.0485083006	0.0082722949
3901.9773156737	0.0082965605
3903.9061230467	0.0082406662
3905.8349304198	0.0082639754
3907.7637377928	0.0088167042
3909.6925451659	0.0087378593
3911.6213525389	0.0086671952
3913.5501599119	0.0087561086
3915.4789672850	0.0085411612
3917.4077746580	0.0083224084
3919.3365820311	0.0082793413
3921.2653894041	0.0085653830
3923.1941967772	0.0084857475
3925.1230041502	0.0083311554
3927.0518115233	0.0084594050
3928.9806188963	0.0085184025
3930.9094262694	0.0083636306
3932.8382336424	0.0081499647
3934.7670410155	0.0083602518
3936.6958483885	0.0083787981
3938.6246557616	0.0083196312
3940.5534631346	0.0083409557
3942.4822705076	0.0080505665
3944.4110778807	0.0081200507
3946.3398852537	0.0081287287
3948.2686926268	0.0079663787
3950.1974999998	0.0080394950
3952.1263073729	0.0079383608
3954.0551147459	0.0080477716
3955.9839221190	0.0081384201
3957.9127294920	0.0079925479
3959.8415368651	0.0079998085
3961.7703442381	0.0079267668
3963.6991516112	0.0079310499
3965.6279589842	0.0079173762
3967.5567663573	0.0078858798
3969.4855737303	0.0079314411
3971.4143811034	0.0079081142
3973.3431884764	0.0079014674
3975.2719958494	0.0077442070
3977.2008032225	0.0077738129
3979.1296105955	0.0078180023
3981.0584179686	0.0076856157
3982.9872253416	0.0077239163
3984.9160327147	0.0076914364
3986.8448400877	0.0076100230
3988.7736474608	0.0075718481
3990.7024548338	0.0076010455
3992.6312622069	0.0075364746
3994.5600695799	0.0075064069
3996.4888769530	0.0075802151
3998.4176843260	0.0074693910
4000.3464916991	0.0074484022
4002.2752990721	0.0074022589
4004.2041064451	0.0073411716
4006.1329138182	0.0074440353
4008.0617211912	0.0074548395
4009.9905285643	0.0073664673
4011.9193359373	0.0073893662
4013.8481433104	0.0074032629
4015.7769506834	0.0072904141
4017.7057580565	0.0073198532
4019.6345654295	0.0072801951
4021.5633728026	0.0072048488
4023.4921801756	0.0072875842
4025.4209875487	0.0072614187
4027.3497949217	0.0072206929
4029.2786022948	0.0072466461
4031.2074096678	0.0071834913
4033.1362170408	0.0071301321
4035.0650244139	0.0070967805
4036.9938317869	0.0070016840
4038.9226391600	0.0070963982
4040.8514465330	0.0070944680
4042.7802539061	0.0069929808
4044.7090612791	0.0070166411
4046.6378686522	0.0069630239
4048.5666760252	0.0069800997
4050.4954833983	0.0069184494
4052.4242907713	0.0069193440
4054.3530981444	0.0068779252
4056.2819055174	0.0067636175
4058.2107128905	0.0068054227
4060.1395202635	0.0067636543
4062.0683276365	0.0067999614
4063.9971350096	0.0067033498
4065.9259423826	0.0067381328
4067.8547497557	0.0068218987
4069.7835571287	0.0066798362
4071.7123645018	0.0067040790
4073.6411718748	0.0066307737
4075.5699792479	0.0066739717
4077.4987866209	0.0066605662
4079.4275939940	0.0065532685
4081.3564013670	0.0065976279
4083.2852087401	0.0065234173
4085.2140161131	0.0065780003
4087.1428234862	0.0065891594
4089.0716308592	0.0064932429
4091.0004382323	0.0064872969
4092.9292456053	0.0064774710
4094.8580529783	0.0064040148
4096.7868603514	0.0063783387
4098.7156677244	0.0064599710
4100.6444750975	0.0064436328
4102.5732824705	0.0063737817
4104.5020898436	0.0063361861
4106.4308972166	0.0063750497
4108.3597045897	0.0063453913
4110.2885119627	0.0062597245
4112.2173193358	0.0062799249
4114.1461267088	0.0062849657
4116.0749340819	0.0063165254
4118.0037414549	0.0062361853
4119.9325488280	0.0061289771
4121.8613562010	0.0062330076
4123.7901635740	0.0061898511
4125.7189709471	0.0060661053
4127.6477783201	0.0060842098
4129.5765856932	0.0060368381
4131.5053930662	0.0060558561
4133.4342004393	0.0060207820
4135.3630078123	0.0060425769
4137.2918151854	0.0061645792
4139.2206225584	0.0059622307
4141.1494299315	0.0059839133
4143.0782373045	0.0060727331
4145.0070446776	0.0059706364
4146.9358520506	0.0060201567
4148.8646594237	0.0059677088
4150.7934667967	0.0059396680
4152.7222741697	0.0058787931
4154.6510815428	0.0058585787
4156.5798889158	0.0059180781
4158.5086962889	0.0058398969
4160.4375036619	0.0058004595
4162.3663110350	0.0057706414
4164.2951184080	0.0057779700
4166.2239257811	0.0057819542
4168.1527331541	0.0057495488
4170.0815405272	0.0057271817
4172.0103479002	0.0056910659
4173.9391552733	0.0056235045
4175.8679626463	0.0056724246
4177.7967700194	0.0057867216
4179.7255773924	0.0056755049
4181.6543847654	0.0056355637
4183.5831921385	0.0056636105
4185.5119995115	0.0056177545
4187.4408068846	0.0056125447
4189.3696142576	0.0055356892
4191.2984216307	0.0054718540
4193.2272290037	0.0055977679
4195.1560363768	0.0056098537
4197.0848437498	0.0053919610
4199.0136511229	0.0054905685
4200.9424584959	0.0055635399
4202.8712658690	0.0054305447
4204.8000732420	0.0054770969
4206.7288806151	0.0054284534
4208.6576879881	0.0053941580
4210.5864953611	0.0054407679
4212.5153027342	0.0054222206
4214.4441101072	0.0053704530
4216.3729174803	0.0053164838
4218.3017248533	0.0053188470
4220.2305322264	0.0053162705
4222.1593395994	0.0052549946
4224.0881469725	0.0052295346
4226.0169543455	0.0052752709
4227.9457617186	0.0052406103
4229.8745690916	0.0052346084
4231.8033764647	0.0052320203
4233.7321838377	0.0051851035
4235.6609912108	0.0051992042
4237.5897985838	0.0051523861
4239.5186059569	0.0050840513
4241.4474133299	0.0051396298
4243.3762207029	0.0051435260
4245.3050280760	0.0050231004
4247.2338354490	0.0051072803
4249.1626428221	0.0051149633
4251.0914501951	0.0050197458
4253.0202575682	0.0050450647
4254.9490649412	0.0050542261
4256.8778723143	0.0051109074
4258.8066796873	0.0049478700
4260.7354870604	0.0049257949
4262.6642944334	0.0050328560
4264.5931018065	0.0049172929
4266.5219091795	0.0049152100
4268.4507165526	0.0048981151
4270.3795239256	0.0048698699
4272.3083312986	0.0048914291
4274.2371386717	0.0049444349
4276.1659460447	0.0049021030
4278.0947534178	0.0048585380
4280.0235607908	0.0048595630
4281.9523681639	0.0048039686
4283.8811755369	0.0048577525
4285.8099829100	0.0047829784
4287.7387902830	0.0047946982
4289.6675976561	0.0048163314
4291.5964050291	0.0047138254
4293.5252124022	0.0047209379
4295.4540197752	0.0047162995
4297.3828271483	0.0047052279
4299.3116345213	0.0046443283
4301.2404418943	0.0047006132
4303.1692492674	0.0046707196
4305.0980566404	0.0046341224
4307.0268640135	0.0046947938
4308.9556713865	0.0046461355
4310.8844787596	0.0046492154
4312.8132861326	0.0046017691
4314.7420935057	0.0046284776
4316.6709008787	0.0045567565
4318.5997082518	0.0045797378
4320.5285156248	0.0046824859
4322.4573229979	0.0045554349
4324.3861303709	0.0045995596
4326.3149377440	0.0045715431
4328.2437451170	0.0045552989
4330.1725524900	0.0045343060
4332.1013598631	0.0044162381
4334.0301672361	0.0044338037
4335.9589746092	0.0044414559
4337.8877819822	0.0044551054
4339.8165893553	0.0044101304
4341.7453967283	0.0043857545
4343.6742041014	0.0043596905
4345.6030114744	0.0043885284
4347.5318188475	0.0044165179
4349.4606262205	0.0043733106
4351.3894335936	0.0043886174
4353.3182409666	0.0043000551
4355.2470483397	0.0043101013
4357.1758557127	0.0043421565
4359.1046630858	0.0043192641
4361.0334704588	0.0043292772
4362.9622778318	0.0042667063
4364.8910852049	0.0042338674
4366.8198925779	0.0042186775
4368.7486999510	0.0042037386
4370.6775073240	0.0041909898
4372.6063146971	0.0042412039
4374.5351220701	0.0042335624
4376.4639294432	0.0041680336
4378.3927368162	0.0041345973
4380.3215441893	0.0041239401
4382.2503515623	0.0041809403
4384.1791589354	0.0041254023
4386.1079663084	0.0041303681
4388.0367736815	0.0041576843
4389.9655810545	0.0040627047
4391.8943884275	0.0040494069
4393.8231958006	0.0040912996
4395.7520031736	0.0040938160
4397.6808105467	0.0039689136
4399.6096179197	0.0039482363
4401.5384252928	0.0040507982
4403.4672326658	0.0040639937
4405.3960400389	0.0040532872
4407.3248474119	0.0039263899
4409.2536547850	0.0038379198
4411.1824621580	0.0039517209
4413.1112695311	0.0039813505
4415.0400769041	0.0039396794
4416.9688842772	0.0039619696
4418.8976916502	0.0039025401
4420.8264990232	0.0038314452
4422.7553063963	0.0038404183
4424.6841137693	0.0038458097
4426.6129211424	0.0038684239
4428.5417285154	0.0038564701
4430.4705358885	0.0037677269
4432.3993432615	0.0037790865
4434.3281506346	0.0038201646
4436.2569580076	0.0038128819
4438.1857653807	0.0038337521
4440.1145727537	0.0037585534
4442.0433801268	0.0037750667
4443.9721874998	0.0037691595
4445.9009948729	0.0036729285
4447.8298022459	0.0037345216
4449.7586096189	0.0036957562
4451.6874169920	0.0037240628
4453.6162243650	0.0037068534
4455.5450317381	0.0035908131
4457.4738391111	0.0036960873
4459.4026464842	0.0036371830
4461.3314538572	0.0036082009
4463.2602612303	0.0037090606
4465.1890686033	0.0035782140
4467.1178759764	0.0035655168
4469.0466833494	0.0036846939
4470.9754907225	0.0035981415
4472.9042980955	0.0035860860
4474.8331054686	0.0036228928
4476.7619128416	0.0035504680
4478.6907202147	0.0035864091
4480.6195275877	0.0035440084
4482.5483349607	0.0035334141
4484.4771423338	0.0036034132
4486.4059497068	0.0035466072
4488.3347570799	0.0035493637
4490.2635644529	0.0035721618
4492.1923718260	0.0035470664
4494.1211791990	0.0035407981
4496.0499865721	0.0035368390
4497.9787939451	0.0034526079
4499.9076013182	0.0034728847
4501.8364086912	0.0034978334
4503.7652160643	0.0033494886
4505.6940234373	0.0033930906
4507.6228308104	0.0034529988
4509.5516381834	0.0034128511
4511.4804455564	0.0034471555
4513.4092529295	0.0034592277
4515.3380603025	0.0034103733
4517.2668676756	0.0033766269
4519.1956750486	0.0033623688
4521.1244824217	0.0033079488
4523.0532897947	0.0033449340
4524.9820971678	0.0033314680
4526.9109045408	0.0032980484
4528.8397119139	0.0033428627
4530.7685192869	0.0033108937
4532.6973266600	0.0032950928
4534.6261340330	0.0033028403
4536.5549414061	0.0033169859
4538.4837487791	0.0032634458
4540.4125561521	0.0032709588
4542.3413635252	0.0033476371
4544.2701708982	0.0032699066
4546.1989782713	0.0031724989
4548.1277856443	0.0031964439
4550.0565930174	0.0032605967
4551.9854003904	0.0031806873
4553.9142077635	0.0031761869
4555.8430151365	0.0031985003
4557.7718225096	0.0031024858
4559.7006298826	0.0031077708
4561.6294372557	0.0031386288
4563.5582446287	0.0031719455
4565.4870520018	0.0031220112
4567.4158593748	0.0031416733
4569.3446667478	0.0031766919
4571.2734741209	0.0030864351
4573.2022814939	0.0031389389
4575.1310888670	0.0030969365
4577.0598962400	0.0030510901
4578.9887036131	0.0030905437
4580.9175109861	0.0030539311
4582.8463183592	0.0030607143
4584.7751257322	0.0030100355
4586.7039331053	0.0029839221
4588.6327404783	0.0030416781
4590.5615478514	0.0030834880
4592.4903552244	0.0030257073
4594.4191625975	0.0029535743
4596.3479699705	0.0030126986
4598.2767773435	0.0030110711
4600.2055847166	0.0029729852
4602.1343920896	0.0029752413
4604.0631994627	0.0029478103
4605.9920068357	0.0029414846
4607.9208142088	0.0029421817
4609.8496215818	0.0029154001
4611.7784289549	0.0029395856
4613.7072363279	0.0029992792
4615.6360437010	0.0029033949
4617.5648510740	0.0027941687
4619.4936584471	0.0028393501
4621.4224658201	0.0028827246
4623.3512731932	0.0028630551
4625.2800805662	0.0027988863
4627.2088879393	0.0028110263
4629.1376953123	0.0028672060
4631.0665026853	0.0028478652
4632.9953100584	0.0028898688
4634.9241174314	0.0028839163
4636.8529248045	0.0027332737
4638.7817321775	0.0027420353
4640.7105395506	0.0028175949
4642.6393469236	0.0027877064
4644.5681542967	0.0028099187
4646.4969616697	0.0027774167
4648.4257690428	0.0027664853
4650.3545764158	0.0027585323
4652.2833837889	0.0026985018
4654.2121911619	0.0027641596
4656.1409985350	0.0027463096
4658.0698059080	0.0027844473
4659.9986132810	0.0028205684
4661.9274206541	0.0027053081
4663.8562280271	0.0026832907
4665.7850354002	0.0026809322
4667.7138427732	0.0027172039
4669.6426501463	0.0026694685
4671.5714575193	0.0026639136
4673.5002648924	0.0026691118
4675.4290722654	0.0026014023
4677.3578796385	0.0027053445
4679.2866870115	0.0026252838
4681.2154943846	0.0026065072
4683.1443017576	0.0027143203
4685.0731091307	0.0025948118
4687.0019165037	0.0025603352
4688.9307238767	0.0025961245
4690.8595312498	0.0025817631
4692.7883386228	0.0025722869
4694.7171459959	0.0025587915
4696.6459533689	0.0025824523
4698.5747607420	0.0026046967
4700.5035681150	0.0024951193
4702.4323754881	0.0025090829
4704.3611828611	0.0025515561
4706.2899902342	0.0024845800
4708.2187976072	0.0025500725
4710.1476049803	0.0024916779
4712.0764123533	0.0025172969
4714.0052197264	0.0025246672
4715.9340270994	0.0024844562
4717.8628344724	0.0025656074
4719.7916418455	0.0024369673
4721.7204492185	0.0024683613
4723.6492565916	0.0024480037
4725.5780639646	0.0023799334
4727.5068713377	0.0024529248
4729.4356787107	0.0024288180
4731.3644860838	0.0024578781
4733.2932934568	0.0023922408
4735.2221008299	0.0023749536
4737.1509082029	0.0023897430
4739.0797155760	0.0024003601
4741.0085229490	0.0024221702
4742.9373303221	0.0024450631
4744.8661376951	0.0024699667
4746.7949450682	0.0023709629
4748.7237524412	0.0023884834
4750.6525598142	0.0023158295
4752.5813671873	0.0023188372
4754.5101745603	0.0023345491
4756.4389819334	0.0022463370
4758.3677893064	0.0023217332
4760.2965966795	0.0022344245
4762.2254040525	0.0022710143
4764.1542114256	0.0023429226
4766.0830187986	0.0023172344
4768.0118261717	0.0023156188
4769.9406335447	0.0022712874
4771.8694409178	0.0023308506
4773.7982482908	0.0023004056
4775.7270556639	0.0023155527
4777.6558630369	0.0022972673
4779.5846704099	0.0022263811
4781.5134777830	0.0022374052
4783.4422851560	0.0022319080
4785.3710925291	0.0022381460
4787.2998999021	0.0022000978
4789.2287072752	0.0022705211
4791.1575146482	0.0022499680
4793.0863220213	0.0021234690
4795.0151293943	0.0021369646
4796.9439367674	0.0021913699
4798.8727441404	0.0021759351
4800.8015515135	0.0021791488
4802.7303588865	0.0022321534
4804.6591662596	0.0021422124
4806.5879736326	0.0021742643
4808.5167810056	0.0021841200
4810.4455883787	0.0021337792
4812.3743957517	0.0022009909
4814.3032031248	0.0021091986
4816.2320104978	0.0021242774
4818.1608178709	0.0021311042
4820.0896252439	0.0021043592
4822.0184326170	0.0021779153
4823.9472399900	0.0020855251
4825.8760473631	0.0020661997
4827.8048547361	0.0021004474
4829.7336621092	0.0020815216
4831.6624694822	0.0020994646
4833.5912768553	0.0020796242
4835.5200842283	0.0020868883
4837.4488916013	0.0020256471
4839.3776989744	0.0019714097
4841.3065063474	0.0020992763
4843.2353137205	0.0020996172
4845.1641210935	0.0020486144
4847.0929284666	0.0020618758
4849.0217358396	0.0019735300
4850.9505432127	0.0019738516
4852.8793505857	0.0020363932
4854.8081579588	0.0020535062
4856.7369653318	0.0019769496
4858.6657727049	0.0019379328
4860.5945800779	0.0020041401
4862.5233874510	0.0019688667
4864.4521948240	0.0019629216
4866.3810021971	0.0019312792
4868.3098095701	0.0019573509
4870.2386169431	0.0020879928
4872.1674243162	0.0019941155
4874.0962316892	0.0019046315
4876.0250390623	0.0019829331
4877.9538464353	0.0019453344
4879.8826538084	0.0018828698
4881.8114611814	0.0019220088
4883.7402685545	0.0019106405
4885.6690759275	0.0019311204
4887.5978833006	0.0018523325
4889.5266906736	0.0018175798
4891.4554980467	0.0019429165
4893.3843054197	0.0018590172
4895.3131127928	0.0018343239
4897.2419201658	0.0019060567
4899.1707275388	0.0019164486
4901.0995349119	0.0018141614
4903.0283422849	0.0017529491
4904.9571496580	0.0018709111
4906.8859570310	0.0018181056
4908.8147644041	0.0017956177
4910.7435717771	0.0018059420
4912.6723791502	0.0018346090
4914.6011865232	0.0018197016
4916.5299938963	0.0017293151
4918.4588012693	0.0018308363
4920.3876086424	0.0017616071
4922.3164160154	0.0017510697
4924.2452233885	0.0017497693
4926.1740307615	0.0016572758
4928.1028381345	0.0017505570
4930.0316455076	0.0016862366
4931.9604528806	0.0016872077
4933.8892602537	0.0017857479
4935.8180676267	0.0017793156
4937.7468749998	0.0017144199
4939.6756823728	0.0017157225
4941.6044897459	0.0017898111
4943.5332971189	0.0017375385
4945.4621044920	0.0017454167
4947.3909118650	0.0017544490
4949.3197192381	0.0017101309
4951.2485266111	0.0016384096
4953.1773339842	0.0016796597
4955.1061413572	0.0017998300
4957.0349487302	0.0017027846
4958.9637561033	0.0016627084
4960.8925634763	0.0016437419
4962.8213708494	0.0016593852
4964.7501782224	0.0016720467
4966.6789855955	0.0015722802
4968.6077929685	0.0016371959
4970.5366003416	0.0016642418
4972.4654077146	0.0016664201
4974.3942150877	0.0016669239
4976.3230224607	0.0016281914
4978.2518298338	0.0017113751
4980.1806372068	0.0017012616
4982.1094445799	0.0016064201
4984.0382519529	0.0015860449
4985.9670593259	0.0016026939
4987.8958666990	0.0016189084
4989.8246740720	0.0015963310
4991.7534814451	0.0015427768
4993.6822888181	0.0015691071
4995.6110961912	0.0015838607
4997.5399035642	0.0015461561
4999.4687109373	0.0016047098
5001.3975183103	0.0016023002
5003.3263256834	0.0015902920
5005.2551330564	0.0015883502
5007.1839404295	0.0014849207
5009.1127478025	0.0015284738
5011.0415551756	0.0016235013
5012.9703625486	0.0016269076
5014.8991699217	0.0016097369
5016.8279772947	0.0015223415
5018.7567846677	0.0015050415
5020.6855920408	0.0015357402
5022.6143994138	0.0015324054
5024.5432067869	0.0015667211
5026.4720141599	0.0015226488
5028.4008215330	0.0014944992
5030.3296289060	0.0014956808
5032.2584362791	0.0014615119
5034.1872436521	0.0014736820
5036.1160510252	0.0014396331
5038.0448583982	0.0014651906
5039.9736657713	0.0015129432
5041.9024731443	0.0014835238
5043.8312805174	0.0014528151
5045.7600878904	0.0014585875
5047.6888952634	0.0014474313
5049.6177026365	0.0013764424
5051.5465100095	0.0014606924
5053.4753173826	0.0014963325
5055.4041247556	0.0014561629
5057.3329321287	0.0014249452
5059.2617395017	0.0013752909
5061.1905468748	0.0014664005
5063.1193542478	0.0014313261
5065.0481616209	0.0014615483
5066.9769689939	0.0014732756
5068.9057763670	0.0013706326
5070.8345837400	0.0014271369
5072.7633911131	0.0013879701
5074.6921984861	0.0013565632
5076.6210058591	0.0013330786
5078.5498132322	0.0014283666
5080.4786206052	0.0014743567
5082.4074279783	0.0013303701
5084.3362353513	0.0013367247
5086.2650427244	0.0013408887
5088.1938500974	0.0013648567
5090.1226574705	0.0012786008
5092.0514648435	0.0013422662
5093.9802722166	0.0014391951
5095.9090795896	0.0013231549
5097.8378869627	0.0014183352
5099.7666943357	0.0013457577
5101.6955017088	0.0013468456
5103.6243090818	0.0013997434
5105.5531164548	0.0012946751
5107.4819238279	0.0013623460
5109.4107312009	0.0012900478
5111.3395385740	0.0013172140
5113.2683459470	0.0014181111
5115.1971533201	0.0013202645
5117.1259606931	0.0012876136
5119.0547680662	0.0013062122
5120.9835754392	0.0012748756
5122.9123828123	0.0013040539
5124.8411901853	0.0013850988
5126.7699975584	0.0013482500
5128.6988049314	0.0012817669
5130.6276123045	0.0012633088
5132.5564196775	0.0013071545
5134.4852270506	0.0012824360
5136.4140344236	0.0012642128
5138.3428417966	0.0013202538
5140.2716491697	0.0012334678
5142.2004565427	0.0012351528
5144.1292639158	0.0013085930
5146.0580712888	0.0012631038
5147.9868786619	0.0012110013
5149.9156860349	0.0012549420
5151.8444934080	0.0012423252
5153.7733007810	0.0011938806
5155.7021081541	0.0012509567
5157.6309155271	0.0012061079
5159.5597229002	0.0012083887
5161.4885302732	0.0012089289
5163.4173376463	0.0011894862
5165.3461450193	0.0012311102
5167.2749523923	0.0011888945
5169.2037597654	0.0012144353
5171.1325671384	0.0012129373
5173.0613745115	0.0012264306
5174.9901818845	0.0012019454
5176.9189892576	0.0011514518
5178.8477966306	0.0012158430
5180.7766040037	0.0012094674
5182.7054113767	0.0012061202
5184.6342187498	0.0011535494
5186.5630261228	0.0011349160
5188.4918334959	0.0011939061
5190.4206408689	0.0011605364
5192.3494482420	0.0011320721
5194.2782556150	0.0011993966
5196.2070629880	0.0012279085
5198.1358703611	0.0011441240
5200.0646777341	0.0011897229
5201.9934851072	0.0012087878
5203.9222924802	0.0011343015
5205.8510998533	0.0011157675
5207.7799072263	0.0011153059
5209.7087145994	0.0011476909
5211.6375219724	0.0011117745
5213.5663293455	0.0011528649
5215.4951367185	0.0012015925
5217.4239440916	0.0011608070
5219.3527514646	0.0011278356
5221.2815588377	0.0010818675
5223.2103662107	0.0011423579
5225.1391735837	0.0011236842
5227.0679809568	0.0010797261
5228.9967883298	0.0011290768
5230.9255957029	0.0011312061
5232.8544030759	0.0011501533
5234.7832104490	0.0011061319
5236.7120178220	0.0011412487
5238.6408251951	0.0011760922
5240.5696325681	0.0010633823
5242.4984399412	0.0010462496
5244.4272473142	0.0010224257
5246.3560546873	0.0011008075
5248.2848620603	0.0011651864
5250.2136694334	0.0010770011
5252.1424768064	0.0011118802
5254.0712841795	0.0010483393
5256.0000915525	0.0010198830
5257.9288989255	0.0010790764
5259.8577062986	0.0010338140
5261.7865136716	0.0010113188
5263.7153210447	0.0009918071
5265.6441284177	0.0010422322
5267.5729357908	0.0010287969
5269.5017431638	0.0010279610
5271.4305505369	0.0010911592
5273.3593579099	0.0010413858
5275.2881652830	0.0010021651
5277.2169726560	0.0010542751
5279.1457800291	0.0011297282
5281.0745874021	0.0010129488
5283.0033947752	0.0009719012
5284.9322021482	0.0010397036
5286.8610095212	0.0010405628
5288.7898168943	0.0010355068
5290.7186242673	0.0009100458
5292.6474316404	0.0010216576
5294.5762390134	0.0011438441
5296.5050463865	0.0010127729
5298.4338537595	0.0009546593
5300.3626611326	0.0009436421
5302.2914685056	0.0010036710
5304.2202758787	0.0010315089
5306.1490832517	0.0009953906
5308.0778906248	0.0010135375
5310.0066979978	0.0010544881
5311.9355053709	0.0009966786
5313.8643127439	0.0009701174
5315.7931201169	0.0009903101
5317.7219274900	0.0009243038
5319.6507348630	0.0009746643
5321.5795422361	0.0009792529
5323.5083496091	0.0009756129
5325.4371569822	0.0009613283
5327.3659643552	0.0008724220
5329.2947717283	0.0009469390
5331.2235791013	0.0009476958
5333.1523864744	0.0009555304
5335.0811938474	0.0009681083
5337.0100012205	0.0008561070
5338.9388085935	0.0008324932
5340.8676159666	0.0008820244
5342.7964233396	0.0009181559
5344.7252307126	0.0008948728
5346.6540380857	0.0009434791
5348.5828454587	0.0009380082
5350.5116528318	0.0008792695
5352.4404602048	0.0009468753
5354.3692675779	0.0009085730
5356.2980749509	0.0009024773
5358.2268823240	0.0009670743
5360.1556896970	0.0009234884
5362.0844970701	0.0008750224
5364.0133044431	0.0008339732
5365.9421118162	0.0008970799
5367.8709191892	0.0008983600
5369.7997265623	0.0008208146
5371.7285339353	0.0008812950
5373.6573413083	0.0008643205
5375.5861486814	0.0009024317
5377.5149560544	0.0009212011
5379.4437634275	0.0008508205
5381.3725708005	0.0008792006
5383.3013781736	0.0008092067
5385.2301855466	0.0008930428
5387.1589929197	0.0009239117
5389.0878002927	0.0007973955
5391.0166076658	0.0008603071
5392.9454150388	0.0007763526
5394.8742224119	0.0007501902
5396.8030297849	0.0009201755
5398.7318371580	0.0009204398
5400.6606445310	0.0008690919
5402.5894519041	0.0009039944
5404.5182592771	0.0008421765
5406.4470666501	0.0008226633
5408.3758740232	0.0009066069
5410.3046813962	0.0008357959
5412.2334887693	0.0008201168
5414.1622961423	0.0008030011
5416.0911035154	0.0007942358
5418.0199108884	0.0008248703
5419.9487182615	0.0007662956
5421.8775256345	0.0008291044
5423.8063330076	0.0007583704
5425.7351403806	0.0007445484
5427.6639477537	0.0008680482
5429.5927551267	0.0007734914
5431.5215624998	0.0007835643
5433.4503698728	0.0008240590
5435.3791772458	0.0007557799
5437.3079846189	0.0008116759
5439.2367919919	0.0008116405
5441.1655993650	0.0007038936
5443.0944067380	0.0007834946
5445.0232141111	0.0008554297
5446.9520214841	0.0007957639
5448.8808288572	0.0007780747
5450.8096362302	0.0007751074
5452.7384436033	0.0007945187
5454.6672509763	0.0007246796
5456.5960583494	0.0007554489
5458.5248657224	0.0008502449
5460.4536730955	0.0007524284
5462.3824804685	0.0007166894
5464.3112878415	0.0007075786
5466.2400952146	0.0007230071
5468.1689025876	0.0007691253
5470.0977099607	0.0007138855
5472.0265173337	0.0006872818
5473.9553247068	0.0007196568
5475.8841320798	0.0007396362
5477.8129394529	0.0007111316
5479.7417468259	0.0007560821
5481.6705541990	0.0008061324
5483.5993615720	0.0007610336
5485.5281689451	0.0007883479
5487.4569763181	0.0007592217
5489.3857836912	0.0007051143
5491.3145910642	0.0007158135
5493.2433984372	0.0006691507
5495.1722058103	0.0007255916
5497.1010131833	0.0007362039
5499.0298205564	0.0006952921
5500.9586279294	0.0007602341
5502.8874353025	0.0007659944
5504.8162426755	0.0007706364
5506.7450500486	0.0006784723
5508.6738574216	0.0006730120
5510.6026647947	0.0007418991
5512.5314721677	0.0006435419
5514.4602795408	0.0006973503
5516.3890869138	0.0006851624
5518.3178942869	0.0006389299
5520.2467016599	0.0007650587
5522.1755090330	0.0007222733
5524.1043164060	0.0006383978
5526.0331237790	0.0006793399
5527.9619311521	0.0006951503
5529.8907385251	0.0007020589
5531.8195458982	0.0007228988
5533.7483532712	0.0006413605
5535.6771606443	0.0006248464
5537.6059680173	0.0006905670
5539.5347753904	0.0006939669
5541.4635827634	0.0006975919
5543.3923901365	0.0006634311
5545.3211975095	0.0006838206
5547.2500048826	0.0007152314
5549.1788122556	0.0006615892
5551.1076196287	0.0006009553
5553.0364270017	0.0006084915
5554.9652343747	0.0006481491
5556.8940417478	0.0006486476
5558.8228491208	0.0006668409
5560.7516564939	0.0006463440
5562.6804638669	0.0006546733
5564.6092712400	0.0006697387
5566.5380786130	0.0006456230
5568.4668859861	0.0006342523
5570.3956933591	0.0006237058
5572.3245007322	0.0006270693
5574.2533081052	0.0006282777
5576.1821154783	0.0007012968
5578.1109228513	0.0006337286
5580.0397302244	0.0006051242
5581.9685375974	0.0007075603
5583.8973449704	0.0006088087
5585.8261523435	0.0006095446
5587.7549597165	0.0006626771
5589.6837670896	0.0006059068
5591.6125744626	0.0005777939
5593.5413818357	0.0006225380
5595.4701892087	0.0006563286
5597.3989965818	0.0006055835
5599.3278039548	0.0006040237
5601.2566113279	0.0005656341
5603.1854187009	0.0005686337
5605.1142260740	0.0006184365
5607.0430334470	0.0005798901
5608.9718408201	0.0005540062
5610.9006481931	0.0005872360
5612.8294555661	0.0005988826
5614.7582629392	0.0005614675
5616.6870703122	0.0006227723
5618.6158776853	0.0006027063
5620.5446850583	0.0005728435
5622.4734924314	0.0006455857
5624.4022998044	0.0005813166
5626.3311071775	0.0005466412
5628.2599145505	0.0005481907
5630.1887219236	0.0005601343
5632.1175292966	0.0005988295
5634.0463366697	0.0005577379
5635.9751440427	0.0005327343
5637.9039514158	0.0005353373
5639.8327587888	0.0005281549
5641.7615661619	0.0005309044
5643.6903735349	0.0005663866
5645.6191809079	0.0005557938
5647.5479882810	0.0005108436
5649.4767956540	0.0005282569
5651.4056030271	0.0005228979
5653.3344104001	0.0005227011
5655.2632177732	0.0005512898
5657.1920251462	0.0005042794
5659.1208325193	0.0005349603
5661.0496398923	0.0006290829
5662.9784472654	0.0005481960
5664.9072546384	0.0005159831
5666.8360620115	0.0005836248
5668.7648693845	0.0005121523
5670.6936767576	0.0004942157
5672.6224841306	0.0005855413
5674.5512915036	0.0005649159
5676.4800988767	0.0005193177
5678.4089062497	0.0005022910
5680.3377136228	0.0005022938
5682.2665209958	0.0005711042
5684.1953283689	0.0005198327
5686.1241357419	0.0004675862
5688.0529431150	0.0005474876
5689.9817504880	0.0005553254
5691.9105578611	0.0005351994
5693.8393652341	0.0005531729
5695.7681726072	0.0005454384
5697.6969799802	0.0004672993
5699.6257873533	0.0004982327
5701.5545947263	0.0005584041
5703.4834020993	0.0004651897
5705.4122094724	0.0004667919
5707.3410168454	0.0004934745
5709.2698242185	0.0005149361
5711.1986315915	0.0005600558
5713.1274389646	0.0005175513
5715.0562463376	0.0005286139
5716.9850537107	0.0005134934
5718.9138610837	0.0004346292
5720.8426684568	0.0004584208
5722.7714758298	0.0005293750
5724.7002832029	0.0005229620
5726.6290905759	0.0004891464
5728.5578979490	0.0004919302
5730.4867053220	0.0004768294
5732.4155126950	0.0004717974
5734.3443200681	0.0004813859
5736.2731274411	0.0004454268
5738.2019348142	0.0004515270
5740.1307421872	0.0004771976
5742.0595495603	0.0004692781
5743.9883569333	0.0004931113
5745.9171643064	0.0004266709
5747.8459716794	0.0003807310
5749.7747790525	0.0004403646
5751.7035864255	0.0004394022
5753.6323937986	0.0004711904
5755.5612011716	0.0004978754
5757.4900085447	0.0004965594
5759.4188159177	0.0004832994
5761.3476232907	0.0004186960
5763.2764306638	0.0004407401
5765.2052380368	0.0005031076
5767.1340454099	0.0004832904
5769.0628527829	0.0004574171
5770.9916601560	0.0004576924
5772.9204675290	0.0004096452
5774.8492749021	0.0004100526
5776.7780822751	0.0004418216
5778.7068896482	0.0004820253
5780.6356970212	0.0005006547
5782.5645043943	0.0004022825
5784.4933117673	0.0004164389
5786.4221191404	0.0004419701
5788.3509265134	0.0004328817
5790.2797338865	0.0004467069
5792.2085412595	0.0004020359
5794.1373486325	0.0004522641
5796.0661560056	0.0004145953
5797.9949633786	0.0003725045
5799.9237707517	0.0004582751
5801.8525781247	0.0004464302
5803.7813854978	0.0004167481
5805.7101928708	0.0004076711
5807.6390002439	0.0003814055
5809.5678076169	0.0004013306
5811.4966149900	0.0004610083
5813.4254223630	0.0004803616
5815.3542297361	0.0004344002
5817.2830371091	0.0003546856
5819.2118444822	0.0003708548
5821.1406518552	0.0004177966
5823.0694592282	0.0003868144
5824.9982666013	0.0004119851
5826.9270739743	0.0004405343
5828.8558813474	0.0004240145
5830.7846887204	0.0004149672
5832.7134960935	0.0004498377
5834.6423034665	0.0004160114
5836.5711108396	0.0004133632
5838.4999182126	0.0004673260
5840.4287255857	0.0003566190
5842.3575329587	0.0004057523
5844.2863403318	0.0004497014
5846.2151477048	0.0004033826
5848.1439550779	0.0004556674
5850.0727624509	0.0003521849
5852.0015698239	0.0003427660
5853.9303771970	0.0004119129
5855.8591845700	0.0004068785
5857.7879919431	0.0003479659
5859.7167993161	0.0003036647
5861.6456066892	0.0003634792
5863.5744140622	0.0003586248
5865.5032214353	0.0003906119
5867.4320288083	0.0003176087
5869.3608361814	0.0002843625
5871.2896435544	0.0004322216
5873.2184509275	0.0003763607
5875.1472583005	0.0003431138
5877.0760656736	0.0004041017
5879.0048730466	0.0003871158
5880.9336804196	0.0003554004
5882.8624877927	0.0003575507
5884.7912951657	0.0003819707
5886.7201025388	0.0003496057
5888.6489099118	0.0003515705
5890.5777172849	0.0003470715
5892.5065246579	0.0003386211
5894.4353320310	0.0003936716
5896.3641394040	0.0003656542
5898.2929467771	0.0003401702
5900.2217541501	0.0003365219
5902.1505615232	0.0002918265
5904.0793688962	0.0003477267
5906.0081762693	0.0003969004
5907.9369836423	0.0003761288
5909.8657910154	0.0003866892
5911.7945983884	0.0003861650
5913.7234057614	0.0003843906
5915.6522131345	0.0003779394
5917.5810205075	0.0003451765
5919.5098278806	0.0002989818
5921.4386352536	0.0003212593
5923.3674426267	0.0003380178
5925.2962499997	0.0002809275
5927.2250573728	0.0003762617
5929.1538647458	0.0004129469
5931.0826721189	0.0003296077
5933.0114794919	0.0003473588
5934.9402868650	0.0002853617
5936.8690942380	0.0002771691
5938.7979016111	0.0003696519
5940.7267089841	0.0003794489
5942.6555163571	0.0003529073
5944.5843237302	0.0003172684
5946.5131311032	0.0003584318
5948.4419384763	0.0003561449
5950.3707458493	0.0002697623
5952.2995532224	0.0003178592
5954.2283605954	0.0003442912
5956.1571679685	0.0002876961
5958.0859753415	0.0003230723
5960.0147827146	0.0003319783
5961.9435900876	0.0003342357
5963.8723974607	0.0003565783
5965.8012048337	0.0002699405
5967.7300122068	0.0002384205
5969.6588195798	0.0002861362
5971.5876269528	0.0003066478
5973.5164343259	0.0003449813
5975.4452416989	0.0003292889
5977.3740490720	0.0002443074
5979.3028564450	0.0002768383
5981.2316638181	0.0003628067
5983.1604711911	0.0002985949
5985.0892785642	0.0002663618
5987.0180859372	0.0003133025
5988.9468933103	0.0003086338
5990.8757006833	0.0002874163
5992.8045080564	0.0002738983
5994.7333154294	0.0002893897
5996.6621228025	0.0002770586
5998.5909301755	0.0002862386
6000.5197375485	0.0002857498
