399.2631262207	0.0003127816
401.1919335938	0.0000243166
403.1207409668	0.0002879415
405.0495483398	0.0002711082
406.9783557129	0.0001923172
408.9071630859	0.0001871740
410.8359704590	0.0003867745
412.7647778320	0.0003624203
414.6935852051	0.0000509144
416.6223925781	0.0002010151
418.5511999512	-0.0000425243
420.4800073242	0.0000757041
422.4088146973	0.0003735000
424.3376220703	0.0001252488
426.2664294434	0.0001293012
428.1952368164	0.0000327347
430.1240441895	0.0002000627
432.0528515625	0.0004434098
433.9816589355	0.0003039653
435.9104663086	0.0003479773
437.8392736816	0.0002736195
439.7680810547	0.0000483532
441.6968884277	0.0000833041
443.6256958008	-0.0000210973
445.5545031738	-0.0000285926
447.4833105469	0.0003448538
449.4121179199	0.0001539960
451.3409252930	0.0000591874
453.2697326660	0.0003780205
455.1985400391	0.0002757041
457.1273474121	0.0002079354
459.0561547852	0.0001634120
460.9849621582	0.0000859915
462.9137695313	0.0001159067
464.8425769043	0.0002034116
466.7713842773	0.0003369382
468.7001916504	0.0003192279
470.6289990234	0.0002589624
472.5578063965	0.0001000560
474.4866137695	0.0000615941
476.4154211426	0.0001572235
478.3442285156	0.0000711100
480.2730358887	0.0000644397
482.2018432617	0.0002356037
484.1306506348	0.0004280808
486.0594580078	0.0004011985
487.9882653809	0.0002387636
489.9170727539	0.0002321560
491.8458801270	0.0001694616
493.7746875000	0.0000752326
495.7034948730	0.0002068947
497.6323022461	0.0001946412
499.5611096191	0.0002271626
501.4899169922	0.0002314280
503.4187243652	0.0001403611
505.3475317383	0.0003249967
507.2763391113	0.0001422176
509.2051464844	0.0001380358
511.1339538574	0.0001873575
513.0627612305	-0.0001234332
514.9915686035	0.0002844622
516.9203759766	0.0005044935
518.8491833496	0.0002537273
520.7779907227	0.0003407679
522.7067980957	0.0004402032
524.6356054688	0.0002857869
526.5644128418	0.0002775611
528.4932202148	0.0003928074
530.4220275879	0.0002932361
532.3508349609	0.0003855494
534.2796423340	0.0002370842
536.2084497070	0.0002894554
538.1372570801	0.0005489141
540.0660644531	0.0000449498
541.9948718262	0.0000986026
543.9236791992	0.0003980146
545.8524865723	0.0004236631
547.7812939453	0.0004500980
549.7101013184	0.0001664766
551.6389086914	0.0002031618
553.5677160645	0.0001379359
555.4965234375	0.0000478124
557.4253308105	0.0001403435
559.3541381836	0.0001859565
561.2829455566	0.0003103589
563.2117529297	0.0003033880
565.1405603027	0.0003797043
567.0693676758	0.0003858722
568.9981750488	0.0003989025
570.9269824219	0.0003739267
572.8557897949	0.0002272776
574.7845971680	0.0004137787
576.7134045410	0.0005798038
578.6422119141	0.0002707958
580.5710192871	0.0001113938
582.4998266602	0.0004049789
584.4286340332	0.0002449472
586.3574414063	0.0002168877
588.2862487793	0.0003239514
590.2150561523	-0.0000178876
592.1438635254	0.0002758147
594.0726708984	0.0003514879
596.0014782715	0.0001808272
597.9302856445	0.0005196096
599.8590930176	0.0004627436
601.7879003906	0.0004571072
603.7167077637	0.0003883056
605.6455151367	0.0002031119
607.5743225098	0.0004450950
609.5031298828	0.0003489534
611.4319372559	0.0000826898
613.3607446289	0.0001787642
615.2895520020	0.0002781705
617.2183593750	0.0002812625
619.1471667480	0.0005297476
621.0759741211	0.0005707641
623.0047814941	0.0003537773
624.9335888672	0.0005175277
626.8623962402	0.0004135553
628.7912036133	0.0003142614
630.7200109863	0.0005088709
632.6488183594	0.0004218924
634.5776257324	0.0001826730
636.5064331055	0.0000228713
638.4352404785	0.0002260350
640.3640478516	0.0003434473
642.2928552246	0.0005512276
644.2216625977	0.0005408860
646.1504699707	0.0002696208
648.0792773438	0.0006166337
650.0080847168	0.0006154994
651.9368920898	0.0006140072
653.8656994629	0.0007104020
655.7945068359	0.0005781283
657.7233142090	0.0004727672
659.6521215820	0.0002015709
661.5809289551	0.0003400098
663.5097363281	0.0002460024
665.4385437012	0.0003073543
667.3673510742	0.0005431962
669.2961584473	0.0004390323
671.2249658203	0.0004802394
673.1537731934	0.0004218327
675.0825805664	0.0006223067
677.0113879395	0.0004605688
678.9401953125	0.0003856994
680.8690026855	0.0004892871
682.7978100586	0.0004308888
684.7266174316	0.0006744153
686.6554248047	0.0003449533
688.5842321777	0.0003869809
690.5130395508	0.0005968047
692.4418469238	0.0007381643
694.3706542969	0.0008759977
696.2994616699	0.0004474607
698.2282690430	0.0005828901
700.1570764160	0.0006496311
702.0858837891	0.0006689708
704.0146911621	0.0008029328
705.9434985352	0.0006326832
707.8723059082	0.0005549246
709.8011132813	0.0005005288
711.7299206543	0.0005619468
713.6587280273	0.0003345355
715.5875354004	0.0004459154
717.5163427734	0.0007110700
719.4451501465	0.0004607426
721.3739575195	0.0004380168
723.3027648926	0.0004604000
725.2315722656	0.0004773668
727.1603796387	0.0004500161
729.0891870117	0.0004413317
731.0179943848	0.0005637038
732.9468017578	0.0004897146
734.8756091309	0.0004612912
736.8044165039	0.0004686835
738.7332238770	0.0003548216
740.6620312500	0.0004611858
742.5908386230	0.0006144294
744.5196459961	0.0004439839
746.4484533691	0.0005004090
748.3772607422	0.0006025456
750.3060681152	0.0004498493
752.2348754883	0.0004407322
754.1636828613	0.0004229099
756.0924902344	0.0004464645
758.0212976074	0.0004902260
759.9501049805	0.0006135912
761.8789123535	0.0006121148
763.8077197266	0.0003977038
765.7365270996	0.0004580753
767.6653344727	0.0004721017
769.5941418457	0.0004787609
771.5229492188	0.0005746718
773.4517565918	0.0005711925
775.3805639648	0.0004575740
777.3093713379	0.0004217595
779.2381787109	0.0006511909
781.1669860840	0.0005696986
783.0957934570	0.0005858167
785.0246008301	0.0007308269
786.9534082031	0.0005191350
788.8822155762	0.0005400442
790.8110229492	0.0005207438
792.7398303223	0.0004144650
794.6686376953	0.0004097769
796.5974450684	0.0004751832
798.5262524414	0.0006109428
800.4550598145	0.0004689210
802.3838671875	0.0004190547
804.3126745605	0.0005117468
806.2414819336	0.0006357047
808.1702893066	0.0007006208
810.0990966797	0.0005745207
812.0279040527	0.0005259154
813.9567114258	0.0004652120
815.8855187988	0.0005460536
817.8143261719	0.0006448572
819.7431335449	0.0005871850
821.6719409180	0.0005315917
823.6007482910	0.0004528504
825.5295556641	0.0005462758
827.4583630371	0.0006098856
829.3871704102	0.0005201532
831.3159777832	0.0006369737
833.2447851563	0.0006995131
835.1735925293	0.0005276059
837.1023999023	0.0006252846
839.0312072754	0.0007284106
840.9600146484	0.0006422778
842.8888220215	0.0006300875
844.8176293945	0.0005600782
846.7464367676	0.0006238502
848.6752441406	0.0006796923
850.6040515137	0.0007115961
852.5328588867	0.0007850220
854.4616662598	0.0007392709
856.3904736328	0.0006288682
858.3192810059	0.0005632093
860.2480883789	0.0008062692
862.1768957520	0.0007522444
864.1057031250	0.0006665189
866.0345104980	0.0008122693
867.9633178711	0.0006551484
869.8921252441	0.0008542254
871.8209326172	0.0008315279
873.7497399902	0.0005210627
875.6785473633	0.0007407477
877.6073547363	0.0008111347
879.5361621094	0.0008478473
881.4649694824	0.0009907726
883.3937768555	0.0008993582
885.3225842285	0.0009008595
887.2513916016	0.0009804741
889.1801989746	0.0010928567
891.1090063477	0.0011953396
893.0378137207	0.0012154266
894.9666210938	0.0013858608
896.8954284668	0.0014737645
898.8242358398	0.0015972171
900.7530432129	0.0016485695
902.6818505859	0.0015171171
904.6106579590	0.0014992515
906.5394653320	0.0013537989
908.4682727051	0.0015854290
910.3970800781	0.0015753903
912.3258874512	0.0012699713
914.2546948242	0.0014549659
916.1835021973	0.0014870409
918.1123095703	0.0016637789
920.0411169434	0.0014635001
921.9699243164	0.0013420342
923.8987316895	0.0016123807
925.8275390625	0.0013743315
927.7563464355	0.0015467168
929.6851538086	0.0017607736
931.6139611816	0.0017847614
933.5427685547	0.0016962108
935.4715759277	0.0017878667
937.4003833008	0.0020398141
939.3291906738	0.0017329371
941.2579980469	0.0016619521
943.1868054199	0.0014436473
945.1156127930	0.0014486042
947.0444201660	0.0014915975
948.9732275391	0.0012899896
950.9020349121	0.0016409219
952.8308422852	0.0013569125
954.7596496582	0.0012276408
956.6884570313	0.0012597344
958.6172644043	0.0010851182
960.5460717773	0.0013413989
962.4748791504	0.0010839790
964.4036865234	0.0010071746
966.3324938965	0.0011641335
968.2613012695	0.0012274216
970.1901086426	0.0012338611
972.1189160156	0.0010925174
974.0477233887	0.0012367272
975.9765307617	0.0009835260
977.9053381348	0.0009571620
979.8341455078	0.0012252349
981.7629528809	0.0010700816
983.6917602539	0.0011067841
985.6205676270	0.0010106743
987.5493750000	0.0010170584
989.4781823730	0.0012055372
991.4069897461	0.0009668786
993.3357971191	0.0009048314
995.2646044922	0.0009198864
997.1934118652	0.0007395711
999.1222192383	0.0009208162
1001.0510266113	0.0010733033
1002.9798339844	0.0010173471
1004.9086413574	0.0010284684
1006.8374487305	0.0008244312
1008.7662561035	0.0008676191
1010.6950634766	0.0011045280
1012.6238708496	0.0010966600
1014.5526782227	0.0011985118
1016.4814855957	0.0010522087
1018.4102929688	0.0009085353
1020.3391003418	0.0011254029
1022.2679077148	0.0010626907
1024.1967150879	0.0010237190
1026.1255224609	0.0010953958
1028.0543298340	0.0010903969
1029.9831372070	0.0012157606
1031.9119445801	0.0010819758
1033.8407519531	0.0010994724
1035.7695593262	0.0012733568
1037.6983666992	0.0011372417
1039.6271740723	0.0012285938
1041.5559814453	0.0012040983
1043.4847888184	0.0012061293
1045.4135961914	0.0013936071
1047.3424035645	0.0012989406
1049.2712109375	0.0013154498
1051.2000183105	0.0011847955
1053.1288256836	0.0011166721
1055.0576330566	0.0012303758
1056.9864404297	0.0012289366
1058.9152478027	0.0012208864
1060.8440551758	0.0009995351
1062.7728625488	0.0010756943
1064.7016699219	0.0011422317
1066.6304772949	0.0010200044
1068.5592846680	0.0012157533
1070.4880920410	0.0012616825
1072.4168994141	0.0011476411
1074.3457067871	0.0010945589
1076.2745141602	0.0011126500
1078.2033215332	0.0010893974
1080.1321289062	0.0010321565
1082.0609362793	0.0010361315
1083.9897436523	0.0011194298
1085.9185510254	0.0011507941
1087.8473583984	0.0010432705
1089.7761657715	0.0011294287
1091.7049731445	0.0011767638
1093.6337805176	0.0013082203
1095.5625878906	0.0014259716
1097.4913952637	0.0013171390
1099.4202026367	0.0014804230
1101.3490100098	0.0015178844
1103.2778173828	0.0013634047
1105.2066247559	0.0012393410
1107.1354321289	0.0013360472
1109.0642395019	0.0014240895
1110.9930468750	0.0012080333
1112.9218542480	0.0012898392
1114.8506616211	0.0012411396
1116.7794689941	0.0011195585
1118.7082763672	0.0011394718
1120.6370837402	0.0011041574
1122.5658911133	0.0012121641
1124.4946984863	0.0010083679
1126.4235058594	0.0009818977
1128.3523132324	0.0011151510
1130.2811206055	0.0011146080
1132.2099279785	0.0012930594
1134.1387353516	0.0010747204
1136.0675427246	0.0010007796
1137.9963500977	0.0011064365
1139.9251574707	0.0008837096
1141.8539648437	0.0009339306
1143.7827722168	0.0009545876
1145.7115795898	0.0009877438
1147.6403869629	0.0011225401
1149.5691943359	0.0009829822
1151.4980017090	0.0009794018
1153.4268090820	0.0010478178
1155.3556164551	0.0010852296
1157.2844238281	0.0011086762
1159.2132312012	0.0010559694
1161.1420385742	0.0011723405
1163.0708459473	0.0012303620
1164.9996533203	0.0011678843
1166.9284606934	0.0012146591
1168.8572680664	0.0013018185
1170.7860754394	0.0012828726
1172.7148828125	0.0011936631
1174.6436901855	0.0012126346
1176.5724975586	0.0013183693
1178.5013049316	0.0014430624
1180.4301123047	0.0015263094
1182.3589196777	0.0015111309
1184.2877270508	0.0014893587
1186.2165344238	0.0015281896
1188.1453417969	0.0015409235
1190.0741491699	0.0015820571
1192.0029565430	0.0016854763
1193.9317639160	0.0016948858
1195.8605712891	0.0017513181
1197.7893786621	0.0018758291
1199.7181860351	0.0019291569
1201.6469934082	0.0019059635
1203.5758007812	0.0019136559
1205.5046081543	0.0020591610
1207.4334155273	0.0020658162
1209.3622229004	0.0020595496
1211.2910302734	0.0022121784
1213.2198376465	0.0022779270
1215.1486450195	0.0023917232
1217.0774523926	0.0024414985
1219.0062597656	0.0023304890
1220.9350671387	0.0023797282
1222.8638745117	0.0025332891
1224.7926818848	0.0026056333
1226.7214892578	0.0024558250
1228.6502966308	0.0023552086
1230.5791040039	0.0025978333
1232.5079113769	0.0026869695
1234.4367187500	0.0026801459
1236.3655261230	0.0025838339
1238.2943334961	0.0023510184
1240.2231408691	0.0024502142
1242.1519482422	0.0024091599
1244.0807556152	0.0024039196
1246.0095629883	0.0026087670
1247.9383703613	0.0025147013
1249.8671777344	0.0024448684
1251.7959851074	0.0025242276
1253.7247924805	0.0025685402
1255.6535998535	0.0024007214
1257.5824072266	0.0023687799
1259.5112145996	0.0023414893
1261.4400219726	0.0021911594
1263.3688293457	0.0023640022
1265.2976367187	0.0023694618
1267.2264440918	0.0023757773
1269.1552514648	0.0023354716
1271.0840588379	0.0022533983
1273.0128662109	0.0024216999
1274.9416735840	0.0022721076
1276.8704809570	0.0022426150
1278.7992883301	0.0022767526
1280.7280957031	0.0021875354
1282.6569030762	0.0022740508
1284.5857104492	0.0021746526
1286.5145178223	0.0020707066
1288.4433251953	0.0020366167
1290.3721325683	0.0020196841
1292.3009399414	0.0020770039
1294.2297473144	0.0020950153
1296.1585546875	0.0020700172
1298.0873620605	0.0019746353
1300.0161694336	0.0020624101
1301.9449768066	0.0019770744
1303.8737841797	0.0017384468
1305.8025915527	0.0021246271
1307.7313989258	0.0021810075
1309.6602062988	0.0019526653
1311.5890136719	0.0022640475
1313.5178210449	0.0022094722
1315.4466284180	0.0020755329
1317.3754357910	0.0021439269
1319.3042431640	0.0022300775
1321.2330505371	0.0023954390
1323.1618579101	0.0023872936
1325.0906652832	0.0024773404
1327.0194726562	0.0024716486
1328.9482800293	0.0025820467
1330.8770874023	0.0026606331
1332.8058947754	0.0025443460
1334.7347021484	0.0027490698
1336.6635095215	0.0027393498
1338.5923168945	0.0027529604
1340.5211242676	0.0028533377
1342.4499316406	0.0027990893
1344.3787390137	0.0029188325
1346.3075463867	0.0029461067
1348.2363537597	0.0029105097
1350.1651611328	0.0028660125
1352.0939685058	0.0028354106
1354.0227758789	0.0027720653
1355.9515832519	0.0026845566
1357.8803906250	0.0027738698
1359.8091979980	0.0027942413
1361.7380053711	0.0026469945
1363.6668127441	0.0025173519
1365.5956201172	0.0026431354
1367.5244274902	0.0027315370
1369.4532348633	0.0026063900
1371.3820422363	0.0027051386
1373.3108496094	0.0026315602
1375.2396569824	0.0024189886
1377.1684643555	0.0026197745
1379.0972717285	0.0026033004
1381.0260791015	0.0024885901
1382.9548864746	0.0026744511
1384.8836938476	0.0026442748
1386.8125012207	0.0025047632
1388.7413085937	0.0026245494
1390.6701159668	0.0028047804
1392.5989233398	0.0024297689
1394.5277307129	0.0022316515
1396.4565380859	0.0026402208
1398.3853454590	0.0025954847
1400.3141528320	0.0025349488
1402.2429602051	0.0026899581
1404.1717675781	0.0027222994
1406.1005749512	0.0027010972
1408.0293823242	0.0026711300
1409.9581896972	0.0028508538
1411.8869970703	0.0027733992
1413.8158044433	0.0026524062
1415.7446118164	0.0026932992
1417.6734191894	0.0024076682
1419.6022265625	0.0023477958
1421.5310339355	0.0025893520
1423.4598413086	0.0024588758
1425.3886486816	0.0024423150
1427.3174560547	0.0025836646
1429.2462634277	0.0023233788
1431.1750708008	0.0023270841
1433.1038781738	0.0024534892
1435.0326855469	0.0021902383
1436.9614929199	0.0020486200
1438.8903002929	0.0022595609
1440.8191076660	0.0023172018
1442.7479150390	0.0019961400
1444.6767224121	0.0020628248
1446.6055297851	0.0022478350
1448.5343371582	0.0020813714
1450.4631445312	0.0020581707
1452.3919519043	0.0022142220
1454.3207592773	0.0021965739
1456.2495666504	0.0019677039
1458.1783740234	0.0019891944
1460.1071813965	0.0021891627
1462.0359887695	0.0024297107
1463.9647961426	0.0025632353
1465.8936035156	0.0025428366
1467.8224108886	0.0028117541
1469.7512182617	0.0029412713
1471.6800256347	0.0027794922
1473.6088330078	0.0028159660
1475.5376403808	0.0030707372
1477.4664477539	0.0033473240
1479.3952551269	0.0034560384
1481.3240625000	0.0035182377
1483.2528698730	0.0036985110
1485.1816772461	0.0037271557
1487.1104846191	0.0037256165
1489.0392919922	0.0037728199
1490.9680993652	0.0037259448
1492.8969067383	0.0041529816
1494.8257141113	0.0041816882
1496.7545214843	0.0037622242
1498.6833288574	0.0041089309
1500.6121362304	0.0042692274
1502.5409436035	0.0045458609
1504.4697509765	0.0044411258
1506.3985583496	0.0035248911
1508.3273657226	0.0040246379
1510.2561730957	0.0045667151
1512.1849804687	0.0044123214
1514.1137878418	0.0046336045
1516.0425952148	0.0044775419
1517.9714025879	0.0045647565
1519.9002099609	0.0043987678
1521.8290173340	0.0040812045
1523.7578247070	0.0045012925
1525.6866320801	0.0044661444
1527.6154394531	0.0044651981
1529.5442468261	0.0047388291
1531.4730541992	0.0047009988
1533.4018615722	0.0044181505
1535.3306689453	0.0045626028
1537.2594763183	0.0047527589
1539.1882836914	0.0038472693
1541.1170910644	0.0039933720
1543.0458984375	0.0044752844
1544.9747058105	0.0042778859
1546.9035131836	0.0046888571
1548.8323205566	0.0044887825
1550.7611279297	0.0046041752
1552.6899353027	0.0045968578
1554.6187426758	0.0044232751
1556.5475500488	0.0046341834
1558.4763574218	0.0036159265
1560.4051647949	0.0039329454
1562.3339721679	0.0049162311
1564.2627795410	0.0044942354
1566.1915869140	0.0046583442
1568.1203942871	0.0046864972
1570.0492016601	0.0043133078
1571.9780090332	0.0047528055
1573.9068164062	0.0047723148
1575.8356237793	0.0041296175
1577.7644311523	0.0042609014
1579.6932385254	0.0045548631
1581.6220458984	0.0046798429
1583.5508532715	0.0047827559
1585.4796606445	0.0046120109
1587.4084680175	0.0047004763
1589.3372753906	0.0047582109
1591.2660827636	0.0047315797
1593.1948901367	0.0046465909
1595.1236975097	0.0046487646
1597.0525048828	0.0047183130
1598.9813122558	0.0046684444
1600.9101196289	0.0047217412
1602.8389270019	0.0045726513
1604.7677343750	0.0046992637
1606.6965417480	0.0046928911
1608.6253491211	0.0044800560
1610.5541564941	0.0045977426
1612.4829638672	0.0046936413
1614.4117712402	0.0046225050
1616.3405786132	0.0041495049
1618.2693859863	0.0044283262
1620.1981933593	0.0048253462
1622.1270007324	0.0044482169
1624.0558081054	0.0045406409
1625.9846154785	0.0047046700
1627.9134228515	0.0046748128
1629.8422302246	0.0047465097
1631.7710375976	0.0049395254
1633.6998449707	0.0047056549
1635.6286523437	0.0043357364
1637.5574597168	0.0046897135
1639.4862670898	0.0049237944
1641.4150744629	0.0049268408
1643.3438818359	0.0049564857
1645.2726892090	0.0045785899
1647.2014965820	0.0042644446
1649.1303039550	0.0049894638
1651.0591113281	0.0049317256
1652.9879187011	0.0037840421
1654.9167260742	0.0044893227
1656.8455334472	0.0052855290
1658.7743408203	0.0051063620
1660.7031481933	0.0051908689
1662.6319555664	0.0049277321
1664.5607629394	0.0051537771
1666.4895703125	0.0054307440
1668.4183776855	0.0049552186
1670.3471850586	0.0049441336
1672.2759924316	0.0054339292
1674.2047998047	0.0051917527
1676.1336071777	0.0050922041
1678.0624145507	0.0055273129
1679.9912219238	0.0053307982
1681.9200292968	0.0053544911
1683.8488366699	0.0046800659
1685.7776440429	0.0045495611
1687.7064514160	0.0056344979
1689.6352587890	0.0051062740
1691.5640661621	0.0054136664
1693.4928735351	0.0054873051
1695.4216809082	0.0045840186
1697.3504882812	0.0052224603
1699.2792956543	0.0046939813
1701.2081030273	0.0044724410
1703.1369104004	0.0053811735
1705.0657177734	0.0052167550
1706.9945251464	0.0052145361
1708.9233325195	0.0052826512
1710.8521398925	0.0052429819
1712.7809472656	0.0053329887
1714.7097546386	0.0051979609
1716.6385620117	0.0046995301
1718.5673693847	0.0047069681
1720.4961767578	0.0054804711
1722.4249841308	0.0052848179
1724.3537915039	0.0050288253
1726.2825988769	0.0053129056
1728.2114062500	0.0049632252
1730.1402136230	0.0051206714
1732.0690209961	0.0049538873
1733.9978283691	0.0040454743
1735.9266357421	0.0046961196
1737.8554431152	0.0051343217
1739.7842504882	0.0046232720
1741.7130578613	0.0049541942
1743.6418652343	0.0051432489
1745.5706726074	0.0050817989
1747.4994799804	0.0051572993
1749.4282873535	0.0049652280
1751.3570947265	0.0047529098
1753.2859020996	0.0051835091
1755.2147094726	0.0053238347
1757.1435168457	0.0049398760
1759.0723242187	0.0053390511
1761.0011315918	0.0049979948
1762.9299389648	0.0048438613
1764.8587463379	0.0053210501
1766.7875537109	0.0047952496
1768.7163610839	0.0050558252
1770.6451684570	0.0051766168
1772.5739758300	0.0046766694
1774.5027832031	0.0049704248
1776.4315905761	0.0052244109
1778.3603979492	0.0051495126
1780.2892053222	0.0050818892
1782.2180126953	0.0051342202
1784.1468200683	0.0050092926
1786.0756274414	0.0049297735
1788.0044348144	0.0050924746
1789.9332421875	0.0052033961
1791.8620495605	0.0049953600
1793.7908569336	0.0048875283
1795.7196643066	0.0050684027
1797.6484716796	0.0050001289
1799.5772790527	0.0051213447
1801.5060864257	0.0051721036
1803.4348937988	0.0052133547
1805.3637011718	0.0052400380
1807.2925085449	0.0051913243
1809.2213159179	0.0053144116
1811.1501232910	0.0050473735
1813.0789306640	0.0051904880
1815.0077380371	0.0052742395
1816.9365454101	0.0050530909
1818.8653527832	0.0051294751
1820.7941601562	0.0051898202
1822.7229675293	0.0052210335
1824.6517749023	0.0049130786
1826.5805822753	0.0050685480
1828.5093896484	0.0051278910
1830.4381970214	0.0049511855
1832.3670043945	0.0051897755
1834.2958117675	0.0050996318
1836.2246191406	0.0051704701
1838.1534265136	0.0052014953
1840.0822338867	0.0052469913
1842.0110412597	0.0050225421
1843.9398486328	0.0046224077
1845.8686560058	0.0050410908
1847.7974633789	0.0051148231
1849.7262707519	0.0050044861
1851.6550781250	0.0051219324
1853.5838854980	0.0050706477
1855.5126928710	0.0050584674
1857.4415002441	0.0049584950
1859.3703076171	0.0049818219
1861.2991149902	0.0050788000
1863.2279223632	0.0050817644
1865.1567297363	0.0049589574
1867.0855371093	0.0047784820
1869.0143444824	0.0047748294
1870.9431518554	0.0049310331
1872.8719592285	0.0050019375
1874.8007666015	0.0049548382
1876.7295739746	0.0049809748
1878.6583813476	0.0049460763
1880.5871887207	0.0049679726
1882.5159960937	0.0049634390
1884.4448034667	0.0048585199
1886.3736108398	0.0049152169
1888.3024182128	0.0048505673
1890.2312255859	0.0047994666
1892.1600329589	0.0048651276
1894.0888403320	0.0048418962
1896.0176477050	0.0048948638
1897.9464550781	0.0048299050
1899.8752624511	0.0048491163
1901.8040698242	0.0049401978
1903.7328771972	0.0047340123
1905.6616845703	0.0047637802
1907.5904919433	0.0047945357
1909.5192993164	0.0047117197
1911.4481066894	0.0048140613
1913.3769140625	0.0047901873
1915.3057214355	0.0048009176
1917.2345288085	0.0047695907
1919.1633361816	0.0048132464
1921.0921435546	0.0047643995
1923.0209509277	0.0046391040
1924.9497583007	0.0048605977
1926.8785656738	0.0048047258
1928.8073730468	0.0047782287
1930.7361804199	0.0048063518
1932.6649877929	0.0046998304
1934.5937951660	0.0047380952
1936.5226025390	0.0046137720
1938.4514099121	0.0047245747
1940.3802172851	0.0048259767
1942.3090246582	0.0047204695
1944.2378320312	0.0047233216
1946.1666394042	0.0047703926
1948.0954467773	0.0048682056
1950.0242541503	0.0047925124
1951.9530615234	0.0047592157
1953.8818688964	0.0047181826
1955.8106762695	0.0046341210
1957.7394836425	0.0046760915
1959.6682910156	0.0046653952
1961.5970983886	0.0045824666
1963.5259057617	0.0045613162
1965.4547131347	0.0046623633
1967.3835205078	0.0046021934
1969.3123278808	0.0047645047
1971.2411352539	0.0048468355
1973.1699426269	0.0045789103
1975.0987499999	0.0046757851
1977.0275573730	0.0046351408
1978.9563647460	0.0046162768
1980.8851721191	0.0046417406
1982.8139794921	0.0045475652
1984.7427868652	0.0047326013
1986.6715942382	0.0045807557
1988.6004016113	0.0044977567
1990.5292089843	0.0045636995
1992.4580163574	0.0045187557
1994.3868237304	0.0047137877
1996.3156311035	0.0045631872
1998.2444384765	0.0044639213
2000.1732458496	0.0046184002
2002.1020532226	0.0044430587
2004.0308605956	0.0044281920
2005.9596679687	0.0045436411
2007.8884753417	0.0044923723
2009.8172827148	0.0045641232
2011.7460900878	0.0046057655
2013.6748974609	0.0044788541
2015.6037048339	0.0044094305
2017.5325122070	0.0044854707
2019.4613195800	0.0044501303
2021.3901269531	0.0043188687
2023.3189343261	0.0044498518
2025.2477416992	0.0044005653
2027.1765490722	0.0042576957
2029.1053564453	0.0044164136
2031.0341638183	0.0044427584
2032.9629711914	0.0044295294
2034.8917785644	0.0043429732
2036.8205859374	0.0043363273
2038.7493933105	0.0044565368
2040.6782006835	0.0043673543
2042.6070080566	0.0043030600
2044.5358154296	0.0041971761
2046.4646228027	0.0042272182
2048.3934301757	0.0042597800
2050.3222375488	0.0043484345
2052.2510449218	0.0045210924
2054.1798522949	0.0042151110
2056.1086596679	0.0041760486
2058.0374670410	0.0042108102
2059.9662744140	0.0040864563
2061.8950817871	0.0043331003
2063.8238891601	0.0042870669
2065.7526965331	0.0041938755
2067.6815039062	0.0042776763
2069.6103112792	0.0041645225
2071.5391186523	0.0041818372
2073.4679260253	0.0042414879
2075.3967333984	0.0041522235
2077.3255407714	0.0041648299
2079.2543481445	0.0041824672
2081.1831555175	0.0042024208
2083.1119628906	0.0042883232
2085.0407702636	0.0041358876
2086.9695776367	0.0041106199
2088.8983850097	0.0042220149
2090.8271923828	0.0041132895
2092.7559997558	0.0041099205
2094.6848071288	0.0041316217
2096.6136145019	0.0040644677
2098.5424218749	0.0040466124
2100.4712292480	0.0041189971
2102.4000366210	0.0040984517
2104.3288439941	0.0040412149
2106.2576513671	0.0041754860
2108.1864587402	0.0042207669
2110.1152661132	0.0042143962
2112.0440734863	0.0040984610
2113.9728808593	0.0039740996
2115.9016882324	0.0041105105
2117.8304956054	0.0041389512
2119.7593029785	0.0041030846
2121.6881103515	0.0040414170
2123.6169177245	0.0040646093
2125.5457250976	0.0041751312
2127.4745324706	0.0040298318
2129.4033398437	0.0040471517
2131.3321472167	0.0040792609
2133.2609545898	0.0039877258
2135.1897619628	0.0040774536
2137.1185693359	0.0040177479
2139.0473767089	0.0040240404
2140.9761840820	0.0040358370
2142.9049914550	0.0039462727
2144.8337988281	0.0040254956
2146.7626062011	0.0039970693
2148.6914135742	0.0040157204
2150.6202209472	0.0040457905
2152.5490283203	0.0040261727
2154.4778356933	0.0040294351
2156.4066430663	0.0039509460
2158.3354504394	0.0039745374
2160.2642578124	0.0039122817
2162.1930651855	0.0039319699
2164.1218725585	0.0040263953
2166.0506799316	0.0039790804
2167.9794873046	0.0039873440
2169.9082946777	0.0039253384
2171.8371020507	0.0038740598
2173.7659094238	0.0038351058
2175.6947167968	0.0039179018
2177.6235241699	0.0039745895
2179.5523315429	0.0038164314
2181.4811389160	0.0039070733
2183.4099462890	0.0039153616
2185.3387536620	0.0038053426
2187.2675610351	0.0039157444
2189.1963684081	0.0039169397
2191.1251757812	0.0039436780
2193.0539831542	0.0039866255
2194.9827905273	0.0038785408
2196.9115979003	0.0039358246
2198.8404052734	0.0038778768
2200.7692126464	0.0037271813
2202.6980200195	0.0038631661
2204.6268273925	0.0039051929
2206.5556347656	0.0038965680
2208.4844421386	0.0038648807
2210.4132495117	0.0038544391
2212.3420568847	0.0039047392
2214.2708642577	0.0038172230
2216.1996716308	0.0039191199
2218.1284790038	0.0039304877
2220.0572863769	0.0038915444
2221.9860937499	0.0038718041
2223.9149011230	0.0037242433
2225.8437084960	0.0038160845
2227.7725158691	0.0038186251
2229.7013232421	0.0037993803
2231.6301306152	0.0037675430
2233.5589379882	0.0036688480
2235.4877453613	0.0037138006
2237.4165527343	0.0037226635
2239.3453601074	0.0037436541
2241.2741674804	0.0037143440
2243.2029748534	0.0037900084
2245.1317822265	0.0037395400
2247.0605895995	0.0036570528
2248.9893969726	0.0038080353
2250.9182043456	0.0037317018
2252.8470117187	0.0037155210
2254.7758190917	0.0037006596
2256.7046264648	0.0036535731
2258.6334338378	0.0037382455
2260.5622412109	0.0037427726
2262.4910485839	0.0037449535
2264.4198559570	0.0036401271
2266.3486633300	0.0036488096
2268.2774707031	0.0037097801
2270.2062780761	0.0036289496
2272.1350854491	0.0036434419
2274.0638928222	0.0036250283
2275.9927001952	0.0036094673
2277.9215075683	0.0036563629
2279.8503149413	0.0036252821
2281.7791223144	0.0036127840
2283.7079296874	0.0035386689
2285.6367370605	0.0035150156
2287.5655444335	0.0036721495
2289.4943518066	0.0035325415
2291.4231591796	0.0035054625
2293.3519665527	0.0036282386
2295.2807739257	0.0034526046
2297.2095812988	0.0036002235
2299.1383886718	0.0036713346
2301.0671960449	0.0035369089
2302.9960034179	0.0035145790
2304.9248107909	0.0034148847
2306.8536181640	0.0034802407
2308.7824255370	0.0034390404
2310.7112329101	0.0033881776
2312.6400402831	0.0034248370
2314.5688476562	0.0033617178
2316.4976550292	0.0032522492
2318.4264624023	0.0031886611
2320.3552697753	0.0033436974
2322.2840771484	0.0032785987
2324.2128845214	0.0031621312
2326.1416918945	0.0032210432
2328.0704992675	0.0031494116
2329.9993066406	0.0030435217
2331.9281140136	0.0029906845
2333.8569213866	0.0030147848
2335.7857287597	0.0030472530
2337.7145361327	0.0030791333
2339.6433435058	0.0030229450
2341.5721508788	0.0030852468
2343.5009582519	0.0031166340
2345.4297656249	0.0030408374
2347.3585729980	0.0033460073
2349.2873803710	0.0033909043
2351.2161877441	0.0031752191
2353.1449951171	0.0031385380
2355.0738024902	0.0030578834
2357.0026098632	0.0029738266
2358.9314172363	0.0028612576
2360.8602246093	0.0028487956
2362.7890319823	0.0028483025
2364.7178393554	0.0028782380
2366.6466467284	0.0028903494
2368.5754541015	0.0028631666
2370.5042614745	0.0030470612
2372.4330688476	0.0031380928
2374.3618762206	0.0031469283
2376.2906835937	0.0031604022
2378.2194909667	0.0031512973
2380.1482983398	0.0032296467
2382.0771057128	0.0033518677
2384.0059130859	0.0034078695
2385.9347204589	0.0034094397
2387.8635278320	0.0034455676
2389.7923352050	0.0033557178
2391.7211425780	0.0033579944
2393.6499499511	0.0033807396
2395.5787573241	0.0033180029
2397.5075646972	0.0033395775
2399.4363720702	0.0032453535
2401.3651794433	0.0032729842
2403.2939868163	0.0032922397
2405.2227941894	0.0032661296
2407.1516015624	0.0033352878
2409.0804089355	0.0033460555
2411.0092163085	0.0034753832
2412.9380236816	0.0034234421
2414.8668310546	0.0033107861
2416.7956384277	0.0033860770
2418.7244458007	0.0033669057
2420.6532531738	0.0032593973
2422.5820605468	0.0032019177
2424.5108679198	0.0032839202
2426.4396752929	0.0032738287
2428.3684826659	0.0032662079
2430.2972900390	0.0032600709
2432.2260974120	0.0031315368
2434.1549047851	0.0031691971
2436.0837121581	0.0031973862
2438.0125195312	0.0032252381
2439.9413269042	0.0032547703
2441.8701342773	0.0031775837
2443.7989416503	0.0032405502
2445.7277490234	0.0032435311
2447.6565563964	0.0031633810
2449.5853637695	0.0031658481
2451.5141711425	0.0030954452
2453.4429785155	0.0031138510
2455.3717858886	0.0032315541
2457.3005932616	0.0031437634
2459.2294006347	0.0031294602
2461.1582080077	0.0033096024
2463.0870153808	0.0032444792
2465.0158227538	0.0031299917
2466.9446301269	0.0031641629
2468.8734374999	0.0031394046
2470.8022448730	0.0031669531
2472.7310522460	0.0031631119
2474.6598596191	0.0031078481
2476.5886669921	0.0031936625
2478.5174743652	0.0032328868
2480.4462817382	0.0031414535
2482.3750891112	0.0030987067
2484.3038964843	0.0030755815
2486.2327038573	0.0029951469
2488.1615112304	0.0030291325
2490.0903186034	0.0031380146
2492.0191259765	0.0031456542
2493.9479333495	0.0030968743
2495.8767407226	0.0030636829
2497.8055480956	0.0031034516
2499.7343554687	0.0030984238
2501.6631628417	0.0031148707
2503.5919702148	0.0031244941
2505.5207775878	0.0030174414
2507.4495849609	0.0031008776
2509.3783923339	0.0030745431
2511.3071997069	0.0029118326
2513.2360070800	0.0030469291
2515.1648144530	0.0031074728
2517.0936218261	0.0030737522
2519.0224291991	0.0030705677
2520.9512365722	0.0029950729
2522.8800439452	0.0030073104
2524.8088513183	0.0029020833
2526.7376586913	0.0029014964
2528.6664660644	0.0031517223
2530.5952734374	0.0030387095
2532.5240808105	0.0029567713
2534.4528881835	0.0030808633
2536.3816955566	0.0029319022
2538.3105029296	0.0029178490
2540.2393103027	0.0029851524
2542.1681176757	0.0028451981
2544.0969250487	0.0027968893
2546.0257324218	0.0029447831
2547.9545397948	0.0030489874
2549.8833471679	0.0030041286
2551.8121545409	0.0030110609
2553.7409619140	0.0029887655
2555.6697692870	0.0029112524
2557.5985766601	0.0028861524
2559.5273840331	0.0029670331
2561.4561914062	0.0030099307
2563.3849987792	0.0029217901
2565.3138061523	0.0029470981
2567.2426135253	0.0029347967
2569.1714208984	0.0029491330
2571.1002282714	0.0029002375
2573.0290356444	0.0027780437
2574.9578430175	0.0029209107
2576.8866503905	0.0029569969
2578.8154577636	0.0028885156
2580.7442651366	0.0028192019
2582.6730725097	0.0027966523
2584.6018798827	0.0028736843
2586.5306872558	0.0028430354
2588.4594946288	0.0028281324
2590.3883020019	0.0028684945
2592.3171093749	0.0028540047
2594.2459167480	0.0027696376
2596.1747241210	0.0029001506
2598.1035314941	0.0028891438
2600.0323388671	0.0026966119
2601.9611462401	0.0028262278
2603.8899536132	0.0028488897
2605.8187609862	0.0028267296
2607.7475683593	0.0027939235
2609.6763757323	0.0027915940
2611.6051831054	0.0028710456
2613.5339904784	0.0027839362
2615.4627978515	0.0027736588
2617.3916052245	0.0027617537
2619.3204125976	0.0028182354
2621.2492199706	0.0027898450
2623.1780273437	0.0027270024
2625.1068347167	0.0027494438
2627.0356420898	0.0027153031
2628.9644494628	0.0028469684
2630.8932568358	0.0027763597
2632.8220642089	0.0026985356
2634.7508715819	0.0027119217
2636.6796789550	0.0027421524
2638.6084863280	0.0028300362
2640.5372937011	0.0027135375
2642.4661010741	0.0027785744
2644.3949084472	0.0027568624
2646.3237158202	0.0027389769
2648.2525231933	0.0027700621
2650.1813305663	0.0025887443
2652.1101379394	0.0026557799
2654.0389453124	0.0026299122
2655.9677526855	0.0026034042
2657.8965600585	0.0027094907
2659.8253674315	0.0027108081
2661.7541748046	0.0027114181
2663.6829821776	0.0025636007
2665.6117895507	0.0025797002
2667.5405969237	0.0027731741
2669.4694042968	0.0027574627
2671.3982116698	0.0026681840
2673.3270190429	0.0026522342
2675.2558264159	0.0026374180
2677.1846337890	0.0026057765
2679.1134411620	0.0026341334
2681.0422485351	0.0026763538
2682.9710559081	0.0026499438
2684.8998632812	0.0026087388
2686.8286706542	0.0025779945
2688.7574780273	0.0026299658
2690.6862854003	0.0026709414
2692.6150927733	0.0025576730
2694.5439001464	0.0026106681
2696.4727075194	0.0026601544
2698.4015148925	0.0026087454
2700.3303222655	0.0025967271
2702.2591296386	0.0024858103
2704.1879370116	0.0026120180
2706.1167443847	0.0025716701
2708.0455517577	0.0024671974
2709.9743591308	0.0026763035
2711.9031665038	0.0025213864
2713.8319738769	0.0024578080
2715.7607812499	0.0025914537
2717.6895886230	0.0025564274
2719.6183959960	0.0026302482
2721.5472033690	0.0025845426
2723.4760107421	0.0024864436
2725.4048181151	0.0025587413
2727.3336254882	0.0025674016
2729.2624328612	0.0024902110
2731.1912402343	0.0024854150
2733.1200476073	0.0024737585
2735.0488549804	0.0024523390
2736.9776623534	0.0025268160
2738.9064697265	0.0025914148
2740.8352770995	0.0025473409
2742.7640844726	0.0025362680
2744.6928918456	0.0025718175
2746.6216992187	0.0025068959
2748.5505065917	0.0024640509
2750.4793139647	0.0024991431
2752.4081213378	0.0025716920
2754.3369287108	0.0024805856
2756.2657360839	0.0023348555
2758.1945434569	0.0024231481
2760.1233508300	0.0024713865
2762.0521582030	0.0025199817
2763.9809655761	0.0025271983
2765.9097729491	0.0024076500
2767.8385803222	0.0023965570
2769.7673876952	0.0024260313
2771.6961950683	0.0023909316
2773.6250024413	0.0023949509
2775.5538098144	0.0024494869
2777.4826171874	0.0024027536
2779.4114245604	0.0024234955
2781.3402319335	0.0024133064
2783.2690393065	0.0023940436
2785.1978466796	0.0023979270
2787.1266540526	0.0022719861
2789.0554614257	0.0023537199
2790.9842687987	0.0023900790
2792.9130761718	0.0023669312
2794.8418835448	0.0023843781
2796.7706909179	0.0023942920
2798.6994982909	0.0024335941
2800.6283056640	0.0023441361
2802.5571130370	0.0023678618
2804.4859204101	0.0022579459
2806.4147277831	0.0022407738
2808.3435351562	0.0023354357
2810.2723425292	0.0022692322
2812.2011499022	0.0023566489
2814.1299572753	0.0023514275
2816.0587646483	0.0023685666
2817.9875720214	0.0023226058
2819.9163793944	0.0023170286
2821.8451867675	0.0023352159
2823.7739941405	0.0022368487
2825.7028015136	0.0023023938
2827.6316088866	0.0021742247
2829.5604162597	0.0022220674
2831.4892236327	0.0022700788
2833.4180310058	0.0021638987
2835.3468383788	0.0022664075
2837.2756457519	0.0022128858
2839.2044531249	0.0021603657
2841.1332604979	0.0021217791
2843.0620678710	0.0022454767
2844.9908752440	0.0023075917
2846.9196826171	0.0020899489
2848.8484899901	0.0020445189
2850.7772973632	0.0021094331
2852.7061047362	0.0021884255
2854.6349121093	0.0021633392
2856.5637194823	0.0021704696
2858.4925268554	0.0021762233
2860.4213342284	0.0021450971
2862.3501416015	0.0021556544
2864.2789489745	0.0021202774
2866.2077563476	0.0021588623
2868.1365637206	0.0021185726
2870.0653710936	0.0021410957
2871.9941784667	0.0021005683
2873.9229858397	0.0019875630
2875.8517932128	0.0021080822
2877.7806005858	0.0021580236
2879.7094079589	0.0021228809
2881.6382153319	0.0020681079
2883.5670227050	0.0020909195
2885.4958300780	0.0021325960
2887.4246374511	0.0020708549
2889.3534448241	0.0020491756
2891.2822521972	0.0019983556
2893.2110595702	0.0020077904
2895.1398669433	0.0021417562
2897.0686743163	0.0021157935
2898.9974816893	0.0019194579
2900.9262890624	0.0019823145
2902.8550964354	0.0020413366
2904.7839038085	0.0018886002
2906.7127111815	0.0019452549
2908.6415185546	0.0020008734
2910.5703259276	0.0019248270
2912.4991333007	0.0019232535
2914.4279406737	0.0019694767
2916.3567480468	0.0018766217
2918.2855554198	0.0018111162
2920.2143627929	0.0019492294
2922.1431701659	0.0019198374
2924.0719775390	0.0018421323
2926.0007849120	0.0019988911
2927.9295922851	0.0020502724
2929.8583996581	0.0018782802
2931.7872070311	0.0019388159
2933.7160144042	0.0020379373
2935.6448217772	0.0019108262
2937.5736291503	0.0019179042
2939.5024365233	0.0019480325
2941.4312438964	0.0019621463
2943.3600512694	0.0019505722
2945.2888586425	0.0019709873
2947.2176660155	0.0019746230
2949.1464733886	0.0018243581
2951.0752807616	0.0018615952
2953.0040881347	0.0018227146
2954.9328955077	0.0017507455
2956.8617028808	0.0018407595
2958.7905102538	0.0019044301
2960.7193176268	0.0018840688
2962.6481249999	0.0017466263
2964.5769323729	0.0018103654
2966.5057397460	0.0018043877
2968.4345471190	0.0017995199
2970.3633544921	0.0019060900
2972.2921618651	0.0017792296
2974.2209692382	0.0018224297
2976.1497766112	0.0018665842
2978.0785839843	0.0018331334
2980.0073913573	0.0018882270
2981.9361987304	0.0018411264
2983.8650061034	0.0018799568
2985.7938134765	0.0019082576
2987.7226208495	0.0018145314
2989.6514282225	0.0018650301
2991.5802355956	0.0019092173
2993.5090429686	0.0018134444
2995.4378503417	0.0019157350
2997.3666577147	0.0019116539
2999.2954650878	0.0017813876
3001.2242724608	0.0018255166
3003.1530798339	0.0017777858
3005.0818872069	0.0018028496
3007.0106945800	0.0017973664
3008.9395019530	0.0017211662
3010.8683093261	0.0017008405
3012.7971166991	0.0016835972
3014.7259240722	0.0017406131
3016.6547314452	0.0017428040
3018.5835388182	0.0017807467
3020.5123461913	0.0017669238
3022.4411535643	0.0017358001
3024.3699609374	0.0017043024
3026.2987683104	0.0017428619
3028.2275756835	0.0018299768
3030.1563830565	0.0016909433
3032.0851904296	0.0017583752
3034.0139978026	0.0017455595
3035.9428051757	0.0017050905
3037.8716125487	0.0018178150
3039.8004199218	0.0015947227
3041.7292272948	0.0016118184
3043.6580346679	0.0017668055
3045.5868420409	0.0016829446
3047.5156494139	0.0016371841
3049.4444567870	0.0016854540
3051.3732641600	0.0017172056
3053.3020715331	0.0016437371
3055.2308789061	0.0016426449
3057.1596862792	0.0016023339
3059.0884936522	0.0015512884
3061.0173010253	0.0016394578
3062.9461083983	0.0016763359
3064.8749157714	0.0016253511
3066.8037231444	0.0016574641
3068.7325305175	0.0016615108
3070.6613378905	0.0015901651
3072.5901452636	0.0016390299
3074.5189526366	0.0016288953
3076.4477600097	0.0016344548
3078.3765673827	0.0016469345
3080.3053747557	0.0015640822
3082.2341821288	0.0015308787
3084.1629895018	0.0015363877
3086.0917968749	0.0016304866
3088.0206042479	0.0016121867
3089.9494116210	0.0015312324
3091.8782189940	0.0015599849
3093.8070263671	0.0015633461
3095.7358337401	0.0015416165
3097.6646411132	0.0015717180
3099.5934484862	0.0015409349
3101.5222558593	0.0015172567
3103.4510632323	0.0015883739
3105.3798706054	0.0014770983
3107.3086779784	0.0014922789
3109.2374853514	0.0015334387
3111.1662927245	0.0015138909
3113.0951000975	0.0016074686
3115.0239074706	0.0014780418
3116.9527148436	0.0015679246
3118.8815222167	0.0015799655
3120.8103295897	0.0014402119
3122.7391369628	0.0015753352
3124.6679443358	0.0014823533
3126.5967517089	0.0014404814
3128.5255590819	0.0015149089
3130.4543664550	0.0015199149
3132.3831738280	0.0015507112
3134.3119812011	0.0014605548
3136.2407885741	0.0014502462
3138.1695959471	0.0015222193
3140.0984033202	0.0014596093
3142.0272106932	0.0014399779
3143.9560180663	0.0014699695
3145.8848254393	0.0014467163
3147.8136328124	0.0014966395
3149.7424401854	0.0015216190
3151.6712475585	0.0015179642
3153.6000549315	0.0013998568
3155.5288623046	0.0013837605
3157.4576696776	0.0014772158
3159.3864770507	0.0013917007
3161.3152844237	0.0014964996
3163.2440917968	0.0014385257
3165.1728991698	0.0013559554
3167.1017065428	0.0014649620
3169.0305139159	0.0014272425
3170.9593212889	0.0014158275
3172.8881286620	0.0013823266
3174.8169360350	0.0014854022
3176.7457434081	0.0013681999
3178.6745507811	0.0013078472
3180.6033581542	0.0014488809
3182.5321655272	0.0013281396
3184.4609729003	0.0014436521
3186.3897802733	0.0014012206
3188.3185876464	0.0013056828
3190.2473950194	0.0013825753
3192.1762023925	0.0013516715
3194.1050097655	0.0014105578
3196.0338171386	0.0013889135
3197.9626245116	0.0013561335
3199.8914318846	0.0013291438
3201.8202392577	0.0013852201
3203.7490466307	0.0014168553
3205.6778540038	0.0014143169
3207.6066613768	0.0014425010
3209.5354687499	0.0013588784
3211.4642761229	0.0014015934
3213.3930834960	0.0013075002
3215.3218908690	0.0012580369
3217.2506982421	0.0013786966
3219.1795056151	0.0013342237
3221.1083129882	0.0013199968
3223.0371203612	0.0013697429
3224.9659277343	0.0013966390
3226.8947351073	0.0013454119
3228.8235424803	0.0013797171
3230.7523498534	0.0013881371
3232.6811572264	0.0013370803
3234.6099645995	0.0013677878
3236.5387719725	0.0013047014
3238.4675793456	0.0013686065
3240.3963867186	0.0014256372
3242.3251940917	0.0013767784
3244.2540014647	0.0014163977
3246.1828088378	0.0013685322
3248.1116162108	0.0013799304
3250.0404235839	0.0013853239
3251.9692309569	0.0013653040
3253.8980383300	0.0014673525
3255.8268457030	0.0013505763
3257.7556530760	0.0013276485
3259.6844604491	0.0014611757
3261.6132678221	0.0013923524
3263.5420751952	0.0013850766
3265.4708825682	0.0013321042
3267.3996899413	0.0013570974
3269.3284973143	0.0014721409
3271.2573046874	0.0014200378
3273.1861120604	0.0014329068
3275.1149194335	0.0014397062
3277.0437268065	0.0013760054
3278.9725341796	0.0013678207
3280.9013415526	0.0014195469
3282.8301489257	0.0013762480
3284.7589562987	0.0013992232
3286.6877636717	0.0014240281
3288.6165710448	0.0013216144
3290.5453784178	0.0014022517
3292.4741857909	0.0014405942
3294.4029931639	0.0014714433
3296.3318005370	0.0014300696
3298.2606079100	0.0013995384
3300.1894152831	0.0015056781
3302.1182226561	0.0014151239
3304.0470300292	0.0014120329
3305.9758374022	0.0014186566
3307.9046447753	0.0014467144
3309.8334521483	0.0014934849
3311.7622595214	0.0014704039
3313.6910668944	0.0014623448
3315.6198742675	0.0014420059
3317.5486816405	0.0015121042
3319.4774890135	0.0014315564
3321.4062963866	0.0014670151
3323.3351037596	0.0014471600
3325.2639111327	0.0013997927
3327.1927185057	0.0015083917
3329.1215258788	0.0014394976
3331.0503332518	0.0015066512
3332.9791406249	0.0014291203
3334.9079479979	0.0014829210
3336.8367553710	0.0015386452
3338.7655627440	0.0014259936
3340.6943701171	0.0015723980
3342.6231774901	0.0014823300
3344.5519848632	0.0015224111
3346.4807922362	0.0014794036
3348.4095996092	0.0013788790
3350.3384069823	0.0015288765
3352.2672143553	0.0015020916
3354.1960217284	0.0015350617
3356.1248291014	0.0014964336
3358.0536364745	0.0014877743
3359.9824438475	0.0014368655
3361.9112512206	0.0014039967
3363.8400585936	0.0014716343
3365.7688659667	0.0014295089
3367.6976733397	0.0014938357
3369.6264807128	0.0014653642
3371.5552880858	0.0014973611
3373.4840954589	0.0014465011
3375.4129028319	0.0014493819
3377.3417102049	0.0015972294
3379.2705175780	0.0014761002
3381.1993249510	0.0014953527
3383.1281323241	0.0014767975
3385.0569396971	0.0014811098
3386.9857470702	0.0015857527
3388.9145544432	0.0015515552
3390.8433618163	0.0015340603
3392.7721691893	0.0014859670
3394.7009765624	0.0015265029
3396.6297839354	0.0014880060
3398.5585913085	0.0014862947
3400.4873986815	0.0015660077
3402.4162060546	0.0014949143
3404.3450134276	0.0015480793
3406.2738208006	0.0016216016
3408.2026281737	0.0015705300
3410.1314355467	0.0015702575
3412.0602429198	0.0016566536
3413.9890502928	0.0016359899
3415.9178576659	0.0015476748
3417.8466650389	0.0015812740
3419.7754724120	0.0016166759
3421.7042797850	0.0015991721
3423.6330871581	0.0016658112
3425.5618945311	0.0016941461
3427.4907019042	0.0015651287
3429.4195092772	0.0016020701
3431.3483166503	0.0016435981
3433.2771240233	0.0016146966
3435.2059313963	0.0016632110
3437.1347387694	0.0016031312
3439.0635461424	0.0016609030
3440.9923535155	0.0016923738
3442.9211608885	0.0016631114
3444.8499682616	0.0016832442
3446.7787756346	0.0015954138
3448.7075830077	0.0016436602
3450.6363903807	0.0016592254
3452.5651977538	0.0016068965
3454.4940051268	0.0017098744
3456.4228124999	0.0017890611
3458.3516198729	0.0017167935
3460.2804272460	0.0016397019
3462.2092346190	0.0016690595
3464.1380419921	0.0016598831
3466.0668493651	0.0016318653
3467.9956567381	0.0016370312
3469.9244641112	0.0017035366
3471.8532714842	0.0016794924
3473.7820788573	0.0016056775
3475.7108862303	0.0017018213
3477.6396936034	0.0016879215
3479.5685009764	0.0016681664
3481.4973083495	0.0017279909
3483.4261157225	0.0017008639
3485.3549230956	0.0016881118
3487.2837304686	0.0016749655
3489.2125378417	0.0016635355
3491.1413452147	0.0016913845
3493.0701525878	0.0017167511
3494.9989599608	0.0016743444
3496.9277673338	0.0017471716
3498.8565747069	0.0018033539
3500.7853820799	0.0016697231
3502.7141894530	0.0016891053
3504.6429968260	0.0017538591
3506.5718041991	0.0017050043
3508.5006115721	0.0016984757
3510.4294189452	0.0017173466
3512.3582263182	0.0016582068
3514.2870336913	0.0016945910
3516.2158410643	0.0017560931
3518.1446484374	0.0016954972
3520.0734558104	0.0017777588
3522.0022631835	0.0017719837
3523.9310705565	0.0017363835
3525.8598779295	0.0017463453
3527.7886853026	0.0016771599
3529.7174926756	0.0017138817
3531.6463000487	0.0016736460
3533.5751074217	0.0017859117
3535.5039147948	0.0018258144
3537.4327221678	0.0016965398
3539.3615295409	0.0018099230
3541.2903369139	0.0017531137
3543.2191442870	0.0017344172
3545.1479516600	0.0017770901
3547.0767590331	0.0016834303
3549.0055664061	0.0017206548
3550.9343737792	0.0016961786
3552.8631811522	0.0016761691
3554.7919885252	0.0016862124
3556.7207958983	0.0016907952
3558.6496032713	0.0017422865
3560.5784106444	0.0017383540
3562.5072180174	0.0017723759
3564.4360253905	0.0017428331
3566.3648327635	0.0016205617
3568.2936401366	0.0015929649
3570.2224475096	0.0016412119
3572.1512548827	0.0016990975
3574.0800622557	0.0017427732
3576.0088696288	0.0017319258
3577.9376770018	0.0016831127
3579.8664843749	0.0016912200
3581.7952917479	0.0017860734
3583.7240991210	0.0018157822
3585.6529064940	0.0016963257
3587.5817138670	0.0016750942
3589.5105212401	0.0017367778
3591.4393286131	0.0016854305
3593.3681359862	0.0016658844
3595.2969433592	0.0016913791
3597.2257507323	0.0017742387
3599.1545581053	0.0018183799
3601.0833654784	0.0017142289
3603.0121728514	0.0017173144
3604.9409802245	0.0017554074
3606.8697875975	0.0016812717
3608.7985949706	0.0015471632
3610.7274023436	0.0015931756
3612.6562097167	0.0017371646
3614.5850170897	0.0016614669
3616.5138244627	0.0016741378
3618.4426318358	0.0016241092
3620.3714392088	0.0016409296
3622.3002465819	0.0018199610
3624.2290539549	0.0017466885
3626.1578613280	0.0018064468
3628.0866687010	0.0016527280
3630.0154760741	0.0015147654
3631.9442834471	0.0017143297
3633.8730908202	0.0016125746
3635.8018981932	0.0016845618
3637.7307055663	0.0017456629
3639.6595129393	0.0016601742
3641.5883203124	0.0017250702
3643.5171276854	0.0016738675
3645.4459350584	0.0016510780
3647.3747424315	0.0015805694
3649.3035498045	0.0014632163
3651.2323571776	0.0014888244
3653.1611645506	0.0017520192
3655.0899719237	0.0017108193
3657.0187792967	0.0014648207
3658.9475866698	0.0016882373
3660.8763940428	0.0017107881
3662.8052014159	0.0016362914
3664.7340087889	0.0016718556
3666.6628161620	0.0016628713
3668.5916235350	0.0016327035
3670.5204309081	0.0014949917
3672.4492382811	0.0016647927
3674.3780456541	0.0015336418
3676.3068530272	0.0013570862
3678.2356604002	0.0016483243
3680.1644677733	0.0016501874
3682.0932751463	0.0016081849
3684.0220825194	0.0016371617
3685.9508898924	0.0016087391
3687.8796972655	0.0014907438
3689.8085046385	0.0013552589
3691.7373120116	0.0014151197
3693.6661193846	0.0015611904
3695.5949267577	0.0016381327
3697.5237341307	0.0015029225
3699.4525415038	0.0015520656
3701.3813488768	0.0015533073
3703.3101562499	0.0014807138
3705.2389636229	0.0015631504
3707.1677709959	0.0014581494
3709.0965783690	0.0015113468
3711.0253857420	0.0014139282
3712.9541931151	0.0013657270
3714.8830004881	0.0015814342
3716.8118078612	0.0015407456
3718.7406152342	0.0015810232
3720.6694226073	0.0015487461
3722.5982299803	0.0015377353
3724.5270373534	0.0014868837
3726.4558447264	0.0014154691
3728.3846520995	0.0015575860
3730.3134594725	0.0014353280
3732.2422668456	0.0013642989
3734.1710742186	0.0012518738
3736.0998815916	0.0011933516
3738.0286889647	0.0013837810
3739.9574963377	0.0014439889
3741.8863037108	0.0014884761
3743.8151110838	0.0012245348
3745.7439184569	0.0012175973
3747.6727258299	0.0015024764
3749.6015332030	0.0012834279
3751.5303405760	0.0011918121
3753.4591479491	0.0012667933
3755.3879553221	0.0013693409
3757.3167626952	0.0015165659
3759.2455700682	0.0013667105
3761.1743774413	0.0014204840
3763.1031848143	0.0014931441
3765.0319921873	0.0013199879
3766.9607995604	0.0013637899
3768.8896069334	0.0013546076
3770.8184143065	0.0013833490
3772.7472216795	0.0014507112
3774.6760290526	0.0014164636
3776.6048364256	0.0014663825
3778.5336437987	0.0013554147
3780.4624511717	0.0013234504
3782.3912585448	0.0013196131
3784.3200659178	0.0013183625
3786.2488732909	0.0014191383
3788.1776806639	0.0014201943
3790.1064880370	0.0014370773
3792.0352954100	0.0013474908
3793.9641027830	0.0013948584
3795.8929101561	0.0013322408
3797.8217175291	0.0012864347
3799.7505249022	0.0013429525
3801.6793322752	0.0010904658
3803.6081396483	0.0013118060
3805.5369470213	0.0013129861
3807.4657543944	0.0011534798
3809.3945617674	0.0014164138
3811.3233691405	0.0013035161
3813.2521765135	0.0013011792
3815.1809838866	0.0012516940
3817.1097912596	0.0012052234
3819.0385986327	0.0013666353
3820.9674060057	0.0012288501
3822.8962133787	0.0011963402
3824.8250207518	0.0012824017
3826.7538281248	0.0013203376
3828.6826354979	0.0013259731
3830.6114428709	0.0012455395
3832.5402502440	0.0011870500
3834.4690576170	0.0012737107
3836.3978649901	0.0012013265
3838.3266723631	0.0010705017
3840.2554797362	0.0012629875
3842.1842871092	0.0012483154
3844.1130944823	0.0011991963
3846.0419018553	0.0012879967
3847.9707092284	0.0012765707
3849.8995166014	0.0013038884
3851.8283239745	0.0011323912
3853.7571313475	0.0009187988
3855.6859387205	0.0010840376
3857.6147460936	0.0013316604
3859.5435534666	0.0012269469
3861.4723608397	0.0012399664
3863.4011682127	0.0013127215
3865.3299755858	0.0011940047
3867.2587829588	0.0012488478
3869.1875903319	0.0011527027
3871.1163977049	0.0011786935
3873.0452050780	0.0012295088
3874.9740124510	0.0011117114
3876.9028198241	0.0013064018
3878.8316271971	0.0012058688
3880.7604345702	0.0011240515
3882.6892419432	0.0013010667
3884.6180493162	0.0011340695
3886.5468566893	0.0011593525
3888.4756640623	0.0012174570
3890.4044714354	0.0010821806
3892.3332788084	0.0012038539
3894.2620861815	0.0012276240
3896.1908935545	0.0012304757
3898.1197009276	0.0013065792
3900.0485083006	0.0011610135
3901.9773156737	0.0011326558
3903.9061230467	0.0011627404
3905.8349304198	0.0011138567
3907.7637377928	0.0011149643
3909.6925451659	0.0011676778
3911.6213525389	0.0011765432
3913.5501599119	0.0010909097
3915.4789672850	0.0011932965
3917.4077746580	0.0011950248
3919.3365820311	0.0011110224
3921.2653894041	0.0012293526
3923.1941967772	0.0012285140
3925.1230041502	0.0012053493
3927.0518115233	0.0011797303
3928.9806188963	0.0011489585
3930.9094262694	0.0011582393
3932.8382336424	0.0011259922
3934.7670410155	0.0011410159
3936.6958483885	0.0011774383
3938.6246557616	0.0012169748
3940.5534631346	0.0011324873
3942.4822705076	0.0010863901
3944.4110778807	0.0011432124
3946.3398852537	0.0011124886
3948.2686926268	0.0011535940
3950.1974999998	0.0011166529
3952.1263073729	0.0010626712
3954.0551147459	0.0012087475
3955.9839221190	0.0011575820
3957.9127294920	0.0010360181
3959.8415368651	0.0011479919
3961.7703442381	0.0011275888
3963.6991516112	0.0010644870
3965.6279589842	0.0010976029
3967.5567663573	0.0010917366
3969.4855737303	0.0010863047
3971.4143811034	0.0010214669
3973.3431884764	0.0011009970
3975.2719958494	0.0011248897
3977.2008032225	0.0010417918
3979.1296105955	0.0011234222
3981.0584179686	0.0010592837
3982.9872253416	0.0010432373
3984.9160327147	0.0010997027
3986.8448400877	0.0010182869
3988.7736474608	0.0009894739
3990.7024548338	0.0010220523
3992.6312622069	0.0010624332
3994.5600695799	0.0010800154
3996.4888769530	0.0011359772
3998.4176843260	0.0010679155
4000.3464916991	0.0010074733
4002.2752990721	0.0011246030
4004.2041064451	0.0011013139
4006.1329138182	0.0010130022
4008.0617211912	0.0010667015
4009.9905285643	0.0011415152
4011.9193359373	0.0010304626
4013.8481433104	0.0009849878
4015.7769506834	0.0010629238
4017.7057580565	0.0010451758
4019.6345654295	0.0010640197
4021.5633728026	0.0010341323
4023.4921801756	0.0009822038
4025.4209875487	0.0010109262
4027.3497949217	0.0010728412
4029.2786022948	0.0010464059
4031.2074096678	0.0010041371
4033.1362170408	0.0011077510
4035.0650244139	0.0010903665
4036.9938317869	0.0010226935
4038.9226391600	0.0010600155
4040.8514465330	0.0010074510
4042.7802539061	0.0009480807
4044.7090612791	0.0010884888
4046.6378686522	0.0010952692
4048.5666760252	0.0009966018
4050.4954833983	0.0010260100
4052.4242907713	0.0008981907
4054.3530981444	0.0009559030
4056.2819055174	0.0010305119
4058.2107128905	0.0009659680
4060.1395202635	0.0010276504
4062.0683276365	0.0009864210
4063.9971350096	0.0010358489
4065.9259423826	0.0010163282
4067.8547497557	0.0010123427
4069.7835571287	0.0009974209
4071.7123645018	0.0009698996
4073.6411718748	0.0011095299
4075.5699792479	0.0009757082
4077.4987866209	0.0010329701
4079.4275939940	0.0011101147
4081.3564013670	0.0010690684
4083.2852087401	0.0011036468
4085.2140161131	0.0009357551
4087.1428234862	0.0009589278
4089.0716308592	0.0009187064
4091.0004382323	0.0009420604
4092.9292456053	0.0010215138
4094.8580529783	0.0009033861
4096.7868603514	0.0009500531
4098.7156677244	0.0009494462
4100.6444750975	0.0009839971
4102.5732824705	0.0009469539
4104.5020898436	0.0008933542
4106.4308972166	0.0009527581
4108.3597045897	0.0008854154
4110.2885119627	0.0009217851
4112.2173193358	0.0009467319
4114.1461267088	0.0009208251
4116.0749340819	0.0009134694
4118.0037414549	0.0009112563
4119.9325488280	0.0009927691
4121.8613562010	0.0009703102
4123.7901635740	0.0009405027
4125.7189709471	0.0009909582
4127.6477783201	0.0009412429
4129.5765856932	0.0009253094
4131.5053930662	0.0009134753
4133.4342004393	0.0008422701
4135.3630078123	0.0009070815
4137.2918151854	0.0009035415
4139.2206225584	0.0009173781
4141.1494299315	0.0009991296
4143.0782373045	0.0009423041
4145.0070446776	0.0009275933
4146.9358520506	0.0009244796
4148.8646594237	0.0009532849
4150.7934667967	0.0009315120
4152.7222741697	0.0008432678
4154.6510815428	0.0008685767
4156.5798889158	0.0009315253
4158.5086962889	0.0009158413
4160.4375036619	0.0008336432
4162.3663110350	0.0009187723
4164.2951184080	0.0009567289
4166.2239257811	0.0008790743
4168.1527331541	0.0008968415
4170.0815405272	0.0009183973
4172.0103479002	0.0009367696
4173.9391552733	0.0009159333
4175.8679626463	0.0009257580
4177.7967700194	0.0009313382
4179.7255773924	0.0009144084
4181.6543847654	0.0008778063
4183.5831921385	0.0008637924
4185.5119995115	0.0009504672
4187.4408068846	0.0009188929
4189.3696142576	0.0008565867
4191.2984216307	0.0008657071
4193.2272290037	0.0008734888
4195.1560363768	0.0008976497
4197.0848437498	0.0009093838
4199.0136511229	0.0008517925
4200.9424584959	0.0008358289
4202.8712658690	0.0008570601
4204.8000732420	0.0008321507
4206.7288806151	0.0008957719
4208.6576879881	0.0008465666
4210.5864953611	0.0008055498
4212.5153027342	0.0008570338
4214.4441101072	0.0008494268
4216.3729174803	0.0008733526
4218.3017248533	0.0008026792
4220.2305322264	0.0008350976
4222.1593395994	0.0008776056
4224.0881469725	0.0008394148
4226.0169543455	0.0008547007
4227.9457617186	0.0008448028
4229.8745690916	0.0008361591
4231.8033764647	0.0007813538
4233.7321838377	0.0008237719
4235.6609912108	0.0007997739
4237.5897985838	0.0007876193
4239.5186059569	0.0009130093
4241.4474133299	0.0009235383
4243.3762207029	0.0008556679
4245.3050280760	0.0007820142
4247.2338354490	0.0008769086
4249.1626428221	0.0008742107
4251.0914501951	0.0008128482
4253.0202575682	0.0008221095
4254.9490649412	0.0007381042
4256.8778723143	0.0008161347
4258.8066796873	0.0008351190
4260.7354870604	0.0007582604
4262.6642944334	0.0007860339
4264.5931018065	0.0008416009
4266.5219091795	0.0008657578
4268.4507165526	0.0008563641
4270.3795239256	0.0008423347
4272.3083312986	0.0008113704
4274.2371386717	0.0008811337
4276.1659460447	0.0009036792
4278.0947534178	0.0008647265
4280.0235607908	0.0008482995
4281.9523681639	0.0008227460
4283.8811755369	0.0008322347
4285.8099829100	0.0007994674
4287.7387902830	0.0007799566
4289.6675976561	0.0007955887
4291.5964050291	0.0008387606
4293.5252124022	0.0008330020
4295.4540197752	0.0007934271
4297.3828271483	0.0007509601
4299.3116345213	0.0007590961
4301.2404418943	0.0008628909
4303.1692492674	0.0008199314
4305.0980566404	0.0007725831
4307.0268640135	0.0007560435
4308.9556713865	0.0007804197
4310.8844787596	0.0008055643
4312.8132861326	0.0007222289
4314.7420935057	0.0007653672
4316.6709008787	0.0007279105
4318.5997082518	0.0007316008
4320.5285156248	0.0008024863
4322.4573229979	0.0007301456
4324.3861303709	0.0007883313
4326.3149377440	0.0008414579
4328.2437451170	0.0007783661
4330.1725524900	0.0007595519
4332.1013598631	0.0007835892
4334.0301672361	0.0007201769
4335.9589746092	0.0006925133
4337.8877819822	0.0007567194
4339.8165893553	0.0007116508
4341.7453967283	0.0007267031
4343.6742041014	0.0007962058
4345.6030114744	0.0007523034
4347.5318188475	0.0007399437
4349.4606262205	0.0007572599
4351.3894335936	0.0006729224
4353.3182409666	0.0006739561
4355.2470483397	0.0007375116
4357.1758557127	0.0006760369
4359.1046630858	0.0007064389
4361.0334704588	0.0007579208
4362.9622778318	0.0007130872
4364.8910852049	0.0007196731
4366.8198925779	0.0006984658
4368.7486999510	0.0006763136
4370.6775073240	0.0007411211
4372.6063146971	0.0007200933
4374.5351220701	0.0007075244
4376.4639294432	0.0007910487
4378.3927368162	0.0007326307
4380.3215441893	0.0006729681
4382.2503515623	0.0007143851
4384.1791589354	0.0007552563
4386.1079663084	0.0007142649
4388.0367736815	0.0006460248
4389.9655810545	0.0007040600
4391.8943884275	0.0006988256
4393.8231958006	0.0006772959
4395.7520031736	0.0006784289
4397.6808105467	0.0006526647
4399.6096179197	0.0006711356
4401.5384252928	0.0006920540
4403.4672326658	0.0007324977
4405.3960400389	0.0007099466
4407.3248474119	0.0006878726
4409.2536547850	0.0006468698
4411.1824621580	0.0006482788
4413.1112695311	0.0007104048
4415.0400769041	0.0006526051
4416.9688842772	0.0006684446
4418.8976916502	0.0007039225
4420.8264990232	0.0006642654
4422.7553063963	0.0006560150
4424.6841137693	0.0006919251
4426.6129211424	0.0006743142
4428.5417285154	0.0006496484
4430.4705358885	0.0007141386
4432.3993432615	0.0007207195
4434.3281506346	0.0006870767
4436.2569580076	0.0006300100
4438.1857653807	0.0006818963
4440.1145727537	0.0006624013
4442.0433801268	0.0005556574
4443.9721874998	0.0006431328
4445.9009948729	0.0006093007
4447.8298022459	0.0006538347
4449.7586096189	0.0007587424
4451.6874169920	0.0007040499
4453.6162243650	0.0006822860
4455.5450317381	0.0005916636
4457.4738391111	0.0006134222
4459.4026464842	0.0006909337
4461.3314538572	0.0006151387
4463.2602612303	0.0005903617
4465.1890686033	0.0006138851
4467.1178759764	0.0005635817
4469.0466833494	0.0005937344
4470.9754907225	0.0006436398
4472.9042980955	0.0006296063
4474.8331054686	0.0006788500
4476.7619128416	0.0006388610
4478.6907202147	0.0006105029
4480.6195275877	0.0006099107
4482.5483349607	0.0006133271
4484.4771423338	0.0006412379
4486.4059497068	0.0006296959
4488.3347570799	0.0006703429
4490.2635644529	0.0005575638
4492.1923718260	0.0005680809
4494.1211791990	0.0006491406
4496.0499865721	0.0005645552
4497.9787939451	0.0006061521
4499.9076013182	0.0006027221
4501.8364086912	0.0005796931
4503.7652160643	0.0005684199
4505.6940234373	0.0006176877
4507.6228308104	0.0006354356
4509.5516381834	0.0005708876
4511.4804455564	0.0006536262
4513.4092529295	0.0006399844
4515.3380603025	0.0006188564
4517.2668676756	0.0006444862
4519.1956750486	0.0006434550
4521.1244824217	0.0006544616
4523.0532897947	0.0006545335
4524.9820971678	0.0006062944
4526.9109045408	0.0005278109
4528.8397119139	0.0006231021
4530.7685192869	0.0006043186
4532.6973266600	0.0005955307
4534.6261340330	0.0006241345
4536.5549414061	0.0005205555
4538.4837487791	0.0005926507
4540.4125561521	0.0005754142
4542.3413635252	0.0005563452
4544.2701708982	0.0005806100
4546.1989782713	0.0005630585
4548.1277856443	0.0006073550
4550.0565930174	0.0005562613
4551.9854003904	0.0005437729
4553.9142077635	0.0005096667
4555.8430151365	0.0005361853
4557.7718225096	0.0006154598
4559.7006298826	0.0006381892
4561.6294372557	0.0006639792
4563.5582446287	0.0005829374
4565.4870520018	0.0006105371
4567.4158593748	0.0006030255
4569.3446667478	0.0005072016
4571.2734741209	0.0005472148
4573.2022814939	0.0005796460
4575.1310888670	0.0006241289
4577.0598962400	0.0005640599
4578.9887036131	0.0005140520
4580.9175109861	0.0006297502
4582.8463183592	0.0005822086
4584.7751257322	0.0005138163
4586.7039331053	0.0005522234
4588.6327404783	0.0005435743
4590.5615478514	0.0005770313
4592.4903552244	0.0005567173
4594.4191625975	0.0005103106
4596.3479699705	0.0005273490
4598.2767773435	0.0005552119
4600.2055847166	0.0006051465
4602.1343920896	0.0005064839
4604.0631994627	0.0004556023
4605.9920068357	0.0005815070
4607.9208142088	0.0005527114
4609.8496215818	0.0005310896
4611.7784289549	0.0005737860
4613.7072363279	0.0005175179
4615.6360437010	0.0005760596
4617.5648510740	0.0005754906
4619.4936584471	0.0004942076
4621.4224658201	0.0005935290
4623.3512731932	0.0005618702
4625.2800805662	0.0005516078
4627.2088879393	0.0006113763
4629.1376953123	0.0005066120
4631.0665026853	0.0005453061
4632.9953100584	0.0005138098
4634.9241174314	0.0004481202
4636.8529248045	0.0005016306
4638.7817321775	0.0004856804
4640.7105395506	0.0005875878
4642.6393469236	0.0005732498
4644.5681542967	0.0004896886
4646.4969616697	0.0005499171
4648.4257690428	0.0005334797
4650.3545764158	0.0005118136
4652.2833837889	0.0005086671
4654.2121911619	0.0005685153
4656.1409985350	0.0005920171
4658.0698059080	0.0005021199
4659.9986132810	0.0005243825
4661.9274206541	0.0005495187
4663.8562280271	0.0005157020
4665.7850354002	0.0005064718
4667.7138427732	0.0005366827
4669.6426501463	0.0005538320
4671.5714575193	0.0004639095
4673.5002648924	0.0005014963
4675.4290722654	0.0005989769
4677.3578796385	0.0004993094
4679.2866870115	0.0004728613
4681.2154943846	0.0005468962
4683.1443017576	0.0005726023
4685.0731091307	0.0005754599
4687.0019165037	0.0005463490
4688.9307238767	0.0005591777
4690.8595312498	0.0005086744
4692.7883386228	0.0004591757
4694.7171459959	0.0005162136
4696.6459533689	0.0004989667
4698.5747607420	0.0005467126
4700.5035681150	0.0005824510
4702.4323754881	0.0004989351
4704.3611828611	0.0005524628
4706.2899902342	0.0005476467
4708.2187976072	0.0004625754
4710.1476049803	0.0004701749
4712.0764123533	0.0004308104
4714.0052197264	0.0004268246
4715.9340270994	0.0004563131
4717.8628344724	0.0004516638
4719.7916418455	0.0004853954
4721.7204492185	0.0004949560
4723.6492565916	0.0004891757
4725.5780639646	0.0005216521
4727.5068713377	0.0005116968
4729.4356787107	0.0004710696
4731.3644860838	0.0004746884
4733.2932934568	0.0004626173
4735.2221008299	0.0004444193
4737.1509082029	0.0004493685
4739.0797155760	0.0004872551
4741.0085229490	0.0004737527
4742.9373303221	0.0004278193
4744.8661376951	0.0005132788
4746.7949450682	0.0005136462
4748.7237524412	0.0005006264
4750.6525598142	0.0005347426
4752.5813671873	0.0004459390
4754.5101745603	0.0004131093
4756.4389819334	0.0004536246
4758.3677893064	0.0005181830
4760.2965966795	0.0004368524
4762.2254040525	0.0004128270
4764.1542114256	0.0005097685
4766.0830187986	0.0004124367
4768.0118261717	0.0004428282
4769.9406335447	0.0005001600
4771.8694409178	0.0004753809
4773.7982482908	0.0004582890
4775.7270556639	0.0004205953
4777.6558630369	0.0004416698
4779.5846704099	0.0004384570
4781.5134777830	0.0005386557
4783.4422851560	0.0005151259
4785.3710925291	0.0004813056
4787.2998999021	0.0004909629
4789.2287072752	0.0003498596
4791.1575146482	0.0004575985
4793.0863220213	0.0004475394
4795.0151293943	0.0003714919
4796.9439367674	0.0004895435
4798.8727441404	0.0004276636
4800.8015515135	0.0004385112
4802.7303588865	0.0005303568
4804.6591662596	0.0004773886
4806.5879736326	0.0004107408
4808.5167810056	0.0004752510
4810.4455883787	0.0005040249
4812.3743957517	0.0003933139
4814.3032031248	0.0004019362
4816.2320104978	0.0004643432
4818.1608178709	0.0004327257
4820.0896252439	0.0004215526
4822.0184326170	0.0004765826
4823.9472399900	0.0004589612
4825.8760473631	0.0004119402
4827.8048547361	0.0004482338
4829.7336621092	0.0004348739
4831.6624694822	0.0003929531
4833.5912768553	0.0004534324
4835.5200842283	0.0004889839
4837.4488916013	0.0004076981
4839.3776989744	0.0004595906
4841.3065063474	0.0005085422
4843.2353137205	0.0004249652
4845.1641210935	0.0004507087
4847.0929284666	0.0004168798
4849.0217358396	0.0003892077
4850.9505432127	0.0004429236
4852.8793505857	0.0004735807
4854.8081579588	0.0004816334
4856.7369653318	0.0003756771
4858.6657727049	0.0004029785
4860.5945800779	0.0004785854
4862.5233874510	0.0004284371
4864.4521948240	0.0003891629
4866.3810021971	0.0004063359
4868.3098095701	0.0004777294
4870.2386169431	0.0003953035
4872.1674243162	0.0003765320
4874.0962316892	0.0004309327
4876.0250390623	0.0003555807
4877.9538464353	0.0003845050
4879.8826538084	0.0003994092
4881.8114611814	0.0004129204
4883.7402685545	0.0004535405
4885.6690759275	0.0004453186
4887.5978833006	0.0004183100
4889.5266906736	0.0003835910
4891.4554980467	0.0004461478
4893.3843054197	0.0004158072
4895.3131127928	0.0003997178
4897.2419201658	0.0004207678
4899.1707275388	0.0003373242
4901.0995349119	0.0004104919
4903.0283422849	0.0004657830
4904.9571496580	0.0003858576
4906.8859570310	0.0003669981
4908.8147644041	0.0004210817
4910.7435717771	0.0004360522
4912.6723791502	0.0003869717
4914.6011865232	0.0003777325
4916.5299938963	0.0003857604
4918.4588012693	0.0003792924
4920.3876086424	0.0003785036
4922.3164160154	0.0004388478
4924.2452233885	0.0004488425
4926.1740307615	0.0004171322
4928.1028381345	0.0004472024
4930.0316455076	0.0003797463
4931.9604528806	0.0003351718
4933.8892602537	0.0003778254
4935.8180676267	0.0003589896
4937.7468749998	0.0003492238
4939.6756823728	0.0003929673
4941.6044897459	0.0003753025
4943.5332971189	0.0003605794
4945.4621044920	0.0004106352
4947.3909118650	0.0004257068
4949.3197192381	0.0004648850
4951.2485266111	0.0003768475
4953.1773339842	0.0003219530
4955.1061413572	0.0004353595
4957.0349487302	0.0003743830
4958.9637561033	0.0003472278
4960.8925634763	0.0003817411
4962.8213708494	0.0003605306
4964.7501782224	0.0003670454
4966.6789855955	0.0003912191
4968.6077929685	0.0004342443
4970.5366003416	0.0003809839
4972.4654077146	0.0004228225
4974.3942150877	0.0004538346
4976.3230224607	0.0003392338
4978.2518298338	0.0003438813
4980.1806372068	0.0003333708
4982.1094445799	0.0003366664
4984.0382519529	0.0003817722
4985.9670593259	0.0003491854
4987.8958666990	0.0003463603
4989.8246740720	0.0003290854
4991.7534814451	0.0003580944
4993.6822888181	0.0004249465
4995.6110961912	0.0003986990
4997.5399035642	0.0003966245
4999.4687109373	0.0004240010
5001.3975183103	0.0003816535
5003.3263256834	0.0002958827
5005.2551330564	0.0003260741
5007.1839404295	0.0003681766
5009.1127478025	0.0003527494
5011.0415551756	0.0004308181
5012.9703625486	0.0003900626
5014.8991699217	0.0003694420
5016.8279772947	0.0003777224
5018.7567846677	0.0003001308
5020.6855920408	0.0003540101
5022.6143994138	0.0003185885
5024.5432067869	0.0003377905
5026.4720141599	0.0003579312
5028.4008215330	0.0002840138
5030.3296289060	0.0003176832
5032.2584362791	0.0002448986
5034.1872436521	0.0002665079
5036.1160510252	0.0003374639
5038.0448583982	0.0003311536
5039.9736657713	0.0003331832
5041.9024731443	0.0003361616
5043.8312805174	0.0003913796
5045.7600878904	0.0003508941
5047.6888952634	0.0003497829
5049.6177026365	0.0003613197
5051.5465100095	0.0003484235
5053.4753173826	0.0003265299
5055.4041247556	0.0003047642
5057.3329321287	0.0003790291
5059.2617395017	0.0003367881
5061.1905468748	0.0003297726
5063.1193542478	0.0003526601
5065.0481616209	0.0003274952
5066.9769689939	0.0003488349
5068.9057763670	0.0003899104
5070.8345837400	0.0003702327
5072.7633911131	0.0002557980
5074.6921984861	0.0003170996
5076.6210058591	0.0003367604
5078.5498132322	0.0003521954
5080.4786206052	0.0003872224
5082.4074279783	0.0002937125
5084.3362353513	0.0003467166
5086.2650427244	0.0003156404
5088.1938500974	0.0003273778
5090.1226574705	0.0003342254
5092.0514648435	0.0002586909
5093.9802722166	0.0003667593
5095.9090795896	0.0003666568
5097.8378869627	0.0003500852
5099.7666943357	0.0003170100
5101.6955017088	0.0002767825
5103.6243090818	0.0003545568
5105.5531164548	0.0003417367
5107.4819238279	0.0003360753
5109.4107312009	0.0003499895
5111.3395385740	0.0003569015
5113.2683459470	0.0003812270
5115.1971533201	0.0003261679
5117.1259606931	0.0003159103
5119.0547680662	0.0004007698
5120.9835754392	0.0003717025
5122.9123828123	0.0003375720
5124.8411901853	0.0003476984
5126.7699975584	0.0002768063
5128.6988049314	0.0003169154
5130.6276123045	0.0003373174
5132.5564196775	0.0003091967
5134.4852270506	0.0003532358
5136.4140344236	0.0003098744
5138.3428417966	0.0002900875
5140.2716491697	0.0003047738
5142.2004565427	0.0002570967
5144.1292639158	0.0002318662
5146.0580712888	0.0002999021
5147.9868786619	0.0003283330
5149.9156860349	0.0002806877
5151.8444934080	0.0002592595
5153.7733007810	0.0002127662
5155.7021081541	0.0002866490
5157.6309155271	0.0003493621
5159.5597229002	0.0002897956
5161.4885302732	0.0003328150
5163.4173376463	0.0003220504
5165.3461450193	0.0002708455
5167.2749523923	0.0002467795
5169.2037597654	0.0002172224
5171.1325671384	0.0003106162
5173.0613745115	0.0003230674
5174.9901818845	0.0002541950
5176.9189892576	0.0003069989
5178.8477966306	0.0002870105
5180.7766040037	0.0002835709
5182.7054113767	0.0003602005
5184.6342187498	0.0002822401
5186.5630261228	0.0002777695
5188.4918334959	0.0003072213
5190.4206408689	0.0002403675
5192.3494482420	0.0003085472
5194.2782556150	0.0002875049
5196.2070629880	0.0002041135
5198.1358703611	0.0002543108
5200.0646777341	0.0002901851
5201.9934851072	0.0003059279
5203.9222924802	0.0002593593
5205.8510998533	0.0002475723
5207.7799072263	0.0002852798
5209.7087145994	0.0003101295
5211.6375219724	0.0003102564
5213.5663293455	0.0002289502
5215.4951367185	0.0002702760
5217.4239440916	0.0002878591
5219.3527514646	0.0002325745
5221.2815588377	0.0002476715
5223.2103662107	0.0002475108
5225.1391735837	0.0002876494
5227.0679809568	0.0002286784
5228.9967883298	0.0002358879
5230.9255957029	0.0002877587
5232.8544030759	0.0002493414
5234.7832104490	0.0003037959
5236.7120178220	0.0002088062
5238.6408251951	0.0002354150
5240.5696325681	0.0003361522
5242.4984399412	0.0002514490
5244.4272473142	0.0003032354
5246.3560546873	0.0002799102
5248.2848620603	0.0002532050
5250.2136694334	0.0002927723
5252.1424768064	0.0002365741
5254.0712841795	0.0001992020
5256.0000915525	0.0002289822
5257.9288989255	0.0003101355
5259.8577062986	0.0002608563
5261.7865136716	0.0002127221
5263.7153210447	0.0002347941
5265.6441284177	0.0002443429
5267.5729357908	0.0002634827
5269.5017431638	0.0002590273
5271.4305505369	0.0002740877
5273.3593579099	0.0002555310
5275.2881652830	0.0002911708
5277.2169726560	0.0002677630
5279.1457800291	0.0002200062
5281.0745874021	0.0002707968
5283.0033947752	0.0002219583
5284.9322021482	0.0002652262
5286.8610095212	0.0003102361
5288.7898168943	0.0002339641
5290.7186242673	0.0002023669
5292.6474316404	0.0002759775
5294.5762390134	0.0003662776
5296.5050463865	0.0002158793
5298.4338537595	0.0001309926
5300.3626611326	0.0002300120
5302.2914685056	0.0002699131
5304.2202758787	0.0002605164
5306.1490832517	0.0002036764
5308.0778906248	0.0002260317
5310.0066979978	0.0002593519
5311.9355053709	0.0002635780
5313.8643127439	0.0003140701
5315.7931201169	0.0003066146
5317.7219274900	0.0002562331
5319.6507348630	0.0002330670
5321.5795422361	0.0002419991
5323.5083496091	0.0002274275
5325.4371569822	0.0002174630
5327.3659643552	0.0002537964
5329.2947717283	0.0002671659
5331.2235791013	0.0002781430
5333.1523864744	0.0003078295
5335.0811938474	0.0002878630
5337.0100012205	0.0002396888
5338.9388085935	0.0002364431
5340.8676159666	0.0002397888
5342.7964233396	0.0002458993
5344.7252307126	0.0002882344
5346.6540380857	0.0002875776
5348.5828454587	0.0002312617
5350.5116528318	0.0002062878
5352.4404602048	0.0002603350
5354.3692675779	0.0002787425
5356.2980749509	0.0002038232
5358.2268823240	0.0002049592
5360.1556896970	0.0002052657
5362.0844970701	0.0001820662
5364.0133044431	0.0002315009
5365.9421118162	0.0002139399
5367.8709191892	0.0002147367
5369.7997265623	0.0002110952
5371.7285339353	0.0001821021
5373.6573413083	0.0002324609
5375.5861486814	0.0002078003
5377.5149560544	0.0001907535
5379.4437634275	0.0001880111
5381.3725708005	0.0001861507
5383.3013781736	0.0002418563
5385.2301855466	0.0002386826
5387.1589929197	0.0002802637
5389.0878002927	0.0002684819
5391.0166076658	0.0002105714
5392.9454150388	0.0002536738
5394.8742224119	0.0002052784
5396.8030297849	0.0001671228
5398.7318371580	0.0002179336
5400.6606445310	0.0002251586
5402.5894519041	0.0002390087
5404.5182592771	0.0002426319
5406.4470666501	0.0002271460
5408.3758740232	0.0002374796
5410.3046813962	0.0002622114
5412.2334887693	0.0002558180
5414.1622961423	0.0001928513
5416.0911035154	0.0001678311
5418.0199108884	0.0001567980
5419.9487182615	0.0001746238
5421.8775256345	0.0002344565
5423.8063330076	0.0002359075
5425.7351403806	0.0002846359
5427.6639477537	0.0002683663
5429.5927551267	0.0001964658
5431.5215624998	0.0002254947
5433.4503698728	0.0002394384
5435.3791772458	0.0002526344
5437.3079846189	0.0002647706
5439.2367919919	0.0002703088
5441.1655993650	0.0001962973
5443.0944067380	0.0001718489
5445.0232141111	0.0002225946
5446.9520214841	0.0001835586
5448.8808288572	0.0002330633
5450.8096362302	0.0002119623
5452.7384436033	0.0001975339
5454.6672509763	0.0002511741
5456.5960583494	0.0001829610
5458.5248657224	0.0001878444
5460.4536730955	0.0002311640
5462.3824804685	0.0002574626
5464.3112878415	0.0002111353
5466.2400952146	0.0002236955
5468.1689025876	0.0002484272
5470.0977099607	0.0001751816
5472.0265173337	0.0002287250
5473.9553247068	0.0001888415
5475.8841320798	0.0001311268
5477.8129394529	0.0001734978
5479.7417468259	0.0002491276
5481.6705541990	0.0002445469
5483.5993615720	0.0001190600
5485.5281689451	0.0001399130
5487.4569763181	0.0001213556
5489.3857836912	0.0001643518
5491.3145910642	0.0002127200
5493.2433984372	0.0001856131
5495.1722058103	0.0002404344
5497.1010131833	0.0001477152
5499.0298205564	0.0001834682
5500.9586279294	0.0001950060
5502.8874353025	0.0001455092
5504.8162426755	0.0002731363
5506.7450500486	0.0001734515
5508.6738574216	0.0001161351
5510.6026647947	0.0002057946
5512.5314721677	0.0001841751
5514.4602795408	0.0001906405
5516.3890869138	0.0001777713
5518.3178942869	0.0001585090
5520.2467016599	0.0001722979
5522.1755090330	0.0001734621
5524.1043164060	0.0001752480
5526.0331237790	0.0001567522
5527.9619311521	0.0002068914
5529.8907385251	0.0002445889
5531.8195458982	0.0001729396
5533.7483532712	0.0001821162
5535.6771606443	0.0001867304
5537.6059680173	0.0001853734
5539.5347753904	0.0002113487
5541.4635827634	0.0001371992
5543.3923901365	0.0001632820
5545.3211975095	0.0001745731
5547.2500048826	0.0001420887
5549.1788122556	0.0001944455
5551.1076196287	0.0001747639
5553.0364270017	0.0002217093
5554.9652343747	0.0002496850
5556.8940417478	0.0001909095
5558.8228491208	0.0001753421
5560.7516564939	0.0001248591
5562.6804638669	0.0001577860
5564.6092712400	0.0001927218
5566.5380786130	0.0001727138
5568.4668859861	0.0002088742
5570.3956933591	0.0001750877
5572.3245007322	0.0001682214
5574.2533081052	0.0001920877
5576.1821154783	0.0001903283
5578.1109228513	0.0002086059
5580.0397302244	0.0001694530
5581.9685375974	0.0001880209
5583.8973449704	0.0002109354
5585.8261523435	0.0001938471
5587.7549597165	0.0001555407
5589.6837670896	0.0001271238
5591.6125744626	0.0002215942
5593.5413818357	0.0001727013
5595.4701892087	0.0001541153
5597.3989965818	0.0002258715
5599.3278039548	0.0001632624
5601.2566113279	0.0001829603
5603.1854187009	0.0001458236
5605.1142260740	0.0001612663
5607.0430334470	0.0002183889
5608.9718408201	0.0001193562
5610.9006481931	0.0001856918
5612.8294555661	0.0002455536
5614.7582629392	0.0001452901
5616.6870703122	0.0001396344
5618.6158776853	0.0001830317
5620.5446850583	0.0001362952
5622.4734924314	0.0001541613
5624.4022998044	0.0002286697
5626.3311071775	0.0001684345
5628.2599145505	0.0001322422
5630.1887219236	0.0001453496
5632.1175292966	0.0001247773
5634.0463366697	0.0001366840
5635.9751440427	0.0001621828
5637.9039514158	0.0001572033
5639.8327587888	0.0001335168
5641.7615661619	0.0001385878
5643.6903735349	0.0000930086
5645.6191809079	0.0000875612
5647.5479882810	0.0001582202
5649.4767956540	0.0001016247
5651.4056030271	0.0001281022
5653.3344104001	0.0001816197
5655.2632177732	0.0001140326
5657.1920251462	0.0001549737
5659.1208325193	0.0001501541
5661.0496398923	0.0001195780
5662.9784472654	0.0001746324
5664.9072546384	0.0001662178
5666.8360620115	0.0001291171
5668.7648693845	0.0001841966
5670.6936767576	0.0002218603
5672.6224841306	0.0001380910
5674.5512915036	0.0001406066
5676.4800988767	0.0001041151
5678.4089062497	0.0001039604
5680.3377136228	0.0002149901
5682.2665209958	0.0001255258
5684.1953283689	0.0001285263
5686.1241357419	0.0002017237
5688.0529431150	0.0001617025
5689.9817504880	0.0001257669
5691.9105578611	0.0001457343
5693.8393652341	0.0002169530
5695.7681726072	0.0001672502
5697.6969799802	0.0001729561
5699.6257873533	0.0001385927
5701.5545947263	0.0000617335
5703.4834020993	0.0001343423
5705.4122094724	0.0001233768
5707.3410168454	0.0001689727
5709.2698242185	0.0002202236
5711.1986315915	0.0001523106
5713.1274389646	0.0001169476
5715.0562463376	0.0001537041
5716.9850537107	0.0002035616
5718.9138610837	0.0001526976
5720.8426684568	0.0001308274
5722.7714758298	0.0001530761
5724.7002832029	0.0001928265
5726.6290905759	0.0001742016
5728.5578979490	0.0001150153
5730.4867053220	0.0001547223
5732.4155126950	0.0000970337
5734.3443200681	0.0000983724
5736.2731274411	0.0002021278
5738.2019348142	0.0001722351
5740.1307421872	0.0001647582
5742.0595495603	0.0001820798
5743.9883569333	0.0001375293
5745.9171643064	0.0001585696
5747.8459716794	0.0002216637
5749.7747790525	0.0001615981
5751.7035864255	0.0001209000
5753.6323937986	0.0001951645
5755.5612011716	0.0001867506
5757.4900085447	0.0001535380
5759.4188159177	0.0001490602
5761.3476232907	0.0001403006
5763.2764306638	0.0001930126
5765.2052380368	0.0001566464
5767.1340454099	0.0001348914
5769.0628527829	0.0001992305
5770.9916601560	0.0001104644
5772.9204675290	0.0000787530
5774.8492749021	0.0001726768
5776.7780822751	0.0001927032
5778.7068896482	0.0001529913
5780.6356970212	0.0001166248
5782.5645043943	0.0001508556
5784.4933117673	0.0001854490
5786.4221191404	0.0001648991
5788.3509265134	0.0001246828
5790.2797338865	0.0001259797
5792.2085412595	0.0001424808
5794.1373486325	0.0001625232
5796.0661560056	0.0001692899
5797.9949633786	0.0000894141
5799.9237707517	0.0001508204
5801.8525781247	0.0002445031
5803.7813854978	0.0001385731
5805.7101928708	0.0001319601
5807.6390002439	0.0001866538
5809.5678076169	0.0001383640
5811.4966149900	0.0001386233
5813.4254223630	0.0001443001
5815.3542297361	0.0001573512
5817.2830371091	0.0001910587
5819.2118444822	0.0001369315
5821.1406518552	0.0001542357
5823.0694592282	0.0001873727
5824.9982666013	0.0001387996
5826.9270739743	0.0001435556
5828.8558813474	0.0001126635
5830.7846887204	0.0001062248
5832.7134960935	0.0001374409
5834.6423034665	0.0001326344
5836.5711108396	0.0001593858
5838.4999182126	0.0001736014
5840.4287255857	0.0001804095
5842.3575329587	0.0001447465
5844.2863403318	0.0001429519
5846.2151477048	0.0001811115
5848.1439550779	0.0000909894
5850.0727624509	0.0001176909
5852.0015698239	0.0002191426
5853.9303771970	0.0001426515
5855.8591845700	0.0001360521
5857.7879919431	0.0000918047
5859.7167993161	0.0000221775
5861.6456066892	0.0001559735
5863.5744140622	0.0001560120
5865.5032214353	0.0001109701
5867.4320288083	0.0001468588
5869.3608361814	0.0001076735
5871.2896435544	0.0000951201
5873.2184509275	0.0000956662
5875.1472583005	0.0001113135
5877.0760656736	0.0000729777
5879.0048730466	0.0000717807
5880.9336804196	0.0001517696
5882.8624877927	0.0001644893
5884.7912951657	0.0001724991
5886.7201025388	0.0001319400
5888.6489099118	0.0001129309
5890.5777172849	0.0001373159
5892.5065246579	0.0001769285
5894.4353320310	0.0001534638
5896.3641394040	0.0000852205
5898.2929467771	0.0001561804
5900.2217541501	0.0001360646
5902.1505615232	0.0001278741
5904.0793688962	0.0001613799
5906.0081762693	0.0001552766
5907.9369836423	0.0001817300
5909.8657910154	0.0001007988
5911.7945983884	0.0001118740
5913.7234057614	0.0000862418
5915.6522131345	0.0000464542
5917.5810205075	0.0001251752
5919.5098278806	0.0001156137
5921.4386352536	0.0001187620
5923.3674426267	0.0000951496
5925.2962499997	0.0001475227
5927.2250573728	0.0001997909
5929.1538647458	0.0001219475
5931.0826721189	0.0001205154
5933.0114794919	0.0001422156
5934.9402868650	0.0001253063
5936.8690942380	0.0000933529
5938.7979016111	0.0001082943
5940.7267089841	0.0001113952
5942.6555163571	0.0000745518
5944.5843237302	0.0000655598
5946.5131311032	0.0001311906
5948.4419384763	0.0001689640
5950.3707458493	0.0001079346
5952.2995532224	0.0001363216
5954.2283605954	0.0001024302
5956.1571679685	0.0000903479
5958.0859753415	0.0001305223
5960.0147827146	0.0000861811
5961.9435900876	0.0001176112
5963.8723974607	0.0000735639
5965.8012048337	0.0001423475
5967.7300122068	0.0001981579
5969.6588195798	0.0000458294
5971.5876269528	0.0000900615
5973.5164343259	0.0001283934
5975.4452416989	0.0001123115
5977.3740490720	0.0001538055
5979.3028564450	0.0000919156
5981.2316638181	0.0001044845
5983.1604711911	0.0001946685
5985.0892785642	0.0001328723
5987.0180859372	0.0000912708
5988.9468933103	0.0001358813
5990.8757006833	0.0001092550
5992.8045080564	0.0001073720
5994.7333154294	0.0001022255
5996.6621228025	0.0001568777
5998.5909301755	0.0001929424
6000.5197375485	0.0000895318
