399.2631262207	0.0006871017
401.1919335938	0.0006315601
403.1207409668	0.0012597386
405.0495483398	0.0010460661
406.9783557129	0.0008103317
408.9071630859	0.0013243982
410.8359704590	0.0011193557
412.7647778320	0.0013962411
414.6935852051	0.0018515845
416.6223925781	0.0009821146
418.5511999512	0.0009579004
420.4800073242	0.0016753429
422.4088146973	0.0012748742
424.3376220703	0.0013057860
426.2664294434	0.0015247351
428.1952368164	0.0011893113
430.1240441895	0.0013237000
432.0528515625	0.0011120350
433.9816589355	0.0012127414
435.9104663086	0.0013687572
437.8392736816	0.0008003361
439.7680810547	0.0008548785
441.6968884277	0.0009047626
443.6256958008	0.0009088921
445.5545031738	0.0010206425
447.4833105469	0.0009695111
449.4121179199	0.0011429330
451.3409252930	0.0013080132
453.2697326660	0.0011270142
455.1985400391	0.0008032424
457.1273474121	0.0011000328
459.0561547852	0.0012212510
460.9849621582	0.0013158163
462.9137695313	0.0014369856
464.8425769043	0.0010167669
466.7713842773	0.0008590837
468.7001916504	0.0007919047
470.6289990234	0.0011328910
472.5578063965	0.0007370913
474.4866137695	0.0005780494
476.4154211426	0.0012270678
478.3442285156	0.0006555169
480.2730358887	0.0008203163
482.2018432617	0.0008892086
484.1306506348	0.0004162156
486.0594580078	0.0006041868
487.9882653809	0.0008261499
489.9170727539	0.0010448556
491.8458801270	0.0009165561
493.7746875000	0.0009132758
495.7034948730	0.0006242652
497.6323022461	0.0006370681
499.5611096191	0.0007958401
501.4899169922	0.0009722299
503.4187243652	0.0011538113
505.3475317383	0.0005953459
507.2763391113	0.0007382631
509.2051464844	0.0003898508
511.1339538574	0.0002568601
513.0627612305	0.0007389344
514.9915686035	0.0006785495
516.9203759766	0.0008594427
518.8491833496	0.0007757996
520.7779907227	0.0008266466
522.7067980957	0.0006454048
524.6356054688	0.0008042707
526.5644128418	0.0008056352
528.4932202148	0.0006344204
530.4220275879	0.0008789094
532.3508349609	0.0003919730
534.2796423340	0.0007054321
536.2084497070	0.0006522396
538.1372570801	0.0006142386
540.0660644531	0.0008807370
541.9948718262	0.0002759879
543.9236791992	0.0005069299
545.8524865723	0.0008353986
547.7812939453	0.0009709848
549.7101013184	0.0007619080
551.6389086914	0.0005954430
553.5677160645	0.0007405473
555.4965234375	0.0008971910
557.4253308105	0.0008975651
559.3541381836	0.0004370101
561.2829455566	0.0007886569
563.2117529297	0.0008691159
565.1405603027	0.0009239723
567.0693676758	0.0008283976
568.9981750488	0.0003703618
570.9269824219	0.0010869052
572.8557897949	0.0010698778
574.7845971680	0.0006317813
576.7134045410	0.0008503085
578.6422119141	0.0008461701
580.5710192871	0.0006025047
582.4998266602	0.0005650257
584.4286340332	0.0007773997
586.3574414063	0.0009374584
588.2862487793	0.0010013934
590.2150561523	0.0008425472
592.1438635254	0.0006675759
594.0726708984	0.0003930611
596.0014782715	0.0007550578
597.9302856445	0.0008848991
599.8590930176	0.0005168584
601.7879003906	0.0010076213
603.7167077637	0.0007384247
605.6455151367	0.0005624652
607.5743225098	0.0010964201
609.5031298828	0.0007307117
611.4319372559	0.0004102415
613.3607446289	0.0007090905
615.2895520020	0.0005502608
617.2183593750	0.0002860950
619.1471667480	0.0008807632
621.0759741211	0.0009710780
623.0047814941	0.0004980062
624.9335888672	0.0002789257
626.8623962402	0.0001703379
628.7912036133	0.0005142757
630.7200109863	0.0006911165
632.6488183594	0.0006554204
634.5776257324	0.0009479182
636.5064331055	0.0014247331
638.4352404785	0.0014649108
640.3640478516	0.0011656445
642.2928552246	0.0015959663
644.2216625977	0.0018821748
646.1504699707	0.0014120498
648.0792773438	0.0018177546
650.0080847168	0.0020095326
651.9368920898	0.0019537618
653.8656994629	0.0024590420
655.7945068359	0.0023268235
657.7233142090	0.0022616901
659.6521215820	0.0023776987
661.5809289551	0.0023566084
663.5097363281	0.0025190334
665.4385437012	0.0026123726
667.3673510742	0.0023896717
669.2961584473	0.0025256458
671.2249658203	0.0030432055
673.1537731934	0.0029966806
675.0825805664	0.0031267456
677.0113879395	0.0033693195
678.9401953125	0.0035665168
680.8690026855	0.0037442478
682.7978100586	0.0034971065
684.7266174316	0.0035909130
686.6554248047	0.0037572365
688.5842321777	0.0035346295
690.5130395508	0.0035776822
692.4418469238	0.0040182490
694.3706542969	0.0040988615
696.2994616699	0.0044046016
698.2282690430	0.0052424883
700.1570764160	0.0057016267
702.0858837891	0.0056318464
704.0146911621	0.0051246239
705.9434985352	0.0048587448
707.8723059082	0.0042338339
709.8011132813	0.0032291890
711.7299206543	0.0026751638
713.6587280273	0.0016835344
715.5875354004	0.0008936778
717.5163427734	0.0007614684
719.4451501465	0.0004492333
721.3739575195	0.0003669221
723.3027648926	0.0004534494
725.2315722656	0.0004071153
727.1603796387	0.0004273869
729.0891870117	0.0004823372
731.0179943848	0.0004330494
732.9468017578	0.0001589570
734.8756091309	0.0001243365
736.8044165039	0.0004810275
738.7332238770	0.0005008932
740.6620312500	0.0004045030
742.5908386230	0.0005059335
744.5196459961	0.0004963556
746.4484533691	0.0006454067
748.3772607422	0.0009746635
750.3060681152	0.0009608343
752.2348754883	0.0006940867
754.1636828613	0.0006728380
756.0924902344	0.0009982917
758.0212976074	0.0007550624
759.9501049805	0.0004736964
761.8789123535	0.0008635031
763.8077197266	0.0007000177
765.7365270996	0.0002260051
767.6653344727	0.0006167387
769.5941418457	0.0006447501
771.5229492188	0.0004212772
773.4517565918	0.0006997972
775.3805639648	0.0005696487
777.3093713379	0.0008712806
779.2381787109	0.0009027320
781.1669860840	0.0007528726
783.0957934570	0.0010145144
785.0246008301	0.0006101506
786.9534082031	0.0004859917
788.8822155762	0.0006390598
790.8110229492	0.0006729276
792.7398303223	0.0006751613
794.6686376953	0.0006971624
796.5974450684	0.0008494296
798.5262524414	0.0010914539
800.4550598145	0.0009585553
802.3838671875	0.0008991495
804.3126745605	0.0010713674
806.2414819336	0.0006343946
808.1702893066	0.0008808939
810.0990966797	0.0006131987
812.0279040527	0.0004084817
813.9567114258	0.0007530554
815.8855187988	0.0001323628
817.8143261719	0.0005100836
819.7431335449	0.0006883937
821.6719409180	0.0005023371
823.6007482910	0.0005487505
825.5295556641	0.0004469147
827.4583630371	0.0008351684
829.3871704102	0.0009439669
831.3159777832	0.0009952749
833.2447851563	0.0011749647
835.1735925293	0.0016589623
837.1023999023	0.0019208360
839.0312072754	0.0016767823
840.9600146484	0.0016171113
842.8888220215	0.0016797630
844.8176293945	0.0014168690
846.7464367676	0.0011677580
848.6752441406	0.0012849724
850.6040515137	0.0011196637
852.5328588867	0.0011445879
854.4616662598	0.0010236555
856.3904736328	0.0010069173
858.3192810059	0.0011414436
860.2480883789	0.0008864916
862.1768957520	0.0010377384
864.1057031250	0.0007304530
866.0345104980	0.0005937581
867.9633178711	0.0007515598
869.8921252441	0.0004760969
871.8209326172	0.0006199846
873.7497399902	0.0007234773
875.6785473633	0.0004850787
877.6073547363	0.0005210458
879.5361621094	0.0006493849
881.4649694824	0.0002031250
883.3937768555	0.0004553267
885.3225842285	0.0005823521
887.2513916016	0.0002765330
889.1801989746	0.0006761308
891.1090063477	0.0004012846
893.0378137207	0.0005119221
894.9666210938	0.0008262668
896.8954284668	0.0007439812
898.8242358398	0.0006757431
900.7530432129	0.0002212914
902.6818505859	0.0002470941
904.6106579590	0.0004898143
906.5394653320	0.0005147196
908.4682727051	0.0007412508
910.3970800781	0.0007974963
912.3258874512	0.0005474325
914.2546948242	0.0010444005
916.1835021973	0.0011754290
918.1123095703	0.0011931317
920.0411169434	0.0015555937
921.9699243164	0.0012276969
923.8987316895	0.0014619790
925.8275390625	0.0017513252
927.7563464355	0.0020562997
929.6851538086	0.0020673834
931.6139611816	0.0018050416
933.5427685547	0.0022145472
935.4715759277	0.0023264589
937.4003833008	0.0025320316
939.3291906738	0.0026967805
941.2579980469	0.0028354914
943.1868054199	0.0029020589
945.1156127930	0.0027760619
947.0444201660	0.0029160446
948.9732275391	0.0029832912
950.9020349121	0.0028455784
952.8308422852	0.0026673551
954.7596496582	0.0029529068
956.6884570313	0.0028717078
958.6172644043	0.0028050547
960.5460717773	0.0028480780
962.4748791504	0.0026873392
964.4036865234	0.0029230653
966.3324938965	0.0026906077
968.2613012695	0.0028900751
970.1901086426	0.0034572121
972.1189160156	0.0035970486
974.0477233887	0.0034779510
975.9765307617	0.0037055779
977.9053381348	0.0045749522
979.8341455078	0.0047849142
981.7629528809	0.0051041460
983.6917602539	0.0056601558
985.6205676270	0.0061807502
987.5493750000	0.0071220621
989.4781823730	0.0079071578
991.4069897461	0.0084693274
993.3357971191	0.0092721004
995.2646044922	0.0103909429
997.1934118652	0.0112037063
999.1222192383	0.0122533124
1001.0510266113	0.0130930264
1002.9798339844	0.0136660784
1004.9086413574	0.0147955213
1006.8374487305	0.0156388581
1008.7662561035	0.0164998248
1010.6950634766	0.0175223146
1012.6238708496	0.0184710175
1014.5526782227	0.0195790194
1016.4814855957	0.0208590440
1018.4102929688	0.0216951780
1020.3391003418	0.0224672500
1022.2679077148	0.0237805042
1024.1967150879	0.0245285966
1026.1255224609	0.0254307091
1028.0543298340	0.0264150258
1029.9831372070	0.0270168409
1031.9119445801	0.0278461985
1033.8407519531	0.0282389391
1035.7695593262	0.0285917930
1037.6983666992	0.0291259959
1039.6271740723	0.0293526053
1041.5559814453	0.0291308910
1043.4847888184	0.0289074145
1045.4135961914	0.0286807455
1047.3424035645	0.0281635970
1049.2712109375	0.0278850421
1051.2000183105	0.0273334142
1053.1288256836	0.0268433131
1055.0576330566	0.0264400318
1056.9864404297	0.0255505200
1058.9152478027	0.0250840075
1060.8440551758	0.0245384406
1062.7728625488	0.0236383416
1064.7016699219	0.0230440870
1066.6304772949	0.0222308654
1068.5592846680	0.0210329518
1070.4880920410	0.0202353112
1072.4168994141	0.0194813609
1074.3457067871	0.0182601903
1076.2745141602	0.0175780039
1078.2033215332	0.0168441460
1080.1321289062	0.0158094373
1082.0609362793	0.0152688948
1083.9897436523	0.0144887343
1085.9185510254	0.0139188282
1087.8473583984	0.0134591460
1089.7761657715	0.0125372643
1091.7049731445	0.0119744577
1093.6337805176	0.0117681678
1095.5625878906	0.0113295596
1097.4913952637	0.0106361322
1099.4202026367	0.0103985155
1101.3490100098	0.0102193095
1103.2778173828	0.0099440422
1105.2066247559	0.0098421853
1107.1354321289	0.0095383357
1109.0642395019	0.0095985215
1110.9930468750	0.0093844216
1112.9218542480	0.0090373242
1114.8506616211	0.0093199611
1116.7794689941	0.0090841372
1118.7082763672	0.0088820308
1120.6370837402	0.0092591662
1122.5658911133	0.0093065565
1124.4946984863	0.0092577990
1126.4235058594	0.0093962429
1128.3523132324	0.0096537657
1130.2811206055	0.0098909512
1132.2099279785	0.0099847969
1134.1387353516	0.0105048176
1136.0675427246	0.0110314246
1137.9963500977	0.0113627538
1139.9251574707	0.0121183619
1141.8539648437	0.0130126616
1143.7827722168	0.0137303267
1145.7115795898	0.0144188888
1147.6403869629	0.0155879222
1149.5691943359	0.0164766982
1151.4980017090	0.0171819031
1153.4268090820	0.0181571059
1155.3556164551	0.0188090764
1157.2844238281	0.0196068734
1159.2132312012	0.0202399250
1161.1420385742	0.0211540908
1163.0708459473	0.0220173486
1164.9996533203	0.0227472186
1166.9284606934	0.0237951446
1168.8572680664	0.0243621692
1170.7860754394	0.0255101621
1172.7148828125	0.0263911150
1174.6436901855	0.0271981806
1176.5724975586	0.0284954496
1178.5013049316	0.0293185804
1180.4301123047	0.0304888077
1182.3589196777	0.0317725800
1184.2877270508	0.0333554372
1186.2165344238	0.0347571261
1188.1453417969	0.0362337306
1190.0741491699	0.0380915031
1192.0029565430	0.0397240669
1193.9317639160	0.0417513475
1195.8605712891	0.0433917940
1197.7893786621	0.0454060063
1199.7181860351	0.0477021933
1201.6469934082	0.0494662523
1203.5758007812	0.0516868159
1205.5046081543	0.0535739213
1207.4334155273	0.0552455559
1209.3622229004	0.0573833212
1211.2910302734	0.0590078607
1213.2198376465	0.0604765899
1215.1486450195	0.0623551905
1217.0774523926	0.0635380149
1219.0062597656	0.0645307675
1220.9350671387	0.0656928718
1222.8638745117	0.0664837882
1224.7926818848	0.0672012419
1226.7214892578	0.0675025135
1228.6502966308	0.0676420480
1230.5791040039	0.0679746866
1232.5079113769	0.0682719350
1234.4367187500	0.0682779104
1236.3655261230	0.0681833401
1238.2943334961	0.0681206584
1240.2231408691	0.0680534691
1242.1519482422	0.0679336712
1244.0807556152	0.0675315708
1246.0095629883	0.0671758950
1247.9383703613	0.0666526407
1249.8671777344	0.0662572235
1251.7959851074	0.0658218712
1253.7247924805	0.0651204437
1255.6535998535	0.0643790662
1257.5824072266	0.0633766204
1259.5112145996	0.0623366013
1261.4400219726	0.0611521155
1263.3688293457	0.0606108569
1265.2976367187	0.0600071289
1267.2264440918	0.0591185987
1269.1552514648	0.0584552661
1271.0840588379	0.0573649108
1273.0128662109	0.0564564839
1274.9416735840	0.0555068292
1276.8704809570	0.0545355007
1278.7992883301	0.0532279648
1280.7280957031	0.0521319322
1282.6569030762	0.0512865335
1284.5857104492	0.0501572415
1286.5145178223	0.0494788438
1288.4433251953	0.0485757254
1290.3721325683	0.0480307117
1292.3009399414	0.0474700183
1294.2297473144	0.0470955819
1296.1585546875	0.0469129942
1298.0873620605	0.0465504974
1300.0161694336	0.0467294157
1301.9449768066	0.0467597544
1303.8737841797	0.0474963337
1305.8025915527	0.0478603169
1307.7313989258	0.0482631326
1309.6602062988	0.0492080860
1311.5890136719	0.0499020852
1313.5178210449	0.0512414128
1315.4466284180	0.0522486717
1317.3754357910	0.0534783304
1319.3042431640	0.0546654090
1321.2330505371	0.0564035028
1323.1618579101	0.0584233999
1325.0906652832	0.0597308986
1327.0194726562	0.0616435632
1328.9482800293	0.0631653965
1330.8770874023	0.0647935718
1332.8058947754	0.0663183331
1334.7347021484	0.0674818680
1336.6635095215	0.0682711825
1338.5923168945	0.0680265874
1340.5211242676	0.0690689459
1342.4499316406	0.0711948499
1344.3787390137	0.0717372149
1346.3075463867	0.0715435445
1348.2363537597	0.0716055483
1350.1651611328	0.0712008178
1352.0939685058	0.0710822418
1354.0227758789	0.0702797323
1355.9515832519	0.0695262700
1357.8803906250	0.0692337751
1359.8091979980	0.0680677295
1361.7380053711	0.0657699183
1363.6668127441	0.0647249371
1365.5956201172	0.0671352595
1367.5244274902	0.0659073591
1369.4532348633	0.0652017742
1371.3820422363	0.0662869513
1373.3108496094	0.0630698204
1375.2396569824	0.0635375157
1377.1684643555	0.0647674352
1379.0972717285	0.0645414889
1381.0260791015	0.0645035058
1382.9548864746	0.0641918182
1384.8836938476	0.0643648580
1386.8125012207	0.0618782043
1388.7413085937	0.0630438104
1390.6701159668	0.0672812238
1392.5989233398	0.0659198612
1394.5277307129	0.0623853207
1396.4565380859	0.0649697706
1398.3853454590	0.0650698841
1400.3141528320	0.0643542260
1402.2429602051	0.0690705776
1404.1717675781	0.0658006594
1406.1005749512	0.0661452860
1408.0293823242	0.0683824122
1409.9581896972	0.0661069453
1411.8869970703	0.0674186051
1413.8158044433	0.0649303198
1415.7446118164	0.0658433884
1417.6734191894	0.0605609678
1419.6022265625	0.0549423993
1421.5310339355	0.0612314641
1423.4598413086	0.0596399643
1425.3886486816	0.0579944700
1427.3174560547	0.0583179295
1429.2462634277	0.0544906221
1431.1750708008	0.0525162816
1433.1038781738	0.0529916883
1435.0326855469	0.0488868505
1436.9614929199	0.0423262678
1438.8903002929	0.0468096733
1440.8191076660	0.0477013402
1442.7479150390	0.0446588695
1444.6767224121	0.0460724756
1446.6055297851	0.0430808291
1448.5343371582	0.0434696637
1450.4631445312	0.0444923863
1452.3919519043	0.0455663353
1454.3207592773	0.0473224483
1456.2495666504	0.0404088423
1458.1783740234	0.0419709012
1460.1071813965	0.0540817007
1462.0359887695	0.0574484393
1463.9647961426	0.0574370697
1465.8936035156	0.0599729419
1467.8224108886	0.0677312016
1469.7512182617	0.0726352930
1471.6800256347	0.0662451237
1473.6088330078	0.0698586851
1475.5376403808	0.0788734406
1477.4664477539	0.0845280439
1479.3952551269	0.0919106007
1481.3240625000	0.0937835574
1483.2528698730	0.0992307216
1485.1816772461	0.1025041491
1487.1104846191	0.1017786637
1489.0392919922	0.1019499004
1490.9680993652	0.1029652953
1492.8969067383	0.1171653643
1494.8257141113	0.1155208349
1496.7545214843	0.1057910398
1498.6833288574	0.1178377569
1500.6121362304	0.1210935861
1502.5409436035	0.1286045909
1504.4697509765	0.1230794191
1506.3985583496	0.0941457972
1508.3273657226	0.1120187864
1510.2561730957	0.1286748350
1512.1849804687	0.1247831658
1514.1137878418	0.1339449733
1516.0425952148	0.1227950826
1517.9714025879	0.1275058389
1519.9002099609	0.1232062578
1521.8290173340	0.1094089001
1523.7578247070	0.1297155619
1525.6866320801	0.1276782453
1527.6154394531	0.1274634600
1529.5442468261	0.1384207010
1531.4730541992	0.1340171099
1533.4018615722	0.1245227605
1535.3306689453	0.1305492669
1537.2594763183	0.1378965676
1539.1882836914	0.1037039310
1541.1170910644	0.1072891355
1543.0458984375	0.1254819632
1544.9747058105	0.1217474192
1546.9035131836	0.1397278905
1548.8323205566	0.1316951513
1550.7611279297	0.1353418380
1552.6899353027	0.1342348456
1554.6187426758	0.1234291643
1556.5475500488	0.1303943098
1558.4763574218	0.0970601290
1560.4051647949	0.1028570533
1562.3339721679	0.1390748322
1564.2627795410	0.1326764822
1566.1915869140	0.1353044808
1568.1203942871	0.1340399235
1570.0492016601	0.1206761152
1571.9780090332	0.1356933117
1573.9068164062	0.1368786693
1575.8356237793	0.1115325317
1577.7644311523	0.1234957576
1579.6932385254	0.1375483572
1581.6220458984	0.1317044646
1583.5508532715	0.1343558729
1585.4796606445	0.1320126951
1587.4084680175	0.1324866116
1589.3372753906	0.1312849820
1591.2660827636	0.1304358691
1593.1948901367	0.1303325146
1595.1236975097	0.1283993721
1597.0525048828	0.1294532716
1598.9813122558	0.1278044879
1600.9101196289	0.1277416795
1602.8389270019	0.1251675040
1604.7677343750	0.1262150109
1606.6965417480	0.1241374388
1608.6253491211	0.1228634417
1610.5541564941	0.1220156699
1612.4829638672	0.1218555942
1614.4117712402	0.1225902140
1616.3405786132	0.1019845158
1618.2693859863	0.1085474193
1620.1981933593	0.1234428585
1622.1270007324	0.1104273722
1624.0558081054	0.1105857864
1625.9846154785	0.1142246127
1627.9134228515	0.1134575233
1629.8422302246	0.1121169925
1631.7710375976	0.1183743179
1633.6998449707	0.1105565429
1635.6286523437	0.0932260230
1637.5574597168	0.1064796001
1639.4862670898	0.1154577658
1641.4150744629	0.1131092459
1643.3438818359	0.1160249412
1645.2726892090	0.1064113379
1647.2014965820	0.0958051309
1649.1303039550	0.1158847287
1651.0591113281	0.1108066738
1652.9879187011	0.0760008693
1654.9167260742	0.0994057283
1656.8455334472	0.1215893030
1658.7743408203	0.1173414141
1660.7031481933	0.1216110587
1662.6319555664	0.1123450324
1664.5607629394	0.1180084497
1666.4895703125	0.1262469739
1668.4183776855	0.1134297028
1670.3471850586	0.1112963557
1672.2759924316	0.1244817451
1674.2047998047	0.1170722023
1676.1336071777	0.1132842228
1678.0624145507	0.1288985163
1679.9912219238	0.1255940199
1681.9200292968	0.1252183616
1683.8488366699	0.1053074524
1685.7776440429	0.1042002439
1687.7064514160	0.1383107752
1689.6352587890	0.1229251772
1691.5640661621	0.1335420609
1693.4928735351	0.1367990971
1695.4216809082	0.1042048931
1697.3504882812	0.1255326271
1699.2792956543	0.1137248129
1701.2081030273	0.1039504856
1703.1369104004	0.1361762583
1705.0657177734	0.1270919144
1706.9945251464	0.1280837655
1708.9233325195	0.1379370391
1710.8521398925	0.1336238384
1712.7809472656	0.1361123025
1714.7097546386	0.1280536652
1716.6385620117	0.1169179678
1718.5673693847	0.1152212024
1720.4961767578	0.1339234412
1722.4249841308	0.1384019405
1724.3537915039	0.1299082339
1726.2825988769	0.1398693919
1728.2114062500	0.1306795776
1730.1402136230	0.1322622001
1732.0690209961	0.1289550960
1733.9978283691	0.1022732183
1735.9266357421	0.1232786179
1737.8554431152	0.1350244135
1739.7842504882	0.1221360862
1741.7130578613	0.1316094100
1743.6418652343	0.1338188350
1745.5706726074	0.1338411570
1747.4994799804	0.1354374439
1749.4282873535	0.1307543218
1751.3570947265	0.1258454323
1753.2859020996	0.1372700930
1755.2147094726	0.1431923807
1757.1435168457	0.1326578856
1759.0723242187	0.1435061693
1761.0011315918	0.1367362589
1762.9299389648	0.1322166920
1764.8587463379	0.1483672857
1766.7875537109	0.1361397207
1768.7163610839	0.1370110512
1770.6451684570	0.1366706789
1772.5739758300	0.1243982464
1774.5027832031	0.1366055161
1776.4315905761	0.1436037421
1778.3603979492	0.1416405141
1780.2892053222	0.1405079067
1782.2180126953	0.1413058341
1784.1468200683	0.1411883235
1786.0756274414	0.1388891339
1788.0044348144	0.1448027939
1789.9332421875	0.1421484649
1791.8620495605	0.1304838061
1793.7908569336	0.1348724514
1795.7196643066	0.1436103880
1797.6484716796	0.1418023109
1799.5772790527	0.1401371658
1801.5060864257	0.1384268105
1803.4348937988	0.1418965459
1805.3637011718	0.1445418000
1807.2925085449	0.1426931620
1809.2213159179	0.1433286369
1811.1501232910	0.1403206885
1813.0789306640	0.1438331902
1815.0077380371	0.1442156136
1816.9365454101	0.1427189708
1818.8653527832	0.1440640390
1820.7941601562	0.1433935016
1822.7229675293	0.1452717632
1824.6517749023	0.1373660415
1826.5805822753	0.1414357424
1828.5093896484	0.1416606903
1830.4381970214	0.1340335011
1832.3670043945	0.1441715211
1834.2958117675	0.1432595253
1836.2246191406	0.1429627389
1838.1534265136	0.1425413638
1840.0822338867	0.1431362480
1842.0110412597	0.1434836835
1843.9398486328	0.1295559108
1845.8686560058	0.1366327107
1847.7974633789	0.1431527287
1849.7262707519	0.1403121650
1851.6550781250	0.1438045800
1853.5838854980	0.1412866116
1855.5126928710	0.1425520182
1857.4415002441	0.1419612169
1859.3703076171	0.1410209239
1861.2991149902	0.1417821944
1863.2279223632	0.1403330117
1865.1567297363	0.1416162699
1867.0855371093	0.1377232671
1869.0143444824	0.1328008324
1870.9431518554	0.1371154487
1872.8719592285	0.1414807290
1874.8007666015	0.1395066828
1876.7295739746	0.1400254965
1878.6583813476	0.1396624446
1880.5871887207	0.1388632804
1882.5159960937	0.1398116648
1884.4448034667	0.1380694956
1886.3736108398	0.1394976377
1888.3024182128	0.1368626356
1890.2312255859	0.1346291006
1892.1600329589	0.1386526227
1894.0888403320	0.1370412260
1896.0176477050	0.1365607232
1897.9464550781	0.1377687603
1899.8752624511	0.1370848119
1901.8040698242	0.1375111192
1903.7328771972	0.1366508901
1905.6616845703	0.1370824277
1907.5904919433	0.1359823346
1909.5192993164	0.1350807548
1911.4481066894	0.1358083189
1913.3769140625	0.1357679069
1915.3057214355	0.1367216706
1917.2345288085	0.1316700578
1919.1633361816	0.1317842007
1921.0921435546	0.1360759735
1923.0209509277	0.1323654950
1924.9497583007	0.1345524490
1926.8785656738	0.1355976760
1928.8073730468	0.1341008693
1930.7361804199	0.1353174150
1932.6649877929	0.1337434351
1934.5937951660	0.1348144710
1936.5226025390	0.1339476705
1938.4514099121	0.1343589425
1940.3802172851	0.1341881603
1942.3090246582	0.1305744648
1944.2378320312	0.1326394379
1946.1666394042	0.1336219609
1948.0954467773	0.1333553493
1950.0242541503	0.1337670833
1951.9530615234	0.1331820488
1953.8818688964	0.1333422661
1955.8106762695	0.1328801215
1957.7394836425	0.1329673827
1959.6682910156	0.1328972876
1961.5970983886	0.1327082515
1963.5259057617	0.1329502612
1965.4547131347	0.1321086287
1967.3835205078	0.1309804916
1969.3123278808	0.1319347024
1971.2411352539	0.1325644702
1973.1699426269	0.1317779869
1975.0987499999	0.1320420802
1977.0275573730	0.1315506399
1978.9563647460	0.1313823760
1980.8851721191	0.1313615441
1982.8139794921	0.1309797168
1984.7427868652	0.1311044395
1986.6715942382	0.1302767098
1988.6004016113	0.1302663088
1990.5292089843	0.1294746101
1992.4580163574	0.1282781959
1994.3868237304	0.1294668317
1996.3156311035	0.1297356486
1998.2444384765	0.1289759576
2000.1732458496	0.1289636195
2002.1020532226	0.1286554933
2004.0308605956	0.1283040494
2005.9596679687	0.1280965507
2007.8884753417	0.1278626621
2009.8172827148	0.1276315600
2011.7460900878	0.1271246374
2013.6748974609	0.1270668656
2015.6037048339	0.1264607608
2017.5325122070	0.1254810989
2019.4613195800	0.1258614659
2021.3901269531	0.1259512603
2023.3189343261	0.1255363822
2025.2477416992	0.1252854913
2027.1765490722	0.1249563396
2029.1053564453	0.1247994900
2031.0341638183	0.1242850125
2032.9629711914	0.1239930391
2034.8917785644	0.1238783598
2036.8205859374	0.1234828308
2038.7493933105	0.1232576370
2040.6782006835	0.1226827353
2042.6070080566	0.1223606467
2044.5358154296	0.1223523021
2046.4646228027	0.1220396906
2048.3934301757	0.1218353361
2050.3222375488	0.1214700192
2052.2510449218	0.1213585734
2054.1798522949	0.1210532486
2056.1086596679	0.1206035912
2058.0374670410	0.1205584481
2059.9662744140	0.1201824844
2061.8950817871	0.1200555861
2063.8238891601	0.1194733605
2065.7526965331	0.1188917011
2067.6815039062	0.1191291586
2069.6103112792	0.1188884228
2071.5391186523	0.1187451556
2073.4679260253	0.1186221391
2075.3967333984	0.1182307899
2077.3255407714	0.1181031838
2079.2543481445	0.1177753061
2081.1831555175	0.1173229963
2083.1119628906	0.1172883362
2085.0407702636	0.1171152070
2086.9695776367	0.1167336404
2088.8983850097	0.1165058911
2090.8271923828	0.1162142009
2092.7559997558	0.1161478683
2094.6848071288	0.1158589870
2096.6136145019	0.1155665517
2098.5424218749	0.1154509634
2100.4712292480	0.1152270287
2102.4000366210	0.1151217669
2104.3288439941	0.1147687212
2106.2576513671	0.1146556512
2108.1864587402	0.1145307273
2110.1152661132	0.1142382398
2112.0440734863	0.1141058281
2113.9728808593	0.1138446033
2115.9016882324	0.1136167198
2117.8304956054	0.1135383770
2119.7593029785	0.1134222522
2121.6881103515	0.1131169647
2123.6169177245	0.1130170524
2125.5457250976	0.1127724573
2127.4745324706	0.1126337126
2129.4033398437	0.1125206202
2131.3321472167	0.1122309193
2133.2609545898	0.1122692823
2135.1897619628	0.1119890362
2137.1185693359	0.1118772775
2139.0473767089	0.1117653474
2140.9761840820	0.1115687564
2142.9049914550	0.1115221530
2144.8337988281	0.1113949046
2146.7626062011	0.1113059670
2148.6914135742	0.1108986512
2150.6202209472	0.1108496636
2152.5490283203	0.1108527035
2154.4778356933	0.1107726693
2156.4066430663	0.1106086299
2158.3354504394	0.1102450117
2160.2642578124	0.1101536155
2162.1930651855	0.1100517735
2164.1218725585	0.1100201458
2166.0506799316	0.1098245978
2167.9794873046	0.1098451093
2169.9082946777	0.1096947491
2171.8371020507	0.1094177738
2173.7659094238	0.1094098315
2175.6947167968	0.1091730446
2177.6235241699	0.1090830788
2179.5523315429	0.1088835001
2181.4811389160	0.1088909060
2183.4099462890	0.1087320745
2185.3387536620	0.1085747182
2187.2675610351	0.1086627021
2189.1963684081	0.1083964854
2191.1251757812	0.1082813963
2193.0539831542	0.1081364155
2194.9827905273	0.1081348509
2196.9115979003	0.1079359278
2198.8404052734	0.1077835411
2200.7692126464	0.1078021079
2202.6980200195	0.1076045185
2204.6268273925	0.1075145006
2206.5556347656	0.1073744968
2208.4844421386	0.1073758304
2210.4132495117	0.1072208881
2212.3420568847	0.1071148068
2214.2708642577	0.1068756133
2216.1996716308	0.1067833751
2218.1284790038	0.1067357063
2220.0572863769	0.1064307168
2221.9860937499	0.1065393239
2223.9149011230	0.1062728167
2225.8437084960	0.1062103286
2227.7725158691	0.1060246974
2229.7013232421	0.1057920456
2231.6301306152	0.1058251411
2233.5589379882	0.1054806560
2235.4877453613	0.1054193005
2237.4165527343	0.1052173674
2239.3453601074	0.1052104682
2241.2741674804	0.1049523801
2243.2029748534	0.1046645939
2245.1317822265	0.1045895368
2247.0605895995	0.1043932885
2248.9893969726	0.1045285612
2250.9182043456	0.1042116135
2252.8470117187	0.1041300744
2254.7758190917	0.1039318293
2256.7046264648	0.1037753820
2258.6334338378	0.1037149578
2260.5622412109	0.1032906771
2262.4910485839	0.1033655256
2264.4198559570	0.1032838672
2266.3486633300	0.1032165959
2268.2774707031	0.1029600054
2270.2062780761	0.1028234512
2272.1350854491	0.1027083844
2274.0638928222	0.1024402827
2275.9927001952	0.1026096493
2277.9215075683	0.1024716496
2279.8503149413	0.1024006307
2281.7791223144	0.1022241861
2283.7079296874	0.1021505371
2285.6367370605	0.1019476354
2287.5655444335	0.1016199514
2289.4943518066	0.1015461236
2291.4231591796	0.1011959836
2293.3519665527	0.1011369377
2295.2807739257	0.1007265821
2297.2095812988	0.1004943997
2299.1383886718	0.1002856195
2301.0671960449	0.0996438637
2302.9960034179	0.0994151831
2304.9248107909	0.0988386646
2306.8536181640	0.0982559100
2308.7824255370	0.0976526141
2310.7112329101	0.0967907906
2312.6400402831	0.0959648490
2314.5688476562	0.0951012671
2316.4976550292	0.0939436704
2318.4264624023	0.0927178115
2320.3552697753	0.0917813778
2322.2840771484	0.0904340297
2324.2128845214	0.0892564207
2326.1416918945	0.0882432982
2328.0704992675	0.0871654898
2329.9993066406	0.0862124264
2331.9281140136	0.0852855965
2333.8569213866	0.0851062089
2335.7857287597	0.0849332437
2337.7145361327	0.0847152025
2339.6433435058	0.0846822485
2341.5721508788	0.0849107057
2343.5009582519	0.0860215724
2345.4297656249	0.0875588208
2347.3585729980	0.0912534148
2349.2873803710	0.0941899121
2351.2161877441	0.0911013409
2353.1449951171	0.0864647478
2355.0738024902	0.0834245980
2357.0026098632	0.0808171034
2358.9314172363	0.0793861598
2360.8602246093	0.0786739439
2362.7890319823	0.0784419626
2364.7178393554	0.0787091479
2366.6466467284	0.0798165649
2368.5754541015	0.0813744068
2370.5042614745	0.0832181722
2372.4330688476	0.0857026130
2374.3618762206	0.0878650546
2376.2906835937	0.0901406407
2378.2194909667	0.0920364261
2380.1482983398	0.0934657678
2382.0771057128	0.0945864245
2384.0059130859	0.0951144844
2385.9347204589	0.0955174565
2387.8635278320	0.0952879041
2389.7923352050	0.0954043269
2391.7211425780	0.0954780132
2393.6499499511	0.0951629803
2395.5787573241	0.0950937048
2397.5075646972	0.0949301422
2399.4363720702	0.0949615836
2401.3651794433	0.0947690383
2403.2939868163	0.0946884975
2405.2227941894	0.0944771096
2407.1516015624	0.0941965729
2409.0804089355	0.0942677408
2411.0092163085	0.0941397995
2412.9380236816	0.0939964503
2414.8668310546	0.0938418210
2416.7956384277	0.0938280523
2418.7244458007	0.0936364830
2420.6532531738	0.0934510306
2422.5820605468	0.0933301598
2424.5108679198	0.0932017416
2426.4396752929	0.0932546556
2428.3684826659	0.0930802226
2430.2972900390	0.0929416567
2432.2260974120	0.0928028002
2434.1549047851	0.0927211344
2436.0837121581	0.0925119743
2438.0125195312	0.0924060941
2439.9413269042	0.0922941715
2441.8701342773	0.0921449214
2443.7989416503	0.0923034027
2445.7277490234	0.0918913558
2447.6565563964	0.0917933881
2449.5853637695	0.0918106511
2451.5141711425	0.0915127248
2453.4429785155	0.0914810747
2455.3717858886	0.0912906006
2457.3005932616	0.0911960453
2459.2294006347	0.0910418034
2461.1582080077	0.0909412950
2463.0870153808	0.0908493698
2465.0158227538	0.0907576159
2466.9446301269	0.0906397700
2468.8734374999	0.0904471427
2470.8022448730	0.0904012397
2472.7310522460	0.0902505070
2474.6598596191	0.0902677178
2476.5886669921	0.0900928080
2478.5174743652	0.0898910388
2480.4462817382	0.0897851735
2482.3750891112	0.0896781683
2484.3038964843	0.0896756947
2486.2327038573	0.0895413458
2488.1615112304	0.0894816667
2490.0903186034	0.0891734064
2492.0191259765	0.0891126394
2493.9479333495	0.0890361071
2495.8767407226	0.0887782127
2497.8055480956	0.0888809934
2499.7343554687	0.0887324661
2501.6631628417	0.0885484293
2503.5919702148	0.0884365141
2505.5207775878	0.0883634537
2507.4495849609	0.0881258100
2509.3783923339	0.0880226940
2511.3071997069	0.0881124139
2513.2360070800	0.0877834931
2515.1648144530	0.0877352580
2517.0936218261	0.0877371132
2519.0224291991	0.0874783397
2520.9512365722	0.0873639807
2522.8800439452	0.0873029679
2524.8088513183	0.0872325897
2526.7376586913	0.0871485770
2528.6664660644	0.0869893804
2530.5952734374	0.0868542269
2532.5240808105	0.0868155211
2534.4528881835	0.0866569281
2536.3816955566	0.0865878239
2538.3105029296	0.0865294561
2540.2393103027	0.0863798335
2542.1681176757	0.0861929804
2544.0969250487	0.0860781670
2546.0257324218	0.0860366598
2547.9545397948	0.0857507735
2549.8833471679	0.0857387409
2551.8121545409	0.0856901929
2553.7409619140	0.0853944346
2555.6697692870	0.0853337497
2557.5985766601	0.0851711482
2559.5273840331	0.0850558430
2561.4561914062	0.0849979147
2563.3849987792	0.0848356783
2565.3138061523	0.0847618654
2567.2426135253	0.0846881568
2569.1714208984	0.0845875591
2571.1002282714	0.0844334960
2573.0290356444	0.0842993557
2574.9578430175	0.0843284428
2576.8866503905	0.0841338485
2578.8154577636	0.0839085132
2580.7442651366	0.0839143842
2582.6730725097	0.0838584527
2584.6018798827	0.0837930664
2586.5306872558	0.0834311545
2588.4594946288	0.0832847059
2590.3883020019	0.0833560750
2592.3171093749	0.0830724835
2594.2459167480	0.0829866156
2596.1747241210	0.0828617066
2598.1035314941	0.0827682316
2600.0323388671	0.0827337652
2601.9611462401	0.0825539976
2603.8899536132	0.0824955255
2605.8187609862	0.0823247880
2607.7475683593	0.0821984410
2609.6763757323	0.0821346790
2611.6051831054	0.0820282400
2613.5339904784	0.0819023699
2615.4627978515	0.0817262381
2617.3916052245	0.0816275626
2619.3204125976	0.0815017670
2621.2492199706	0.0813842267
2623.1780273437	0.0812991858
2625.1068347167	0.0810945928
2627.0356420898	0.0808959976
2628.9644494628	0.0808320940
2630.8932568358	0.0807989240
2632.8220642089	0.0806336924
2634.7508715819	0.0804540962
2636.6796789550	0.0804002285
2638.6084863280	0.0801513642
2640.5372937011	0.0800555348
2642.4661010741	0.0801014304
2644.3949084472	0.0798802227
2646.3237158202	0.0797815770
2648.2525231933	0.0796329528
2650.1813305663	0.0795195997
2652.1101379394	0.0794154704
2654.0389453124	0.0792793483
2655.9677526855	0.0792190880
2657.8965600585	0.0791124552
2659.8253674315	0.0790531337
2661.7541748046	0.0788216293
2663.6829821776	0.0788000226
2665.6117895507	0.0786842704
2667.5405969237	0.0785324201
2669.4694042968	0.0784737468
2671.3982116698	0.0782024562
2673.3270190429	0.0782100856
2675.2558264159	0.0780313313
2677.1846337890	0.0779471397
2679.1134411620	0.0778357610
2681.0422485351	0.0776774585
2682.9710559081	0.0776172280
2684.8998632812	0.0773614421
2686.8286706542	0.0774011314
2688.7574780273	0.0770982429
2690.6862854003	0.0770466551
2692.6150927733	0.0770944506
2694.5439001464	0.0768200010
2696.4727075194	0.0768024027
2698.4015148925	0.0766037777
2700.3303222655	0.0765622407
2702.2591296386	0.0763998777
2704.1879370116	0.0762338415
2706.1167443847	0.0761156380
2708.0455517577	0.0760219395
2709.9743591308	0.0760014504
2711.9031665038	0.0757863373
2713.8319738769	0.0758060068
2715.7607812499	0.0755005330
2717.6895886230	0.0753337890
2719.6183959960	0.0754079893
2721.5472033690	0.0751641393
2723.4760107421	0.0749591067
2725.4048181151	0.0748597533
2727.3336254882	0.0748194009
2729.2624328612	0.0746588409
2731.1912402343	0.0746057779
2733.1200476073	0.0743931383
2735.0488549804	0.0742620975
2736.9776623534	0.0742215067
2738.9064697265	0.0739576370
2740.8352770995	0.0738552809
2742.7640844726	0.0737854391
2744.6928918456	0.0737411752
2746.6216992187	0.0735664815
2748.5505065917	0.0735090375
2750.4793139647	0.0732983425
2752.4081213378	0.0730644315
2754.3369287108	0.0730919540
2756.2657360839	0.0729098171
2758.1945434569	0.0728682280
2760.1233508300	0.0726490989
2762.0521582030	0.0724948347
2763.9809655761	0.0724121556
2765.9097729491	0.0722309351
2767.8385803222	0.0721585453
2769.7673876952	0.0719175115
2771.6961950683	0.0718614683
2773.6250024413	0.0717225373
2775.5538098144	0.0715416819
2777.4826171874	0.0713956207
2779.4114245604	0.0712542906
2781.3402319335	0.0711342916
2783.2690393065	0.0708781183
2785.1978466796	0.0707912818
2787.1266540526	0.0706601888
2789.0554614257	0.0706261843
2790.9842687987	0.0705344826
2792.9130761718	0.0702773929
2794.8418835448	0.0700685009
2796.7706909179	0.0698432624
2798.6994982909	0.0698435903
2800.6283056640	0.0697675049
2802.5571130370	0.0694739670
2804.4859204101	0.0693170875
2806.4147277831	0.0692925453
2808.3435351562	0.0690874606
2810.2723425292	0.0689089000
2812.2011499022	0.0688093454
2814.1299572753	0.0686729848
2816.0587646483	0.0685685873
2817.9875720214	0.0683387071
2819.9163793944	0.0682491809
2821.8451867675	0.0681212917
2823.7739941405	0.0678718463
2825.7028015136	0.0677069724
2827.6316088866	0.0676016062
2829.5604162597	0.0674908906
2831.4892236327	0.0672223121
2833.4180310058	0.0670497119
2835.3468383788	0.0669352710
2837.2756457519	0.0667091534
2839.2044531249	0.0664392263
2841.1332604979	0.0662254989
2843.0620678710	0.0659325123
2844.9908752440	0.0656312779
2846.9196826171	0.0652068481
2848.8484899901	0.0645883828
2850.7772973632	0.0645165592
2852.7061047362	0.0645621866
2854.6349121093	0.0643568486
2856.5637194823	0.0642862096
2858.4925268554	0.0642581508
2860.4213342284	0.0641082078
2862.3501416015	0.0639671981
2864.2789489745	0.0639348775
2866.2077563476	0.0637949109
2868.1365637206	0.0637162179
2870.0653710936	0.0635484457
2871.9941784667	0.0633708015
2873.9229858397	0.0632657856
2875.8517932128	0.0631452948
2877.7806005858	0.0630507767
2879.7094079589	0.0628813952
2881.6382153319	0.0628235489
2883.5670227050	0.0625527501
2885.4958300780	0.0625013113
2887.4246374511	0.0624948330
2889.3534448241	0.0622354746
2891.2822521972	0.0620746762
2893.2110595702	0.0617039166
2895.1398669433	0.0616725609
2897.0686743163	0.0614983737
2898.9974816893	0.0612151027
2900.9262890624	0.0611313656
2902.8550964354	0.0607842766
2904.7839038085	0.0606435910
2906.7127111815	0.0604052059
2908.6415185546	0.0600901991
2910.5703259276	0.0598516986
2912.4991333007	0.0595537201
2914.4279406737	0.0590768084
2916.3567480468	0.0586873703
2918.2855554198	0.0586349703
2920.2143627929	0.0583414212
2922.1431701659	0.0581537932
2924.0719775390	0.0581106544
2926.0007849120	0.0579538606
2927.9295922851	0.0578877218
2929.8583996581	0.0578602701
2931.7872070311	0.0577346757
2933.7160144042	0.0577467158
2935.6448217772	0.0578237064
2937.5736291503	0.0575621054
2939.5024365233	0.0575658903
2941.4312438964	0.0575872511
2943.3600512694	0.0574202910
2945.2888586425	0.0573401712
2947.2176660155	0.0571336858
2949.1464733886	0.0570720695
2951.0752807616	0.0568802878
2953.0040881347	0.0565774590
2954.9328955077	0.0564360544
2956.8617028808	0.0563148037
2958.7905102538	0.0560446456
2960.7193176268	0.0557184890
2962.6481249999	0.0556439757
2964.5769323729	0.0554800853
2966.5057397460	0.0552851893
2968.4345471190	0.0552992672
2970.3633544921	0.0552397445
2972.2921618651	0.0552231632
2974.2209692382	0.0552960448
2976.1497766112	0.0551901571
2978.0785839843	0.0551726818
2980.0073913573	0.0551200472
2981.9361987304	0.0548794083
2983.8650061034	0.0548204631
2985.7938134765	0.0546890125
2987.7226208495	0.0545418933
2989.6514282225	0.0544205606
2991.5802355956	0.0542291440
2993.5090429686	0.0540773012
2995.4378503417	0.0539265722
2997.3666577147	0.0538802892
2999.2954650878	0.0537057854
3001.2242724608	0.0534569696
3003.1530798339	0.0532485545
3005.0818872069	0.0529749058
3007.0106945800	0.0528028980
3008.9395019530	0.0526435636
3010.8683093261	0.0522894561
3012.7971166991	0.0520712063
3014.7259240722	0.0519954041
3016.6547314452	0.0517529622
3018.5835388182	0.0516635552
3020.5123461913	0.0515182316
3022.4411535643	0.0512068123
3024.3699609374	0.0509634838
3026.2987683104	0.0508102030
3028.2275756835	0.0506104715
3030.1563830565	0.0501997918
3032.0851904296	0.0500205830
3034.0139978026	0.0499264970
3035.9428051757	0.0497315675
3037.8716125487	0.0494942069
3039.8004199218	0.0492857024
3041.7292272948	0.0490761250
3043.6580346679	0.0488079339
3045.5868420409	0.0487352684
3047.5156494139	0.0484170578
3049.4444567870	0.0481262431
3051.3732641600	0.0479989424
3053.3020715331	0.0477790423
3055.2308789061	0.0475148521
3057.1596862792	0.0472104847
3059.0884936522	0.0472181141
3061.0173010253	0.0469409525
3062.9461083983	0.0466228351
3064.8749157714	0.0465210974
3066.8037231444	0.0461400226
3068.7325305175	0.0460068360
3070.6613378905	0.0459012687
3072.5901452636	0.0456160605
3074.5189526366	0.0454622321
3076.4477600097	0.0451750569
3078.3765673827	0.0448752418
3080.3053747557	0.0445896685
3082.2341821288	0.0442262031
3084.1629895018	0.0442202464
3086.0917968749	0.0439663492
3088.0206042479	0.0436489806
3089.9494116210	0.0435722247
3091.8782189940	0.0431394763
3093.8070263671	0.0429906100
3095.7358337401	0.0426519811
3097.6646411132	0.0423175171
3099.5934484862	0.0421831161
3101.5222558593	0.0418067835
3103.4510632323	0.0417247266
3105.3798706054	0.0414384678
3107.3086779784	0.0412272289
3109.2374853514	0.0409681201
3111.1662927245	0.0406597815
3113.0951000975	0.0404006094
3115.0239074706	0.0399583615
3116.9527148436	0.0397943333
3118.8815222167	0.0394734293
3120.8103295897	0.0393127948
3122.7391369628	0.0390834957
3124.6679443358	0.0388695635
3126.5967517089	0.0386511907
3128.5255590819	0.0381785259
3130.4543664550	0.0380897596
3132.3831738280	0.0377530232
3134.3119812011	0.0375371277
3136.2407885741	0.0372399539
3138.1695959471	0.0369005613
3140.0984033202	0.0368537940
3142.0272106932	0.0364945084
3143.9560180663	0.0362704173
3145.8848254393	0.0359560326
3147.8136328124	0.0357237831
3149.7424401854	0.0353934877
3151.6712475585	0.0350321308
3153.6000549315	0.0349919572
3155.5288623046	0.0346913710
3157.4576696776	0.0344081819
3159.3864770507	0.0340662673
3161.3152844237	0.0337605551
3163.2440917968	0.0336414315
3165.1728991698	0.0334540717
3167.1017065428	0.0331419632
3169.0305139159	0.0328657180
3170.9593212889	0.0327121615
3172.8881286620	0.0325012803
3174.8169360350	0.0322491676
3176.7457434081	0.0318890847
3178.6745507811	0.0316932052
3180.6033581542	0.0315405689
3182.5321655272	0.0312729403
3184.4609729003	0.0310413446
3186.3897802733	0.0308579970
3188.3185876464	0.0307056271
3190.2473950194	0.0304922424
3192.1762023925	0.0303076096
3194.1050097655	0.0300703160
3196.0338171386	0.0299577322
3197.9626245116	0.0296739191
3199.8914318846	0.0293877535
3201.8202392577	0.0293702483
3203.7490466307	0.0291536190
3205.6778540038	0.0290082432
3207.6066613768	0.0288266335
3209.5354687499	0.0287017096
3211.4642761229	0.0285631791
3213.3930834960	0.0283224229
3215.3218908690	0.0282517560
3217.2506982421	0.0280917622
3219.1795056151	0.0279575884
3221.1083129882	0.0278572254
3223.0371203612	0.0277694259
3224.9659277343	0.0276652537
3226.8947351073	0.0275331885
3228.8235424803	0.0273585506
3230.7523498534	0.0272251405
3232.6811572264	0.0271577314
3234.6099645995	0.0270620249
3236.5387719725	0.0270271823
3238.4675793456	0.0267852135
3240.3963867186	0.0267373938
3242.3251940917	0.0268171038
3244.2540014647	0.0266757421
3246.1828088378	0.0265886225
3248.1116162108	0.0265058875
3250.0404235839	0.0264736004
3251.9692309569	0.0263919123
3253.8980383300	0.0263059624
3255.8268457030	0.0261734165
3257.7556530760	0.0260371529
3259.6844604491	0.0260501951
3261.6132678221	0.0261506010
3263.5420751952	0.0261279605
3265.4708825682	0.0259880535
3267.3996899413	0.0259735584
3269.3284973143	0.0258615427
3271.2573046874	0.0258386657
3273.1861120604	0.0257913023
3275.1149194335	0.0256612916
3277.0437268065	0.0256087761
3278.9725341796	0.0256425701
3280.9013415526	0.0256251246
3282.8301489257	0.0254074968
3284.7589562987	0.0255713928
3286.6877636717	0.0255324375
3288.6165710448	0.0254037585
3290.5453784178	0.0253652204
3292.4741857909	0.0251246952
3294.4029931639	0.0252599474
3296.3318005370	0.0251906272
3298.2606079100	0.0251377225
3300.1894152831	0.0251352545
3302.1182226561	0.0250385329
3304.0470300292	0.0251175724
3305.9758374022	0.0250232033
3307.9046447753	0.0249913409
3309.8334521483	0.0249266699
3311.7622595214	0.0248313397
3313.6910668944	0.0247688182
3315.6198742675	0.0247404575
3317.5486816405	0.0247182846
3319.4774890135	0.0247260183
3321.4062963866	0.0246817712
3323.3351037596	0.0245405771
3325.2639111327	0.0245762542
3327.1927185057	0.0244643353
3329.1215258788	0.0244651809
3331.0503332518	0.0244760513
3332.9791406249	0.0244252570
3334.9079479979	0.0243834462
3336.8367553710	0.0241790153
3338.7655627440	0.0242302157
3340.6943701171	0.0242263190
3342.6231774901	0.0242099203
3344.5519848632	0.0241533108
3346.4807922362	0.0240805410
3348.4095996092	0.0240547955
3350.3384069823	0.0239688754
3352.2672143553	0.0240235683
3354.1960217284	0.0239133872
3356.1248291014	0.0239416193
3358.0536364745	0.0238999370
3359.9824438475	0.0237674266
3361.9112512206	0.0239014253
3363.8400585936	0.0238614678
3365.7688659667	0.0238025095
3367.6976733397	0.0238920674
3369.6264807128	0.0238682833
3371.5552880858	0.0237600170
3373.4840954589	0.0238299482
3375.4129028319	0.0238019004
3377.3417102049	0.0237280019
3379.2705175780	0.0237048622
3381.1993249510	0.0237160139
3383.1281323241	0.0237668641
3385.0569396971	0.0235709157
3386.9857470702	0.0235984325
3388.9145544432	0.0237566382
3390.8433618163	0.0237472951
3392.7721691893	0.0236711279
3394.7009765624	0.0236709416
3396.6297839354	0.0236737579
3398.5585913085	0.0236354060
3400.4873986815	0.0237338860
3402.4162060546	0.0236555524
3404.3450134276	0.0237888508
3406.2738208006	0.0238638557
3408.2026281737	0.0237567239
3410.1314355467	0.0238241442
3412.0602429198	0.0238456987
3413.9890502928	0.0240324605
3415.9178576659	0.0240213051
3417.8466650389	0.0239909757
3419.7754724120	0.0239763185
3421.7042797850	0.0238912813
3423.6330871581	0.0240944624
3425.5618945311	0.0242146067
3427.4907019042	0.0241958387
3429.4195092772	0.0242431834
3431.3483166503	0.0242845900
3433.2771240233	0.0242288932
3435.2059313963	0.0242551453
3437.1347387694	0.0242543370
3439.0635461424	0.0244059227
3440.9923535155	0.0243741646
3442.9211608885	0.0242379680
3444.8499682616	0.0245352983
3446.7787756346	0.0243890584
3448.7075830077	0.0245349444
3450.6363903807	0.0248868186
3452.5651977538	0.0247324258
3454.4940051268	0.0247872695
3456.4228124999	0.0248092823
3458.3516198729	0.0249050558
3460.2804272460	0.0249522701
3462.2092346190	0.0249430053
3464.1380419921	0.0251294207
3466.0668493651	0.0251432676
3467.9956567381	0.0250841565
3469.9244641112	0.0251829736
3471.8532714842	0.0253296494
3473.7820788573	0.0254137889
3475.7108862303	0.0253770873
3477.6396936034	0.0254298449
3479.5685009764	0.0254979506
3481.4973083495	0.0252945162
3483.4261157225	0.0256085135
3485.3549230956	0.0258327741
3487.2837304686	0.0256695934
3489.2125378417	0.0258582551
3491.1413452147	0.0259142201
3493.0701525878	0.0260762740
3494.9989599608	0.0260830708
3496.9277673338	0.0260482989
3498.8565747069	0.0262262803
3500.7853820799	0.0262878202
3502.7141894530	0.0260350890
3504.6429968260	0.0259969085
3506.5718041991	0.0265885927
3508.5006115721	0.0263592117
3510.4294189452	0.0263354797
3512.3582263182	0.0267659724
3514.2870336913	0.0268323869
3516.2158410643	0.0269682258
3518.1446484374	0.0268135071
3520.0734558104	0.0270891339
3522.0022631835	0.0269810967
3523.9310705565	0.0266804323
3525.8598779295	0.0269971061
3527.7886853026	0.0270450786
3529.7174926756	0.0271547809
3531.6463000487	0.0274179857
3533.5751074217	0.0276055895
3535.5039147948	0.0274957046
3537.4327221678	0.0274878088
3539.3615295409	0.0277364515
3541.2903369139	0.0278926529
3543.2191442870	0.0278195255
3545.1479516600	0.0273085795
3547.0767590331	0.0271307491
3549.0055664061	0.0279089957
3550.9343737792	0.0281619001
3552.8631811522	0.0276808403
3554.7919885252	0.0281682592
3556.7207958983	0.0284254290
3558.6496032713	0.0283978917
3560.5784106444	0.0283872485
3562.5072180174	0.0282871183
3564.4360253905	0.0285509657
3566.3648327635	0.0270693228
3568.2936401366	0.0265409239
3570.2224475096	0.0284373127
3572.1512548827	0.0290723853
3574.0800622557	0.0288588144
3576.0088696288	0.0289180446
3577.9376770018	0.0289252736
3579.8664843749	0.0290047526
3581.7952917479	0.0289967991
3583.7240991210	0.0292285942
3585.6529064940	0.0287670679
3587.5817138670	0.0269211158
3589.5105212401	0.0276967771
3591.4393286131	0.0296610408
3593.3681359862	0.0289523639
3595.2969433592	0.0286038779
3597.2257507323	0.0291899741
3599.1545581053	0.0294493102
3601.0833654784	0.0292783044
3603.0121728514	0.0294788741
3604.9409802245	0.0300046802
3606.8697875975	0.0292582698
3608.7985949706	0.0277698338
3610.7274023436	0.0284253843
3612.6562097167	0.0290993098
3614.5850170897	0.0283927321
3616.5138244627	0.0301883891
3618.4426318358	0.0283968300
3620.3714392088	0.0276393779
3622.3002465819	0.0306241307
3624.2290539549	0.0299527217
3626.1578613280	0.0311000682
3628.0866687010	0.0272160992
3630.0154760741	0.0253037065
3631.9442834471	0.0305701196
3633.8730908202	0.0299593396
3635.8018981932	0.0304858088
3637.7307055663	0.0310139768
3639.6595129393	0.0306589790
3641.5883203124	0.0310552008
3643.5171276854	0.0307612307
3645.4459350584	0.0311421566
3647.3747424315	0.0285449252
3649.3035498045	0.0266078077
3651.2323571776	0.0269529708
3653.1611645506	0.0311713815
3655.0899719237	0.0309600420
3657.0187792967	0.0282862559
3658.9475866698	0.0318621174
3660.8763940428	0.0313621461
3662.8052014159	0.0318144821
3664.7340087889	0.0317738019
3666.6628161620	0.0315999277
3668.5916235350	0.0309825242
3670.5204309081	0.0261231214
3672.4492382811	0.0306398533
3674.3780456541	0.0295400359
3676.3068530272	0.0253259130
3678.2356604002	0.0307761803
3680.1644677733	0.0314297304
3682.0932751463	0.0314232111
3684.0220825194	0.0322367474
3685.9508898924	0.0319013372
3687.8796972655	0.0292187780
3689.8085046385	0.0271021761
3691.7373120116	0.0304637067
3693.6661193846	0.0312223509
3695.5949267577	0.0317086950
3697.5237341307	0.0317969508
3699.4525415038	0.0316011235
3701.3813488768	0.0310277119
3703.3101562499	0.0299814586
3705.2389636229	0.0324378833
3707.1677709959	0.0310880840
3709.0965783690	0.0304922741
3711.0253857420	0.0291050076
3712.9541931151	0.0275476500
3714.8830004881	0.0314748660
3716.8118078612	0.0310494043
3718.7406152342	0.0312292650
3720.6694226073	0.0306979828
3722.5982299803	0.0298607927
3724.5270373534	0.0307256225
3726.4558447264	0.0287721716
3728.3846520995	0.0308900997
3730.3134594725	0.0304367542
3732.2422668456	0.0283840895
3734.1710742186	0.0279711615
3736.0998815916	0.0268375929
3738.0286889647	0.0280686785
3739.9574963377	0.0299187861
3741.8863037108	0.0312026963
3743.8151110838	0.0250418410
3745.7439184569	0.0238553267
3747.6727258299	0.0298396945
3749.6015332030	0.0262039118
3751.5303405760	0.0243970677
3753.4591479491	0.0274546444
3755.3879553221	0.0293898806
3757.3167626952	0.0303229447
3759.2455700682	0.0284252018
3761.1743774413	0.0292228032
3763.1031848143	0.0306657925
3765.0319921873	0.0289783366
3766.9607995604	0.0294012763
3768.8896069334	0.0291386247
3770.8184143065	0.0279464908
3772.7472216795	0.0298348982
3774.6760290526	0.0299078152
3776.6048364256	0.0298705697
3778.5336437987	0.0292045549
3780.4624511717	0.0282524228
3782.3912585448	0.0298410729
3784.3200659178	0.0292760059
3786.2488732909	0.0291216709
3788.1776806639	0.0295427404
3790.1064880370	0.0294214413
3792.0352954100	0.0292544812
3793.9641027830	0.0296423137
3795.8929101561	0.0282670874
3797.8217175291	0.0279329363
3799.7505249022	0.0290362649
3801.6793322752	0.0238611083
3803.6081396483	0.0273169298
3805.5369470213	0.0292688608
3807.4657543944	0.0246914793
3809.3945617674	0.0289471410
3811.3233691405	0.0284379981
3813.2521765135	0.0292480513
3815.1809838866	0.0266907103
3817.1097912596	0.0240467247
3819.0385986327	0.0291619468
3820.9674060057	0.0244931132
3822.8962133787	0.0255655386
3824.8250207518	0.0289500151
3826.7538281248	0.0267536715
3828.6826354979	0.0283159316
3830.6114428709	0.0273940004
3832.5402502440	0.0266670510
3834.4690576170	0.0271392912
3836.3978649901	0.0260113291
3838.3266723631	0.0237451214
3840.2554797362	0.0255274512
3842.1842871092	0.0271692276
3844.1130944823	0.0260467604
3846.0419018553	0.0278354008
3847.9707092284	0.0273971539
3849.8995166014	0.0274702683
3851.8283239745	0.0251186006
3853.7571313475	0.0197430011
3855.6859387205	0.0226058625
3857.6147460936	0.0274219885
3859.5435534666	0.0268676169
3861.4723608397	0.0266510621
3863.4011682127	0.0260438100
3865.3299755858	0.0244969279
3867.2587829588	0.0269197337
3869.1875903319	0.0249088965
3871.1163977049	0.0233509280
3873.0452050780	0.0268702861
3874.9740124510	0.0251569003
3876.9028198241	0.0266207978
3878.8316271971	0.0270221904
3880.7604345702	0.0239436124
3882.6892419432	0.0267682597
3884.6180493162	0.0252971612
3886.5468566893	0.0235050917
3888.4756640623	0.0267557949
3890.4044714354	0.0254796259
3892.3332788084	0.0242426340
3894.2620861815	0.0262106042
3896.1908935545	0.0264776628
3898.1197009276	0.0254771374
3900.0485083006	0.0243070573
3901.9773156737	0.0240695477
3903.9061230467	0.0237606261
3905.8349304198	0.0241029933
3907.7637377928	0.0260132886
3909.6925451659	0.0259499028
3911.6213525389	0.0257785302
3913.5501599119	0.0260374621
3915.4789672850	0.0253398269
3917.4077746580	0.0247462168
3919.3365820311	0.0245728828
3921.2653894041	0.0253713746
3923.1941967772	0.0252179857
3925.1230041502	0.0248076729
3927.0518115233	0.0251286142
3928.9806188963	0.0252875425
3930.9094262694	0.0248868801
3932.8382336424	0.0242017843
3934.7670410155	0.0249825288
3936.6958483885	0.0251907595
3938.6246557616	0.0249816962
3940.5534631346	0.0251883566
3942.4822705076	0.0243239477
3944.4110778807	0.0244714152
3946.3398852537	0.0248666164
3948.2686926268	0.0242796689
3950.1974999998	0.0243362710
3952.1263073729	0.0245704986
3954.0551147459	0.0246516764
3955.9839221190	0.0246038884
3957.9127294920	0.0243978892
3959.8415368651	0.0244599953
3961.7703442381	0.0242760964
3963.6991516112	0.0242865235
3965.6279589842	0.0244385451
3967.5567663573	0.0242067613
3969.4855737303	0.0241604745
3971.4143811034	0.0240734294
3973.3431884764	0.0241153277
3975.2719958494	0.0240163803
3977.2008032225	0.0239169821
3979.1296105955	0.0240406133
3981.0584179686	0.0237886608
3982.9872253416	0.0237778351
3984.9160327147	0.0237629935
3986.8448400877	0.0237267315
3988.7736474608	0.0237253606
3990.7024548338	0.0235193502
3992.6312622069	0.0235793311
3994.5600695799	0.0235617347
3996.4888769530	0.0234276596
3998.4176843260	0.0233902708
4000.3464916991	0.0234045349
4002.2752990721	0.0233520065
4004.2041064451	0.0232941471
4006.1329138182	0.0233203359
4008.0617211912	0.0232355464
4009.9905285643	0.0231383611
4011.9193359373	0.0231259521
4013.8481433104	0.0230432376
4015.7769506834	0.0229939893
4017.7057580565	0.0230732523
4019.6345654295	0.0228160117
4021.5633728026	0.0227123685
4023.4921801756	0.0228603519
4025.4209875487	0.0226728469
4027.3497949217	0.0227173418
4029.2786022948	0.0227891095
4031.2074096678	0.0225945003
4033.1362170408	0.0225625057
4035.0650244139	0.0225924496
4036.9938317869	0.0224921126
4038.9226391600	0.0224017128
4040.8514465330	0.0223432742
4042.7802539061	0.0222635772
4044.7090612791	0.0222129226
4046.6378686522	0.0222030096
4048.5666760252	0.0222332217
4050.4954833983	0.0221752413
4052.4242907713	0.0220844857
4054.3530981444	0.0219966751
4056.2819055174	0.0220812801
4058.2107128905	0.0220734496
4060.1395202635	0.0218397751
4062.0683276365	0.0218507349
4063.9971350096	0.0217853785
4065.9259423826	0.0217551030
4067.8547497557	0.0217980482
4069.7835571287	0.0216855146
4071.7123645018	0.0215610582
4073.6411718748	0.0215327293
4075.5699792479	0.0215890594
4077.4987866209	0.0214840136
4079.4275939940	0.0214408301
4081.3564013670	0.0213260781
4083.2852087401	0.0212931931
4085.2140161131	0.0213452466
4087.1428234862	0.0212063845
4089.0716308592	0.0212552212
4091.0004382323	0.0212079324
4092.9292456053	0.0210579783
4094.8580529783	0.0210696030
4096.7868603514	0.0210900214
4098.7156677244	0.0209537670
4100.6444750975	0.0209232029
4102.5732824705	0.0209035575
4104.5020898436	0.0207092948
4106.4308972166	0.0207327157
4108.3597045897	0.0207031816
4110.2885119627	0.0206438676
4112.2173193358	0.0206032656
4114.1461267088	0.0205779858
4116.0749340819	0.0205566995
4118.0037414549	0.0204405803
4119.9325488280	0.0204537977
4121.8613562010	0.0204108059
4123.7901635740	0.0204075426
4125.7189709471	0.0203392319
4127.6477783201	0.0202318002
4129.5765856932	0.0202355757
4131.5053930662	0.0202106647
4133.4342004393	0.0201276932
4135.3630078123	0.0200736634
4137.2918151854	0.0201221928
4139.2206225584	0.0199780036
4141.1494299315	0.0199526045
4143.0782373045	0.0199366268
4145.0070446776	0.0198021363
4146.9358520506	0.0197693631
4148.8646594237	0.0196819846
4150.7934667967	0.0196490623
4152.7222741697	0.0196345113
4154.6510815428	0.0196173582
4156.5798889158	0.0195361860
4158.5086962889	0.0195555836
4160.4375036619	0.0194415674
4162.3663110350	0.0194165427
4164.2951184080	0.0195114166
4166.2239257811	0.0193066038
4168.1527331541	0.0193520337
4170.0815405272	0.0192598458
4172.0103479002	0.0192220546
4173.9391552733	0.0191868842
4175.8679626463	0.0190654434
4177.7967700194	0.0191991609
4179.7255773924	0.0190217867
4181.6543847654	0.0189767294
4183.5831921385	0.0189455524
4185.5119995115	0.0189218968
4187.4408068846	0.0189055614
4189.3696142576	0.0187809914
4191.2984216307	0.0187886897
4193.2272290037	0.0186798051
4195.1560363768	0.0187088028
4197.0848437498	0.0186568834
4199.0136511229	0.0186354667
4200.9424584959	0.0186140761
4202.8712658690	0.0185313411
4204.8000732420	0.0185223427
4206.7288806151	0.0184653886
4208.6576879881	0.0184601787
4210.5864953611	0.0182779469
4212.5153027342	0.0183349028
4214.4441101072	0.0183457173
4216.3729174803	0.0181885734
4218.3017248533	0.0181809161
4220.2305322264	0.0181082413
4222.1593395994	0.0180862918
4224.0881469725	0.0180457532
4226.0169543455	0.0180785656
4227.9457617186	0.0180162583
4229.8745690916	0.0179622676
4231.8033764647	0.0179100670
4233.7321838377	0.0177974384
4235.6609912108	0.0177723225
4237.5897985838	0.0178198181
4239.5186059569	0.0178451501
4241.4474133299	0.0176737886
4243.3762207029	0.0177387912
4245.3050280760	0.0176847540
4247.2338354490	0.0176513046
4249.1626428221	0.0176263209
4251.0914501951	0.0174675137
4253.0202575682	0.0175864082
4254.9490649412	0.0174084511
4256.8778723143	0.0173848458
4258.8066796873	0.0173346344
4260.7354870604	0.0172838382
4262.6642944334	0.0174164250
4264.5931018065	0.0172252320
4266.5219091795	0.0172621384
4268.4507165526	0.0172185227
4270.3795239256	0.0170906894
4272.3083312986	0.0170140862
4274.2371386717	0.0169138908
4276.1659460447	0.0169817545
4278.0947534178	0.0170635004
4280.0235607908	0.0169465058
4281.9523681639	0.0167681985
4283.8811755369	0.0168727599
4285.8099829100	0.0168415383
4287.7387902830	0.0167962406
4289.6675976561	0.0167504381
4291.5964050291	0.0166764855
4293.5252124022	0.0166576616
4295.4540197752	0.0165564939
4297.3828271483	0.0165705830
4299.3116345213	0.0164919831
4301.2404418943	0.0165241510
4303.1692492674	0.0165035501
4305.0980566404	0.0164438859
4307.0268640135	0.0163768157
4308.9556713865	0.0162619464
4310.8844787596	0.0163253844
4312.8132861326	0.0161962416
4314.7420935057	0.0162455663
4316.6709008787	0.0162386280
4318.5997082518	0.0160940923
4320.5285156248	0.0161177628
4322.4573229979	0.0160846934
4324.3861303709	0.0160666443
4326.3149377440	0.0159886982
4328.2437451170	0.0160067845
4330.1725524900	0.0159496609
4332.1013598631	0.0158631019
4334.0301672361	0.0158735402
4335.9589746092	0.0158323478
4337.8877819822	0.0157142468
4339.8165893553	0.0156917702
4341.7453967283	0.0158254988
4343.6742041014	0.0157123730
4345.6030114744	0.0155911203
4347.5318188475	0.0155405952
4349.4606262205	0.0155693032
4351.3894335936	0.0155624729
4353.3182409666	0.0154479165
4355.2470483397	0.0154061010
4357.1758557127	0.0153459404
4359.1046630858	0.0154163036
4361.0334704588	0.0153631810
4362.9622778318	0.0153149646
4364.8910852049	0.0152637698
4366.8198925779	0.0152573818
4368.7486999510	0.0152989347
4370.6775073240	0.0151102580
4372.6063146971	0.0151278721
4374.5351220701	0.0151124522
4376.4639294432	0.0150707215
4378.3927368162	0.0150145534
4380.3215441893	0.0149735585
4382.2503515623	0.0150063243
4384.1791589354	0.0148871560
4386.1079663084	0.0148480106
4388.0367736815	0.0147585524
4389.9655810545	0.0148061346
4391.8943884275	0.0147934025
4393.8231958006	0.0147194415
4395.7520031736	0.0146782827
4397.6808105467	0.0145337377
4399.6096179197	0.0145878317
4401.5384252928	0.0145599823
4403.4672326658	0.0145632885
4405.3960400389	0.0145284794
4407.3248474119	0.0144651029
4409.2536547850	0.0143987788
4411.1824621580	0.0142876590
4413.1112695311	0.0143900923
4415.0400769041	0.0142921200
4416.9688842772	0.0142121604
4418.8976916502	0.0142763564
4420.8264990232	0.0142480014
4422.7553063963	0.0141653875
4424.6841137693	0.0141603053
4426.6129211424	0.0141765364
4428.5417285154	0.0140297711
4430.4705358885	0.0140385330
4432.3993432615	0.0140256658
4434.3281506346	0.0139566762
4436.2569580076	0.0140215987
4438.1857653807	0.0140005443
4440.1145727537	0.0138910729
4442.0433801268	0.0138485990
4443.9721874998	0.0138126034
4445.9009948729	0.0137961973
4447.8298022459	0.0138518494
4449.7586096189	0.0137399053
4451.6874169920	0.0137125980
4453.6162243650	0.0137047619
4455.5450317381	0.0136019876
4457.4738391111	0.0136216227
4459.4026464842	0.0135659017
4461.3314538572	0.0135068614
4463.2602612303	0.0135520827
4465.1890686033	0.0136036109
4467.1178759764	0.0134561099
4469.0466833494	0.0133364797
4470.9754907225	0.0133389719
4472.9042980955	0.0133010661
4474.8331054686	0.0132935159
4476.7619128416	0.0132391341
4478.6907202147	0.0132742990
4480.6195275877	0.0132663641
4482.5483349607	0.0131880753
4484.4771423338	0.0131286457
4486.4059497068	0.0130958967
4488.3347570799	0.0130701996
4490.2635644529	0.0130252074
4492.1923718260	0.0130713768
4494.1211791990	0.0129723148
4496.0499865721	0.0129268244
4497.9787939451	0.0129176993
4499.9076013182	0.0128588099
4501.8364086912	0.0128576234
4503.7652160643	0.0127781266
4505.6940234373	0.0127547719
4507.6228308104	0.0127257602
4509.5516381834	0.0127113741
4511.4804455564	0.0126318969
4513.4092529295	0.0126543995
4515.3380603025	0.0126760984
4517.2668676756	0.0125144105
4519.1956750486	0.0125793628
4521.1244824217	0.0125513561
4523.0532897947	0.0124379126
4524.9820971678	0.0124525214
4526.9109045408	0.0124874515
4528.8397119139	0.0124273188
4530.7685192869	0.0123373792
4532.6973266600	0.0123787988
4534.6261340330	0.0122840349
4536.5549414061	0.0122722853
4538.4837487791	0.0122652808
4540.4125561521	0.0121994400
4542.3413635252	0.0122751901
4544.2701708982	0.0121578369
4546.1989782713	0.0120777749
4548.1277856443	0.0121294726
4550.0565930174	0.0120937061
4551.9854003904	0.0120665552
4553.9142077635	0.0120544303
4555.8430151365	0.0120456498
4557.7718225096	0.0119438367
4559.7006298826	0.0118505303
4561.6294372557	0.0118557122
4563.5582446287	0.0118315443
4565.4870520018	0.0119172819
4567.4158593748	0.0118854847
4569.3446667478	0.0117545770
4571.2734741209	0.0118223252
4573.2022814939	0.0117309317
4575.1310888670	0.0116448347
4577.0598962400	0.0116831828
4578.9887036131	0.0116164070
4580.9175109861	0.0115370462
4582.8463183592	0.0115479659
4584.7751257322	0.0116018876
4586.7039331053	0.0115457326
4588.6327404783	0.0115286373
4590.5615478514	0.0114374803
4592.4903552244	0.0113859409
4594.4191625975	0.0114274751
4596.3479699705	0.0112874657
4598.2767773435	0.0112749171
4600.2055847166	0.0113565121
4602.1343920896	0.0113152023
4604.0631994627	0.0112054776
4605.9920068357	0.0111920526
4607.9208142088	0.0112028699
4609.8496215818	0.0112041449
4611.7784289549	0.0111442460
4613.7072363279	0.0110209594
4615.6360437010	0.0111252554
4617.5648510740	0.0110227969
4619.4936584471	0.0109576099
4621.4224658201	0.0110175572
4623.3512731932	0.0108824521
4625.2800805662	0.0109634753
4627.2088879393	0.0109003317
4629.1376953123	0.0108153820
4631.0665026853	0.0108568054
4632.9953100584	0.0107892668
4634.9241174314	0.0108298045
4636.8529248045	0.0108036641
4638.7817321775	0.0107340710
4640.7105395506	0.0107441060
4642.6393469236	0.0106817950
4644.5681542967	0.0105796587
4646.4969616697	0.0106207561
4648.4257690428	0.0106305741
4650.3545764158	0.0105937682
4652.2833837889	0.0106039532
4654.2121911619	0.0105119180
4656.1409985350	0.0104551632
4658.0698059080	0.0104156286
4659.9986132810	0.0104142036
4661.9274206541	0.0103973374
4663.8562280271	0.0103746112
4665.7850354002	0.0104463808
4667.7138427732	0.0103463372
4669.6426501463	0.0102603780
4671.5714575193	0.0102607282
4673.5002648924	0.0102624334
4675.4290722654	0.0103434343
4677.3578796385	0.0102814920
4679.2866870115	0.0101628155
4681.2154943846	0.0101530701
4683.1443017576	0.0101754162
4685.0731091307	0.0101175848
4687.0019165037	0.0100362813
4688.9307238767	0.0101109771
4690.8595312498	0.0100965761
4692.7883386228	0.0099730212
4694.7171459959	0.0099118873
4696.6459533689	0.0099050384
4698.5747607420	0.0099772997
4700.5035681150	0.0099170171
4702.4323754881	0.0098959077
4704.3611828611	0.0099029476
4706.2899902342	0.0098136198
4708.2187976072	0.0098718721
4710.1476049803	0.0098282322
4712.0764123533	0.0097430693
4714.0052197264	0.0097457636
4715.9340270994	0.0097110849
4717.8628344724	0.0097229145
4719.7916418455	0.0096985679
4721.7204492185	0.0096413344
4723.6492565916	0.0096515510
4725.5780639646	0.0095629599
4727.5068713377	0.0094383601
4729.4356787107	0.0094861854
4731.3644860838	0.0094884215
4733.2932934568	0.0095498180
4735.2221008299	0.0095444601
4737.1509082029	0.0094388658
4739.0797155760	0.0094409510
4741.0085229490	0.0093563292
4742.9373303221	0.0094002243
4744.8661376951	0.0093254140
4746.7949450682	0.0093207471
4748.7237524412	0.0094142631
4750.6525598142	0.0092797307
4752.5813671873	0.0093259867
4754.5101745603	0.0092608165
4756.4389819334	0.0092039667
4758.3677893064	0.0092026796
4760.2965966795	0.0091595966
4762.2254040525	0.0091570439
4764.1542114256	0.0091390721
4766.0830187986	0.0091730971
4768.0118261717	0.0090712607
4769.9406335447	0.0091181155
4771.8694409178	0.0090461969
4773.7982482908	0.0089638913
4775.7270556639	0.0090436656
4777.6558630369	0.0090052262
4779.5846704099	0.0090191718
4781.5134777830	0.0088983178
4783.4422851560	0.0088928062
4785.3710925291	0.0088794287
4787.2998999021	0.0088765640
4789.2287072752	0.0088792732
4791.1575146482	0.0087643228
4793.0863220213	0.0088193789
4795.0151293943	0.0087981634
4796.9439367674	0.0087714680
4798.8727441404	0.0086634420
4800.8015515135	0.0086642336
4802.7303588865	0.0086375382
4804.6591662596	0.0085965153
4806.5879736326	0.0087003205
4808.5167810056	0.0085374909
4810.4455883787	0.0085262079
4812.3743957517	0.0085059777
4814.3032031248	0.0085447105
4816.2320104978	0.0084988261
4818.1608178709	0.0083334818
4820.0896252439	0.0084867319
4822.0184326170	0.0084673744
4823.9472399900	0.0084664840
4825.8760473631	0.0084262006
4827.8048547361	0.0083546033
4829.7336621092	0.0083286483
4831.6624694822	0.0083064176
4833.5912768553	0.0083568078
4835.5200842283	0.0082526244
4837.4488916013	0.0082713868
4839.3776989744	0.0082660848
4841.3065063474	0.0082499273
4843.2353137205	0.0082235541
4845.1641210935	0.0081646135
4847.0929284666	0.0082063777
4849.0217358396	0.0081614098
4850.9505432127	0.0081106490
4852.8793505857	0.0080784820
4854.8081579588	0.0081074927
4856.7369653318	0.0081137829
4858.6657727049	0.0081096515
4860.5945800779	0.0080264919
4862.5233874510	0.0080415122
4864.4521948240	0.0080281300
4866.3810021971	0.0079306960
4868.3098095701	0.0080566574
4870.2386169431	0.0078591630
4872.1674243162	0.0078791277
4874.0962316892	0.0079689790
4876.0250390623	0.0078008389
4877.9538464353	0.0079106018
4879.8826538084	0.0078547327
4881.8114611814	0.0078342827
4883.7402685545	0.0077859415
4885.6690759275	0.0077028642
4887.5978833006	0.0076723155
4889.5266906736	0.0076120226
4891.4554980467	0.0076891622
4893.3843054197	0.0076649385
4895.3131127928	0.0076891230
4897.2419201658	0.0076552005
4899.1707275388	0.0075881826
4901.0995349119	0.0076259105
4903.0283422849	0.0076649496
4904.9571496580	0.0075756516
4906.8859570310	0.0074697887
4908.8147644041	0.0075346930
4910.7435717771	0.0074657965
4912.6723791502	0.0074653807
4914.6011865232	0.0074582645
4916.5299938963	0.0074207513
4918.4588012693	0.0074292347
4920.3876086424	0.0073387120
4922.3164160154	0.0073544364
4924.2452233885	0.0073226411
4926.1740307615	0.0072973524
4928.1028381345	0.0072812117
4930.0316455076	0.0072813015
4931.9604528806	0.0072638015
4933.8892602537	0.0071482137
4935.8180676267	0.0071651135
4937.7468749998	0.0072026532
4939.6756823728	0.0071351388
4941.6044897459	0.0070656305
4943.5332971189	0.0071605742
4945.4621044920	0.0071444698
4947.3909118650	0.0070860451
4949.3197192381	0.0071272664
4951.2485266111	0.0070332093
4953.1773339842	0.0070799291
4955.1061413572	0.0070812907
4957.0349487302	0.0069623319
4958.9637561033	0.0070123700
4960.8925634763	0.0070275450
4962.8213708494	0.0069404119
4964.7501782224	0.0069420333
4966.6789855955	0.0069594323
4968.6077929685	0.0068951230
4970.5366003416	0.0068490980
4972.4654077146	0.0068270583
4974.3942150877	0.0068381093
4976.3230224607	0.0067974571
4978.2518298338	0.0068303850
4980.1806372068	0.0068263584
4982.1094445799	0.0067238733
4984.0382519529	0.0067950669
4985.9670593259	0.0067325151
4987.8958666990	0.0066562239
4989.8246740720	0.0067009116
4991.7534814451	0.0066953432
4993.6822888181	0.0066870982
4995.6110961912	0.0066250619
4997.5399035642	0.0065989960
4999.4687109373	0.0065770233
5001.3975183103	0.0065876925
5003.3263256834	0.0065903021
5005.2551330564	0.0065420726
5007.1839404295	0.0065607838
5009.1127478025	0.0065371231
5011.0415551756	0.0064898315
5012.9703625486	0.0064980858
5014.8991699217	0.0064626867
5016.8279772947	0.0064124619
5018.7567846677	0.0064613475
5020.6855920408	0.0064316196
5022.6143994138	0.0063979421
5024.5432067869	0.0064372048
5026.4720141599	0.0063439524
5028.4008215330	0.0063410285
5030.3296289060	0.0063930061
5032.2584362791	0.0063532158
5034.1872436521	0.0063188309
5036.1160510252	0.0062587764
5038.0448583982	0.0063023199
5039.9736657713	0.0063141705
5041.9024731443	0.0062317401
5043.8312805174	0.0062145041
5045.7600878904	0.0061663878
5047.6888952634	0.0062083602
5049.6177026365	0.0061872704
5051.5465100095	0.0061482196
5053.4753173826	0.0062367553
5055.4041247556	0.0061043869
5057.3329321287	0.0060833981
5059.2617395017	0.0060904315
5061.1905468748	0.0060080551
5063.1193542478	0.0060790498
5065.0481616209	0.0059816283
5066.9769689939	0.0059533054
5068.9057763670	0.0059642377
5070.8345837400	0.0059369532
5072.7633911131	0.0059956200
5074.6921984861	0.0059443582
5076.6210058591	0.0059143156
5078.5498132322	0.0058978139
5080.4786206052	0.0059425142
5082.4074279783	0.0059674224
5084.3362353513	0.0059027923
5086.2650427244	0.0058563547
5088.1938500974	0.0058351639
5090.1226574705	0.0058655832
5092.0514648435	0.0058069434
5093.9802722166	0.0057836436
5095.9090795896	0.0057601910
5097.8378869627	0.0056601907
5099.7666943357	0.0056816703
5101.6955017088	0.0057684928
5103.6243090818	0.0057582362
5105.5531164548	0.0056683077
5107.4819238279	0.0056915754
5109.4107312009	0.0057059964
5111.3395385740	0.0056336056
5113.2683459470	0.0056292918
5115.1971533201	0.0056125261
5117.1259606931	0.0055442825
5119.0547680662	0.0055610114
5120.9835754392	0.0055531440
5122.9123828123	0.0054693073
5124.8411901853	0.0055265883
5126.7699975584	0.0055326084
5128.6988049314	0.0054889768
5130.6276123045	0.0055098198
5132.5564196775	0.0054613957
5134.4852270506	0.0054676123
5136.4140344236	0.0054630903
5138.3428417966	0.0054121269
5140.2716491697	0.0053661261
5142.2004565427	0.0054301992
5144.1292639158	0.0055186879
5146.0580712888	0.0053396430
5147.9868786619	0.0053149257
5149.9156860349	0.0054196296
5151.8444934080	0.0053338576
5153.7733007810	0.0053413268
5155.7021081541	0.0053165983
5157.6309155271	0.0052732537
5159.5597229002	0.0053156447
5161.4885302732	0.0052763848
5163.4173376463	0.0052561746
5165.3461450193	0.0052842479
5167.2749523923	0.0052683530
5169.2037597654	0.0052134311
5171.1325671384	0.0051937774
5173.0613745115	0.0051425872
5174.9901818845	0.0051553966
5176.9189892576	0.0051413495
5178.8477966306	0.0050383639
5180.7766040037	0.0051357588
5182.7054113767	0.0050985795
5184.6342187498	0.0050388994
5186.5630261228	0.0050768219
5188.4918334959	0.0050396076
5190.4206408689	0.0050948509
5192.3494482420	0.0050351419
5194.2782556150	0.0050235232
5196.2070629880	0.0050438540
5198.1358703611	0.0049957419
5200.0646777341	0.0049567558
5201.9934851072	0.0049618869
5203.9222924802	0.0049802596
5205.8510998533	0.0048184926
5207.7799072263	0.0048466474
5209.7087145994	0.0048709959
5211.6375219724	0.0048577837
5213.5663293455	0.0049370155
5215.4951367185	0.0048907939
5217.4239440916	0.0048507215
5219.3527514646	0.0047622332
5221.2815588377	0.0048636394
5223.2103662107	0.0048412988
5225.1391735837	0.0046911901
5227.0679809568	0.0047900965
5228.9967883298	0.0047972258
5230.9255957029	0.0047412943
5232.8544030759	0.0046884269
5234.7832104490	0.0047264807
5236.7120178220	0.0048173070
5238.6408251951	0.0047718855
5240.5696325681	0.0046908967
5242.4984399412	0.0047806138
5244.4272473142	0.0047086710
5246.3560546873	0.0045879162
5248.2848620603	0.0046682833
5250.2136694334	0.0045875879
5252.1424768064	0.0047270670
5254.0712841795	0.0046348101
5256.0000915525	0.0044833217
5257.9288989255	0.0046776682
5259.8577062986	0.0045935977
5261.7865136716	0.0045842808
5263.7153210447	0.0044403607
5265.6441284177	0.0044081961
5267.5729357908	0.0045285989
5269.5017431638	0.0044568302
5271.4305505369	0.0045393128
5273.3593579099	0.0045216200
5275.2881652830	0.0045349295
5277.2169726560	0.0045260228
5279.1457800291	0.0044163568
5281.0745874021	0.0044349860
5283.0033947752	0.0045063705
5284.9322021482	0.0044211606
5286.8610095212	0.0044141430
5288.7898168943	0.0044744052
5290.7186242673	0.0043241503
5292.6474316404	0.0043985741
5294.5762390134	0.0043574874
5296.5050463865	0.0043141427
5298.4338537595	0.0043833265
5300.3626611326	0.0042804824
5302.2914685056	0.0043167113
5304.2202758787	0.0043139490
5306.1490832517	0.0043496797
5308.0778906248	0.0042845337
5310.0066979978	0.0042349808
5311.9355053709	0.0042972211
5313.8643127439	0.0042875241
5315.7931201169	0.0042197788
5317.7219274900	0.0041431366
5319.6507348630	0.0042837965
5321.5795422361	0.0041885884
5323.5083496091	0.0041679973
5325.4371569822	0.0042206356
5327.3659643552	0.0040898388
5329.2947717283	0.0041817455
5331.2235791013	0.0041593043
5333.1523864744	0.0040908912
5335.0811938474	0.0041383579
5337.0100012205	0.0041233855
5338.9388085935	0.0039572557
5340.8676159666	0.0040715709
5342.7964233396	0.0041884668
5344.7252307126	0.0039793169
5346.6540380857	0.0040512998
5348.5828454587	0.0040729837
5350.5116528318	0.0040900507
5352.4404602048	0.0040506460
5354.3692675779	0.0039025238
5356.2980749509	0.0039830012
5358.2268823240	0.0040006591
5360.1556896970	0.0040294384
5362.0844970701	0.0040150313
5364.0133044431	0.0039264280
5365.9421118162	0.0038807578
5367.8709191892	0.0038954639
5369.7997265623	0.0038999438
5371.7285339353	0.0039472962
5373.6573413083	0.0039910469
5375.5861486814	0.0038867672
5377.5149560544	0.0038659822
5379.4437634275	0.0038149185
5381.3725708005	0.0038706097
5383.3013781736	0.0039010420
5385.2301855466	0.0037919241
5387.1589929197	0.0038405727
5389.0878002927	0.0038178680
5391.0166076658	0.0037663484
5392.9454150388	0.0037494469
5394.8742224119	0.0037660417
5396.8030297849	0.0037854100
5398.7318371580	0.0037537459
5400.6606445310	0.0037219366
5402.5894519041	0.0036773775
5404.5182592771	0.0036583557
5406.4470666501	0.0037183287
5408.3758740232	0.0037726350
5410.3046813962	0.0036762096
5412.2334887693	0.0036552937
5414.1622961423	0.0036025564
5416.0911035154	0.0035885635
5418.0199108884	0.0037226540
5419.9487182615	0.0036808387
5421.8775256345	0.0036351322
5423.8063330076	0.0036149167
5425.7351403806	0.0036179367
5427.6639477537	0.0036104019
5429.5927551267	0.0035476778
5431.5215624998	0.0036125658
5433.4503698728	0.0036420194
5435.3791772458	0.0034926985
5437.3079846189	0.0034838710
5439.2367919919	0.0035522596
5441.1655993650	0.0035050414
5443.0944067380	0.0035662511
5445.0232141111	0.0034584936
5446.9520214841	0.0034790621
5448.8808288572	0.0035646423
5450.8096362302	0.0033926570
5452.7384436033	0.0034581162
5454.6672509763	0.0034609011
5456.5960583494	0.0035055717
5458.5248657224	0.0034960005
5460.4536730955	0.0033840300
5462.3824804685	0.0034250538
5464.3112878415	0.0033435056
5466.2400952146	0.0033763549
5468.1689025876	0.0033120466
5470.0977099607	0.0033071977
5472.0265173337	0.0034271036
5473.9553247068	0.0033343635
5475.8841320798	0.0033048210
5477.8129394529	0.0033282151
5479.7417468259	0.0033702343
5481.6705541990	0.0034064292
5483.5993615720	0.0033657721
5485.5281689451	0.0032772697
5487.4569763181	0.0033526849
5489.3857836912	0.0033486085
5491.3145910642	0.0032075699
5493.2433984372	0.0032695178
5495.1722058103	0.0032681462
5497.1010131833	0.0032542837
5499.0298205564	0.0032409024
5500.9586279294	0.0032568034
5502.8874353025	0.0032630623
5504.8162426755	0.0031954718
5506.7450500486	0.0032644845
5508.6738574216	0.0031900597
5510.6026647947	0.0031195513
5512.5314721677	0.0032143139
5514.4602795408	0.0032326586
5516.3890869138	0.0032070945
5518.3178942869	0.0031901803
5520.2467016599	0.0031545055
5522.1755090330	0.0031067827
5524.1043164060	0.0030678678
5526.0331237790	0.0030970918
5527.9619311521	0.0031616213
5529.8907385251	0.0031113310
5531.8195458982	0.0031295826
5533.7483532712	0.0031325941
5535.6771606443	0.0030372837
5537.6059680173	0.0030579548
5539.5347753904	0.0031142659
5541.4635827634	0.0031103408
5543.3923901365	0.0030737873
5545.3211975095	0.0030921604
5547.2500048826	0.0029488434
5549.1788122556	0.0028898567
5551.1076196287	0.0030517101
5553.0364270017	0.0029963898
5554.9652343747	0.0029602749
5556.8940417478	0.0029995230
5558.8228491208	0.0030016615
5560.7516564939	0.0029741204
5562.6804638669	0.0029083295
5564.6092712400	0.0029458720
5566.5380786130	0.0029830420
5568.4668859861	0.0029348761
5570.3956933591	0.0029110229
5572.3245007322	0.0029484741
5574.2533081052	0.0029495908
5576.1821154783	0.0029373392
5578.1109228513	0.0029203778
5580.0397302244	0.0029400946
5581.9685375974	0.0029343483
5583.8973449704	0.0028581652
5585.8261523435	0.0028664321
5587.7549597165	0.0028692628
5589.6837670896	0.0028796038
5591.6125744626	0.0028480354
5593.5413818357	0.0028418303
5595.4701892087	0.0028909305
5597.3989965818	0.0027912185
5599.3278039548	0.0027808272
5601.2566113279	0.0028159935
5603.1854187009	0.0027736118
5605.1142260740	0.0028014388
5607.0430334470	0.0028044959
5608.9718408201	0.0028089245
5610.9006481931	0.0028322712
5612.8294555661	0.0027552389
5614.7582629392	0.0027020988
5616.6870703122	0.0027219621
5618.6158776853	0.0027364241
5620.5446850583	0.0027254540
5622.4734924314	0.0027221101
5624.4022998044	0.0027540945
5626.3311071775	0.0027028215
5628.2599145505	0.0026884405
5630.1887219236	0.0026726604
5632.1175292966	0.0026510064
5634.0463366697	0.0027295118
5635.9751440427	0.0027121808
5637.9039514158	0.0026918026
5639.8327587888	0.0026377421
5641.7615661619	0.0026246044
5643.6903735349	0.0026320042
5645.6191809079	0.0025711749
5647.5479882810	0.0026249529
5649.4767956540	0.0026339330
5651.4056030271	0.0026307423
5653.3344104001	0.0026001895
5655.2632177732	0.0025741952
5657.1920251462	0.0025466166
5659.1208325193	0.0025423216
5661.0496398923	0.0026298729
5662.9784472654	0.0025414340
5664.9072546384	0.0025359723
5666.8360620115	0.0025545473
5668.7648693845	0.0024920483
5670.6936767576	0.0025409837
5672.6224841306	0.0025117830
5674.5512915036	0.0024563060
5676.4800988767	0.0024869200
5678.4089062497	0.0025303313
5680.3377136228	0.0025070929
5682.2665209958	0.0024870448
5684.1953283689	0.0024733087
5686.1241357419	0.0024888273
5688.0529431150	0.0024757651
5689.9817504880	0.0024306867
5691.9105578611	0.0024223467
5693.8393652341	0.0023974809
5695.7681726072	0.0024897100
5697.6969799802	0.0024446589
5699.6257873533	0.0023752295
5701.5545947263	0.0024179700
5703.4834020993	0.0024120710
5705.4122094724	0.0024671992
5707.3410168454	0.0023885774
5709.2698242185	0.0023680278
5711.1986315915	0.0023592860
5713.1274389646	0.0023167406
5715.0562463376	0.0024011228
5716.9850537107	0.0023329854
5718.9138610837	0.0022789701
5720.8426684568	0.0023430134
5722.7714758298	0.0024063131
5724.7002832029	0.0024034148
5726.6290905759	0.0023480665
5728.5578979490	0.0022903164
5730.4867053220	0.0022601495
5732.4155126950	0.0022931409
5734.3443200681	0.0023027491
5736.2731274411	0.0023218745
5738.2019348142	0.0023011705
5740.1307421872	0.0022998760
5742.0595495603	0.0023285942
5743.9883569333	0.0022576866
5745.9171643064	0.0022081565
5747.8459716794	0.0022277243
5749.7747790525	0.0021932302
5751.7035864255	0.0021578309
5753.6323937986	0.0022144623
5755.5612011716	0.0021806178
5757.4900085447	0.0021631825
5759.4188159177	0.0022294759
5761.3476232907	0.0022241995
5763.2764306638	0.0022208572
5765.2052380368	0.0022204963
5767.1340454099	0.0022180758
5769.0628527829	0.0021838550
5770.9916601560	0.0021543619
5772.9204675290	0.0021768461
5774.8492749021	0.0021999821
5776.7780822751	0.0021734480
5778.7068896482	0.0021318179
5780.6356970212	0.0021422063
5782.5645043943	0.0021294795
5784.4933117673	0.0021164012
5786.4221191404	0.0020967619
5788.3509265134	0.0020961165
5790.2797338865	0.0021326491
5792.2085412595	0.0021493318
5794.1373486325	0.0021394608
5796.0661560056	0.0020343591
5797.9949633786	0.0020013670
5799.9237707517	0.0020916043
5801.8525781247	0.0020596595
5803.7813854978	0.0019858247
5805.7101928708	0.0020154249
5807.6390002439	0.0020259935
5809.5678076169	0.0020244494
5811.4966149900	0.0020298525
5813.4254223630	0.0020452910
5815.3542297361	0.0020586536
5817.2830371091	0.0019877539
5819.2118444822	0.0019506158
5821.1406518552	0.0019564771
5823.0694592282	0.0020041603
5824.9982666013	0.0019852838
5826.9270739743	0.0019172329
5828.8558813474	0.0019688909
5830.7846887204	0.0019365668
5832.7134960935	0.0019075449
5834.6423034665	0.0019535453
5836.5711108396	0.0019544479
5838.4999182126	0.0019387016
5840.4287255857	0.0019672408
5842.3575329587	0.0019886768
5844.2863403318	0.0019181070
5846.2151477048	0.0018962682
5848.1439550779	0.0018775933
5850.0727624509	0.0018625134
5852.0015698239	0.0018738903
5853.9303771970	0.0018640957
5855.8591845700	0.0018733825
5857.7879919431	0.0019358308
5859.7167993161	0.0019391178
5861.6456066892	0.0017874402
5863.5744140622	0.0018215291
5865.5032214353	0.0018401620
5867.4320288083	0.0017541957
5869.3608361814	0.0018359018
5871.2896435544	0.0018243615
5873.2184509275	0.0018329285
5875.1472583005	0.0018639008
5877.0760656736	0.0017945149
5879.0048730466	0.0018035226
5880.9336804196	0.0018097295
5882.8624877927	0.0018214872
5884.7912951657	0.0018326319
5886.7201025388	0.0017613836
5888.6489099118	0.0017794139
5890.5777172849	0.0017603193
5892.5065246579	0.0017813563
5894.4353320310	0.0018982472
5896.3641394040	0.0017516048
5898.2929467771	0.0017392026
5900.2217541501	0.0017436064
5902.1505615232	0.0016692970
5904.0793688962	0.0017856866
5906.0081762693	0.0017510981
5907.9369836423	0.0017743865
5909.8657910154	0.0016902830
5911.7945983884	0.0016407169
5913.7234057614	0.0017611890
5915.6522131345	0.0016749267
5917.5810205075	0.0016890350
5919.5098278806	0.0016736339
5921.4386352536	0.0016861033
5923.3674426267	0.0017224797
5925.2962499997	0.0016459213
5927.2250573728	0.0016627571
5929.1538647458	0.0016684011
5931.0826721189	0.0016813939
5933.0114794919	0.0016992982
5934.9402868650	0.0016981331
5936.8690942380	0.0016600837
5938.7979016111	0.0016719743
5940.7267089841	0.0016859316
5942.6555163571	0.0016390416
5944.5843237302	0.0016306187
5946.5131311032	0.0016240638
5948.4419384763	0.0016765516
5950.3707458493	0.0016742013
5952.2995532224	0.0016141010
5954.2283605954	0.0015776776
5956.1571679685	0.0015812539
5958.0859753415	0.0015740839
5960.0147827146	0.0015522169
5961.9435900876	0.0016002584
5963.8723974607	0.0016014864
5965.8012048337	0.0015637461
5967.7300122068	0.0015427648
5969.6588195798	0.0015593832
5971.5876269528	0.0014709295
5973.5164343259	0.0014873396
5975.4452416989	0.0015694421
5977.3740490720	0.0014715287
5979.3028564450	0.0015352260
5981.2316638181	0.0015293770
5983.1604711911	0.0014960894
5985.0892785642	0.0015512307
5987.0180859372	0.0015632117
5988.9468933103	0.0015414885
5990.8757006833	0.0014370631
5992.8045080564	0.0015173386
5994.7333154294	0.0015415885
5996.6621228025	0.0014630628
5998.5909301755	0.0014253894
6000.5197375485	0.0014703805
