399.2631262207	0.9204189777
401.1919335938	0.7295943499
403.1207409668	0.4229446054
405.0495483398	0.5235670805
406.9783557129	0.6214239597
408.9071630859	0.7345371246
410.8359704590	0.7189115286
412.7647778320	0.5689116120
414.6935852051	0.5705778599
416.6223925781	0.3157963753
418.5511999512	0.5030831695
420.4800073242	0.7912623882
422.4088146973	0.5254491568
424.3376220703	0.6380496025
426.2664294434	0.5628660321
428.1952368164	0.6177422404
430.1240441895	0.5334780812
432.0528515625	0.5287024379
433.9816589355	0.7666378021
435.9104663086	0.4486017823
437.8392736816	0.3778639734
439.7680810547	0.6572569609
441.6968884277	0.7979594469
443.6256958008	0.4547295272
445.5545031738	0.5257582664
447.4833105469	1.1059713364
449.4121179199	0.8486616611
451.3409252930	0.9350498915
453.2697326660	0.5572442412
455.1985400391	0.7820316553
457.1273474121	1.1257313490
459.0561547852	0.4722998142
460.9849621582	0.4425079525
462.9137695313	0.6164943576
464.8425769043	1.2848358154
466.7713842773	0.3758666515
468.7001916504	0.1790637672
470.6289990234	0.2249562740
472.5578063965	-0.0834033638
474.4866137695	0.5440852642
476.4154211426	0.3087497652
478.3442285156	0.2815738320
480.2730358887	0.7057285905
482.2018432617	0.3977489173
484.1306506348	0.5793421865
486.0594580078	0.0033907576
487.9882653809	0.1683648974
489.9170727539	0.7265077829
491.8458801270	0.4671993554
493.7746875000	0.3837525249
495.7034948730	-0.2725332379
497.6323022461	0.0790207162
499.5611096191	0.2758873999
501.4899169922	0.3697689176
503.4187243652	0.5058009028
505.3475317383	0.0403140113
507.2763391113	0.4301374257
509.2051464844	0.4437380731
511.1339538574	0.8119521737
513.0627612305	0.5485939980
514.9915686035	0.0182233956
516.9203759766	0.2059036791
518.8491833496	0.5691418052
520.7779907227	0.3232209980
522.7067980957	0.5005249977
524.6356054688	2.0111384392
526.5644128418	0.3662355840
528.4932202148	1.1355161667
530.4220275879	1.6655124426
532.3508349609	-0.3413798213
534.2796423340	0.1573996544
536.2084497070	0.1593978554
538.1372570801	0.0307893585
540.0660644531	0.4781784415
541.9948718262	0.4464972317
543.9236791992	0.3996298909
545.8524865723	-0.0472256280
547.7812939453	-0.8165628910
549.7101013184	0.1431514472
551.6389086914	0.4057423770
553.5677160645	-0.0141475769
555.4965234375	0.0677091554
557.4253308105	0.8189870715
559.3541381836	0.1884833425
561.2829455566	0.2873387933
563.2117529297	0.4286718071
565.1405603027	0.6045362353
567.0693676758	0.7897508144
568.9981750488	-0.0577422120
570.9269824219	0.1808679700
572.8557897949	0.1855321527
574.7845971680	0.0950218737
576.7134045410	0.1621589959
578.6422119141	-0.0006862018
580.5710192871	0.2385409474
582.4998266602	0.4391931891
584.4286340332	0.2620886266
586.3574414063	0.0926664248
588.2862487793	0.5979763865
590.2150561523	0.5685147643
592.1438635254	0.5401390195
594.0726708984	1.2213529348
596.0014782715	0.1111649945
597.9302856445	0.2074396312
599.8590930176	0.9622910023
601.7879003906	0.3217575252
603.7167077637	-0.4175026715
605.6455151367	0.7616950870
607.5743225098	0.6879298687
609.5031298828	0.3199477792
611.4319372559	0.0611225180
613.3607446289	-2.1629674435
615.2895520020	0.6519863605
617.2183593750	0.1732805818
619.1471667480	0.6591253281
621.0759741211	-0.0400964059
623.0047814941	0.3209661841
624.9335888672	0.1782786697
626.8623962402	-0.1647336483
628.7912036133	-1.3951222897
630.7200109863	-0.4019999206
632.6488183594	0.4098744690
634.5776257324	0.7431530952
636.5064331055	0.7799935341
638.4352404785	0.9531422257
640.3640478516	0.6998540759
642.2928552246	0.7125831246
644.2216625977	0.7122366428
646.1504699707	0.6123576164
648.0792773438	0.5879043341
650.0080847168	0.7173630595
651.9368920898	0.8622642159
653.8656994629	0.5345439315
655.7945068359	0.6486700177
657.7233142090	0.7308141589
659.6521215820	0.5129551291
661.5809289551	0.8319057226
663.5097363281	0.7108724117
665.4385437012	0.7141709924
667.3673510742	0.9126364589
669.2961584473	0.6271668673
671.2249658203	0.7246406674
673.1537731934	0.7088694572
675.0825805664	0.7279953957
677.0113879395	0.7278268933
678.9401953125	0.6823511720
680.8690026855	0.7943632007
682.7978100586	0.6659001708
684.7266174316	0.6985635161
686.6554248047	0.7324303985
688.5842321777	0.6600831151
690.5130395508	0.6729747057
692.4418469238	0.7154906392
694.3706542969	0.7871327996
696.2994616699	0.7663466930
698.2282690430	0.7870530486
700.1570764160	0.7510807514
702.0858837891	0.7185991406
704.0146911621	0.7598637938
705.9434985352	0.7982767224
707.8723059082	0.7098384500
709.8011132813	0.6371514201
711.7299206543	0.8335808516
713.6587280273	0.6415716410
715.5875354004	0.7210866809
717.5163427734	1.2850173712
719.4451501465	0.2911193073
721.3739575195	0.5527964234
723.3027648926	0.2115912437
725.2315722656	0.5320663452
727.1603796387	0.6672859192
729.0891870117	-0.4778043330
731.0179943848	-0.1474459767
732.9468017578	-0.2179466784
734.8756091309	0.0858875290
736.8044165039	0.1985013783
738.7332238770	-0.2453987896
740.6620312500	-0.1723777354
742.5908386230	-0.1789195091
744.5196459961	-0.0511006266
746.4484533691	-0.3169407248
748.3772607422	0.2772173584
750.3060681152	0.1554552168
752.2348754883	0.1974698156
754.1636828613	0.7124122381
756.0924902344	0.2199527472
758.0212976074	0.2679092288
759.9501049805	0.0166583154
761.8789123535	-0.2935928404
763.8077197266	0.1324891597
765.7365270996	0.3003945351
767.6653344727	0.2422884852
769.5941418457	-0.2847470045
771.5229492188	0.3607789576
773.4517565918	0.6932411790
775.3805639648	0.4676041007
777.3093713379	0.5171718001
779.2381787109	0.4431236386
781.1669860840	0.2503923774
783.0957934570	0.3030886352
785.0246008301	0.4498601556
786.9534082031	0.3126932383
788.8822155762	0.6098698378
790.8110229492	0.5292884111
792.7398303223	0.1794347316
794.6686376953	0.6592530608
796.5974450684	0.4980133176
798.5262524414	0.5752717257
800.4550598145	0.7931535244
802.3838671875	0.5934868455
804.3126745605	0.6870037913
806.2414819336	0.6915161014
808.1702893066	0.4613945484
810.0990966797	0.5549510121
812.0279040527	0.1624417901
813.9567114258	-0.0280107055
815.8855187988	0.3472762108
817.8143261719	0.7932520509
819.7431335449	0.6487964392
821.6719409180	0.3304578662
823.6007482910	0.4905064702
825.5295556641	0.8062896729
827.4583630371	0.6548512578
829.3871704102	0.9976531267
831.3159777832	0.6807628274
833.2447851563	0.6323317885
835.1735925293	0.8014171720
837.1023999023	0.5486545563
839.0312072754	0.7318264842
840.9600146484	0.6780509949
842.8888220215	0.6970402002
844.8176293945	0.8722475767
846.7464367676	0.5669121742
848.6752441406	0.9888190627
850.6040515137	0.9508198500
852.5328588867	0.7066266537
854.4616662598	0.9336307645
856.3904736328	0.8891401887
858.3192810059	1.0251820087
860.2480883789	0.6270070672
862.1768957520	1.0115382671
864.1057031250	0.4577776194
866.0345104980	0.1059575081
867.9633178711	1.0362365246
869.8921252441	0.2970403433
871.8209326172	0.1371195465
873.7497399902	2.9135050774
875.6785473633	0.6378908753
877.6073547363	0.5647670031
879.5361621094	1.6121346951
881.4649694824	4.8118114471
883.3937768555	0.4605738819
885.3225842285	-0.1085289270
887.2513916016	0.9890357852
889.1801989746	1.7660180330
891.1090063477	0.7710315585
893.0378137207	0.7047920227
894.9666210938	0.4888777733
896.8954284668	0.5815812945
898.8242358398	0.5501240492
900.7530432129	0.9317544103
902.6818505859	1.6414340734
904.6106579590	1.1637462378
906.5394653320	0.7195971012
908.4682727051	1.1812343597
910.3970800781	0.8490680456
912.3258874512	0.6398984790
914.2546948242	0.6780485511
916.1835021973	1.0528028011
918.1123095703	1.4248510599
920.0411169434	0.8225373626
921.9699243164	0.7818729281
923.8987316895	1.2142940760
925.8275390625	0.8701978326
927.7563464355	0.9847817421
929.6851538086	1.1074200869
931.6139611816	0.7775196433
933.5427685547	1.1050209999
935.4715759277	1.3194676638
937.4003833008	0.9472805858
939.3291906738	0.8464186192
941.2579980469	0.9874455333
943.1868054199	1.0351246595
945.1156127930	0.8842281699
947.0444201660	1.0879845619
948.9732275391	0.9377216101
950.9020349121	0.8208681345
952.8308422852	0.9997790456
954.7596496582	0.9116901755
956.6884570313	1.2278922796
958.6172644043	1.1722462177
960.5460717773	0.8927755356
962.4748791504	0.9602547288
964.4036865234	0.8971180320
966.3324938965	0.9586187601
968.2613012695	1.0187728405
970.1901086426	1.0755913258
972.1189160156	1.0821931362
974.0477233887	1.0454843044
975.9765307617	1.0089710951
977.9053381348	0.9826578498
979.8341455078	1.0043256283
981.7629528809	0.9905572534
983.6917602539	1.0194109678
985.6205676270	0.9452384710
987.5493750000	0.9568360448
989.4781823730	1.0653723478
991.4069897461	1.0022331476
993.3357971191	0.9656216502
995.2646044922	1.0146864653
997.1934118652	1.0170240402
999.1222192383	0.9645256996
1001.0510266113	0.9963584542
1002.9798339844	1.0250355005
1004.9086413574	0.9761345387
1006.8374487305	1.0037674904
1008.7662561035	1.0143671036
1010.6950634766	0.9916480184
1012.6238708496	1.0043604374
1014.5526782227	1.0163223743
1016.4814855957	1.0271973610
1018.4102929688	1.0221413374
1020.3391003418	1.0362781286
1022.2679077148	1.0243011713
1024.1967150879	0.9940550923
1026.1255224609	1.0057926178
1028.0543298340	0.9998082519
1029.9831372070	0.9890630841
1031.9119445801	1.0000532866
1033.8407519531	1.0045644045
1035.7695593262	1.0024318695
1037.6983666992	0.9948149920
1039.6271740723	0.9893125892
1041.5559814453	1.0033160448
1043.4847888184	1.0093079805
1045.4135961914	1.0136169195
1047.3424035645	1.0330029726
1049.2712109375	1.0149855614
1051.2000183105	0.9977540970
1053.1288256836	1.0085581541
1055.0576330566	1.0228580236
1056.9864404297	1.0146203041
1058.9152478027	0.9905339479
1060.8440551758	1.0046322346
1062.7728625488	0.9968922734
1064.7016699219	1.0000892878
1066.6304772949	1.0106166601
1068.5592846680	0.9842532873
1070.4880920410	1.0066732168
1072.4168994141	1.0015327930
1074.3457067871	1.0033844709
1076.2745141602	1.0170305967
1078.2033215332	0.9866805077
1080.1321289062	1.0180897713
1082.0609362793	1.0271081924
1083.9897436523	1.0162181854
1085.9185510254	1.0370311737
1087.8473583984	1.0346074104
1089.7761657715	1.0225037336
1091.7049731445	1.0218884945
1093.6337805176	1.0234797001
1095.5625878906	0.9945043921
1097.4913952637	0.9923251867
1099.4202026367	0.9977349639
1101.3490100098	0.9916628003
1103.2778173828	1.0266065598
1105.2066247559	1.0460586548
1107.1354321289	1.0085572004
1109.0642395019	0.9797246456
1110.9930468750	1.0254274607
1112.9218542480	1.0223010778
1114.8506616211	0.9869155884
1116.7794689941	1.0024174452
1118.7082763672	0.9891080856
1120.6370837402	1.0268125534
1122.5658911133	1.0208312273
1124.4946984863	0.9581090212
1126.4235058594	1.0450817347
1128.3523132324	1.0735048056
1130.2811206055	0.9992948174
1132.2099279785	0.9974687696
1134.1387353516	0.9956523180
1136.0675427246	1.0485275984
1137.9963500977	1.0683516264
1139.9251574707	0.9972311258
1141.8539648437	1.0041477680
1143.7827722168	1.0138866901
1145.7115795898	0.9932937622
1147.6403869629	0.9915642142
1149.5691943359	1.0073055029
1151.4980017090	1.0064905882
1153.4268090820	0.9807196259
1155.3556164551	1.0077388287
1157.2844238281	1.0352483988
1159.2132312012	1.0057297945
1161.1420385742	0.9935722947
1163.0708459473	1.0089255571
1164.9996533203	1.0036618710
1166.9284606934	1.0185227394
1168.8572680664	1.0320689678
1170.7860754394	1.0143457651
1172.7148828125	1.0353617668
1174.6436901855	1.0183370113
1176.5724975586	0.9968613386
1178.5013049316	1.0259158611
1180.4301123047	1.0152437687
1182.3589196777	1.0204356909
1184.2877270508	1.0203541517
1186.2165344238	1.0044660568
1188.1453417969	1.0253791809
1190.0741491699	1.0210410357
1192.0029565430	1.0098373890
1193.9317639160	1.0179277658
1195.8605712891	1.0210328102
1197.7893786621	1.0199954510
1199.7181860351	1.0186234713
1201.6469934082	1.0148807764
1203.5758007812	1.0092413425
1205.5046081543	1.0153160095
1207.4334155273	1.0167348385
1209.3622229004	1.0116840601
1211.2910302734	1.0164806843
1213.2198376465	1.0154358149
1215.1486450195	1.0109597445
1217.0774523926	1.0093342066
1219.0062597656	1.0081125498
1220.9350671387	1.0131431818
1222.8638745117	1.0168646574
1224.7926818848	1.0170581341
1226.7214892578	1.0165231228
1228.6502966308	1.0133473873
1230.5791040039	1.0140664577
1232.5079113769	1.0175641775
1234.4367187500	1.0178266764
1236.3655261230	1.0161186457
1238.2943334961	1.0156428814
1240.2231408691	1.0163874626
1242.1519482422	1.0143729448
1244.0807556152	1.0138728619
1246.0095629883	1.0187531710
1247.9383703613	1.0166357756
1249.8671777344	1.0149571896
1251.7959851074	1.0225369930
1253.7247924805	1.0160599947
1255.6535998535	1.0142996311
1257.5824072266	1.0181287527
1259.5112145996	1.0059015751
1261.4400219726	1.0147564411
1263.3688293457	1.0179594755
1265.2976367187	1.0086557865
1267.2264440918	1.0194613934
1269.1552514648	1.0149147511
1271.0840588379	1.0104476213
1273.0128662109	1.0119110346
1274.9416735840	1.0118982792
1276.8704809570	1.0193401575
1278.7992883301	1.0121344328
1280.7280957031	1.0091962814
1282.6569030762	1.0127218962
1284.5857104492	1.0146449804
1286.5145178223	1.0197949409
1288.4433251953	1.0217622519
1290.3721325683	1.0156817436
1292.3009399414	1.0021457672
1294.2297473144	1.0083088875
1296.1585546875	1.0169657469
1298.0873620605	1.0158787966
1300.0161694336	1.0154579878
1301.9449768066	1.0122218132
1303.8737841797	1.0201447010
1305.8025915527	1.0237642527
1307.7313989258	1.0171260834
1309.6602062988	1.0112298727
1311.5890136719	1.0192680359
1313.5178210449	1.0226248503
1315.4466284180	1.0119111538
1317.3754357910	1.0180300474
1319.3042431640	1.0168310404
1321.2330505371	1.0168652534
1323.1618579101	1.0202573538
1325.0906652832	1.0160131454
1327.0194726562	1.0203455687
1328.9482800293	1.0139492750
1330.8770874023	1.0134288073
1332.8058947754	1.0125883818
1334.7347021484	1.0104162693
1336.6635095215	1.0199283361
1338.5923168945	1.0173553228
1340.5211242676	1.0191377401
1342.4499316406	1.0182144642
1344.3787390137	1.0149344206
1346.3075463867	1.0180461407
1348.2363537597	1.0135587454
1350.1651611328	1.0143860579
1352.0939685058	1.0145264864
1354.0227758789	1.0131530762
1355.9515832519	1.0146857500
1357.8803906250	1.0145392418
1359.8091979980	1.0175927877
1361.7380053711	1.0248560905
1363.6668127441	1.0218994617
1365.5956201172	1.0143997669
1367.5244274902	1.0206633806
1369.4532348633	1.0150623322
1371.3820422363	1.0095034838
1373.3108496094	1.0166335106
1375.2396569824	1.0162675381
1377.1684643555	1.0145295858
1379.0972717285	1.0155023336
1381.0260791015	1.0182200670
1382.9548864746	1.0131633282
1384.8836938476	1.0132287741
1386.8125012207	1.0162296295
1388.7413085937	1.0126780272
1390.6701159668	1.0148804188
1392.5989233398	1.0174885988
1394.5277307129	1.0179470778
1396.4565380859	1.0114609003
1398.3853454590	1.0204519033
1400.3141528320	1.0247247219
1402.2429602051	1.0120995045
1404.1717675781	1.0157107115
1406.1005749512	1.0134541988
1408.0293823242	1.0155816078
1409.9581896972	1.0206644535
1411.8869970703	1.0170392990
1413.8158044433	1.0169581175
1415.7446118164	1.0135898590
1417.6734191894	1.0195683241
1419.6022265625	1.0174411535
1421.5310339355	1.0110323429
1423.4598413086	1.0166161060
1425.3886486816	1.0154154301
1427.3174560547	1.0145428181
1429.2462634277	1.0179518461
1431.1750708008	1.0166351795
1433.1038781738	1.0080537796
1435.0326855469	1.0127246380
1436.9614929199	1.0238356590
1438.8903002929	1.0162065029
1440.8191076660	1.0193597078
1442.7479150390	1.0246866941
1444.6767224121	1.0179777145
1446.6055297851	1.0162098408
1448.5343371582	1.0149948597
1450.4631445312	1.0082792044
1452.3919519043	1.0082899332
1454.3207592773	1.0217162371
1456.2495666504	1.0292580128
1458.1783740234	1.0244857073
1460.1071813965	1.0201823711
1462.0359887695	1.0134040117
1463.9647961426	1.0147998333
1465.8936035156	1.0199449062
1467.8224108886	1.0185103416
1469.7512182617	1.0183846951
1471.6800256347	1.0176460743
1473.6088330078	1.0168228149
1475.5376403808	1.0162938833
1477.4664477539	1.0167113543
1479.3952551269	1.0132783651
1481.3240625000	1.0142391920
1483.2528698730	1.0169193745
1485.1816772461	1.0085293055
1487.1104846191	1.0140205622
1489.0392919922	1.0225492716
1490.9680993652	1.0176122189
1492.8969067383	1.0146353245
1494.8257141113	1.0131866932
1496.7545214843	1.0169917345
1498.6833288574	1.0151894093
1500.6121362304	1.0112065077
1502.5409436035	1.0119076967
1504.4697509765	1.0152850151
1506.3985583496	1.0248552561
1508.3273657226	1.0188786983
1510.2561730957	1.0130498409
1512.1849804687	1.0106990337
1514.1137878418	1.0094795227
1516.0425952148	1.0152260065
1517.9714025879	1.0159488916
1519.9002099609	1.0168889761
1521.8290173340	1.0190417767
1523.7578247070	1.0112380981
1525.6866320801	1.0113015175
1527.6154394531	1.0118186474
1529.5442468261	1.0047037601
1531.4730541992	1.0083191395
1533.4018615722	1.0148055553
1535.3306689453	1.0086108446
1537.2594763183	1.0088051558
1539.1882836914	1.0192445517
1541.1170910644	1.0194966793
1543.0458984375	1.0129637718
1544.9747058105	1.0091056824
1546.9035131836	1.0065253973
1548.8323205566	1.0081431866
1550.7611279297	1.0063525438
1552.6899353027	1.0060397387
1554.6187426758	1.0075075626
1556.5475500488	1.0065772533
1558.4763574218	1.0189718008
1560.4051647949	1.0144152641
1562.3339721679	1.0020439625
1564.2627795410	1.0034215450
1566.1915869140	0.9999733567
1568.1203942871	1.0022655725
1570.0492016601	1.0059599876
1571.9780090332	0.9962736964
1573.9068164062	0.9973183274
1575.8356237793	1.0060098171
1577.7644311523	0.9973263144
1579.6932385254	0.9896008968
1581.6220458984	0.9917924404
1583.5508532715	0.9925531745
1585.4796606445	0.9901923537
1587.4084680175	0.9902184010
1589.3372753906	0.9903598428
1591.2660827636	0.9873514175
1593.1948901367	0.9840006828
1595.1236975097	0.9812315702
1597.0525048828	0.9814212322
1598.9813122558	0.9782924056
1600.9101196289	0.9742871523
1602.8389270019	0.9743894339
1604.7677343750	0.9690384865
1606.6965417480	0.9675109386
1608.6253491211	0.9653571248
1610.5541564941	0.9626500010
1612.4829638672	0.9601902962
1614.4117712402	0.9566612840
1616.3405786132	0.9644142389
1618.2693859863	0.9552968740
1620.1981933593	0.9462642074
1622.1270007324	0.9481133223
1624.0558081054	0.9442825317
1625.9846154785	0.9431500435
1627.9134228515	0.9383663535
1629.8422302246	0.9376523495
1631.7710375976	0.9365085363
1633.6998449707	0.9364851713
1635.6286523437	0.9451955557
1637.5574597168	0.9359275699
1639.4862670898	0.9311681986
1641.4150744629	0.9342610836
1643.3438818359	0.9348392487
1645.2726892090	0.9374054670
1647.2014965820	0.9395936131
1649.1303039550	0.9383156896
1651.0591113281	0.9414607882
1652.9879187011	0.9585274458
1654.9167260742	0.9487522840
1656.8455334472	0.9406594634
1658.7743408203	0.9457392693
1660.7031481933	0.9472087622
1662.6319555664	0.9516606331
1664.5607629394	0.9528522491
1666.4895703125	0.9534405470
1668.4183776855	0.9609687924
1670.3471850586	0.9634305835
1672.2759924316	0.9605183601
1674.2047998047	0.9678062201
1676.1336071777	0.9734486341
1678.0624145507	0.9679782391
1679.9912219238	0.9730662704
1681.9200292968	0.9756662846
1683.8488366699	0.9826928377
1685.7776440429	0.9900829792
1687.7064514160	0.9828256369
1689.6352587890	0.9883558750
1691.5640661621	0.9857574701
1693.4928735351	0.9890028238
1695.4216809082	1.0036078691
1697.3504882812	0.9951998591
1699.2792956543	1.0023189783
1701.2081030273	1.0092130899
1703.1369104004	0.9997172952
1705.0657177734	1.0066748857
1706.9945251464	1.0063186884
1708.9233325195	1.0033845901
1710.8521398925	1.0070431232
1712.7809472656	1.0070208311
1714.7097546386	1.0130532980
1716.6385620117	1.0163586140
1718.5673693847	1.0178461075
1720.4961767578	1.0154856443
1722.4249841308	1.0123342276
1724.3537915039	1.0163344145
1726.2825988769	1.0136718750
1728.2114062500	1.0191776752
1730.1402136230	1.0211373568
1732.0690209961	1.0176178217
1733.9978283691	1.0301491022
1735.9266357421	1.0257657766
1737.8554431152	1.0224381685
1739.7842504882	1.0246050358
1741.7130578613	1.0221205950
1743.6418652343	1.0233110189
1745.5706726074	1.0232522488
1747.4994799804	1.0259104967
1749.4282873535	1.0274693966
1751.3570947265	1.0285224915
1753.2859020996	1.0256294012
1755.2147094726	1.0238968134
1757.1435168457	1.0288814306
1759.0723242187	1.0253208876
1761.0011315918	1.0277150869
1762.9299389648	1.0311844349
1764.8587463379	1.0258498192
1766.7875537109	1.0309175253
1768.7163610839	1.0292001963
1770.6451684570	1.0294524431
1772.5739758300	1.0375806093
1774.5027832031	1.0290030241
1776.4315905761	1.0291929245
1778.3603979492	1.0312799215
1780.2892053222	1.0285354853
1782.2180126953	1.0307780504
1784.1468200683	1.0285246372
1786.0756274414	1.0309170485
1788.0044348144	1.0308914185
1789.9332421875	1.0307918787
1791.8620495605	1.0351630449
1793.7908569336	1.0325901508
1795.7196643066	1.0331319571
1797.6484716796	1.0318080187
1799.5772790527	1.0303411484
1801.5060864257	1.0323225260
1803.4348937988	1.0316619873
1805.3637011718	1.0310095549
1807.2925085449	1.0302580595
1809.2213159179	1.0320756435
1811.1501232910	1.0338059664
1813.0789306640	1.0338530540
1815.0077380371	1.0323821306
1816.9365454101	1.0317218304
1818.8653527832	1.0328332186
1820.7941601562	1.0301634073
1822.7229675293	1.0318717957
1824.6517749023	1.0355596542
1826.5805822753	1.0328165293
1828.5093896484	1.0332126617
1830.4381970214	1.0343381166
1832.3670043945	1.0320986509
1834.2958117675	1.0319741964
1836.2246191406	1.0327610970
1838.1534265136	1.0349057913
1840.0822338867	1.0330210924
1842.0110412597	1.0311737061
1843.9398486328	1.0371642113
1845.8686560058	1.0349991322
1847.7974633789	1.0311565399
1849.7262707519	1.0332975388
1851.6550781250	1.0317058563
1853.5838854980	1.0315159559
1855.5126928710	1.0319268703
1857.4415002441	1.0304374695
1859.3703076171	1.0304398537
1861.2991149902	1.0301181078
1863.2279223632	1.0315412283
1865.1567297363	1.0336313248
1867.0855371093	1.0329736471
1869.0143444824	1.0332511663
1870.9431518554	1.0335667133
1872.8719592285	1.0325522423
1874.8007666015	1.0334415436
1876.7295739746	1.0326701403
1878.6583813476	1.0313427448
1880.5871887207	1.0325903893
1882.5159960937	1.0336109400
1884.4448034667	1.0334210396
1886.3736108398	1.0330309868
1888.3024182128	1.0349086523
1890.2312255859	1.0347101688
1892.1600329589	1.0321671963
1894.0888403320	1.0322706699
1896.0176477050	1.0325627327
1897.9464550781	1.0332127810
1899.8752624511	1.0333435535
1901.8040698242	1.0323703289
1903.7328771972	1.0325566530
1905.6616845703	1.0324125290
1907.5904919433	1.0319685936
1909.5192993164	1.0324769020
1911.4481066894	1.0348950624
1913.3769140625	1.0347881317
1915.3057214355	1.0317268372
1917.2345288085	1.0341228247
1919.1633361816	1.0349031687
1921.0921435546	1.0324728489
1923.0209509277	1.0338766575
1924.9497583007	1.0330121517
1926.8785656738	1.0318429470
1928.8073730468	1.0316227674
1930.7361804199	1.0324593782
1932.6649877929	1.0326473713
1934.5937951660	1.0315579176
1936.5226025390	1.0349669456
1938.4514099121	1.0342576504
1940.3802172851	1.0322864056
1942.3090246582	1.0333900452
1944.2378320312	1.0322517157
1946.1666394042	1.0312067270
1948.0954467773	1.0299453735
1950.0242541503	1.0304082632
1951.9530615234	1.0303407907
1953.8818688964	1.0304163694
1955.8106762695	1.0298945904
1957.7394836425	1.0294222832
1959.6682910156	1.0321619511
1961.5970983886	1.0326749086
1963.5259057617	1.0331375599
1965.4547131347	1.0315817595
1967.3835205078	1.0318186283
1969.3123278808	1.0315557718
1971.2411352539	1.0283569098
1973.1699426269	1.0317177773
1975.0987499999	1.0304579735
1977.0275573730	1.0295482874
1978.9563647460	1.0315736532
1980.8851721191	1.0298095942
1982.8139794921	1.0312684774
1984.7427868652	1.0314204693
1986.6715942382	1.0317341089
1988.6004016113	1.0303299427
1990.5292089843	1.0294824839
1992.4580163574	1.0315651894
1994.3868237304	1.0284730196
1996.3156311035	1.0260897875
1998.2444384765	1.0276714563
2000.1732458496	1.0315102339
2002.1020532226	1.0299934149
2004.0308605956	1.0274940729
2005.9596679687	1.0304236412
2007.8884753417	1.0301250219
2009.8172827148	1.0306787491
2011.7460900878	1.0300160646
2013.6748974609	1.0287406445
2015.6037048339	1.0299965143
2017.5325122070	1.0285387039
2019.4613195800	1.0276603699
2021.3901269531	1.0262280703
2023.3189343261	1.0278751850
2025.2477416992	1.0297316313
2027.1765490722	1.0262722969
2029.1053564453	1.0274353027
2031.0341638183	1.0294085741
2032.9629711914	1.0278780460
2034.8917785644	1.0273932219
2036.8205859374	1.0275212526
2038.7493933105	1.0304014683
2040.6782006835	1.0307465792
2042.6070080566	1.0266116858
2044.5358154296	1.0275690556
2046.4646228027	1.0275498629
2048.3934301757	1.0238896608
2050.3222375488	1.0252648592
2052.2510449218	1.0279045105
2054.1798522949	1.0280823708
2056.1086596679	1.0281956196
2058.0374670410	1.0291951895
2059.9662744140	1.0268466473
2061.8950817871	1.0244390965
2063.8238891601	1.0270000696
2065.7526965331	1.0282977819
2067.6815039062	1.0270242691
2069.6103112792	1.0241904259
2071.5391186523	1.0243693590
2073.4679260253	1.0257427692
2075.3967333984	1.0255612135
2077.3255407714	1.0275765657
2079.2543481445	1.0261303186
2081.1831555175	1.0259025097
2083.1119628906	1.0272136927
2085.0407702636	1.0259319544
2086.9695776367	1.0259529352
2088.8983850097	1.0266165733
2090.8271923828	1.0273585320
2092.7559997558	1.0251477957
2094.6848071288	1.0257166624
2096.6136145019	1.0268191099
2098.5424218749	1.0237152576
2100.4712292480	1.0240435600
2102.4000366210	1.0255867243
2104.3288439941	1.0280909538
2106.2576513671	1.0289981365
2108.1864587402	1.0264642239
2110.1152661132	1.0258824825
2112.0440734863	1.0258623362
2113.9728808593	1.0248830318
2115.9016882324	1.0252698660
2117.8304956054	1.0269904137
2119.7593029785	1.0264005661
2121.6881103515	1.0244791508
2123.6169177245	1.0235447884
2125.5457250976	1.0244317055
2127.4745324706	1.0256742239
2129.4033398437	1.0263187885
2131.3321472167	1.0269258022
2133.2609545898	1.0267775059
2135.1897619628	1.0269608498
2137.1185693359	1.0247755051
2139.0473767089	1.0239578485
2140.9761840820	1.0247964859
2142.9049914550	1.0242866278
2144.8337988281	1.0266035795
2146.7626062011	1.0263835192
2148.6914135742	1.0254054070
2150.6202209472	1.0256470442
2152.5490283203	1.0240067244
2154.4778356933	1.0252846479
2156.4066430663	1.0263652802
2158.3354504394	1.0252226591
2160.2642578124	1.0234144926
2162.1930651855	1.0225640535
2164.1218725585	1.0256495476
2166.0506799316	1.0260840654
2167.9794873046	1.0239351988
2169.9082946777	1.0248028040
2171.8371020507	1.0243386030
2173.7659094238	1.0244166851
2175.6947167968	1.0272427797
2177.6235241699	1.0277911425
2179.5523315429	1.0244423151
2181.4811389160	1.0232095718
2183.4099462890	1.0265948772
2185.3387536620	1.0255935192
2187.2675610351	1.0249799490
2189.1963684081	1.0259573460
2191.1251757812	1.0250887871
2193.0539831542	1.0296481848
2194.9827905273	1.0295133591
2196.9115979003	1.0263804197
2198.8404052734	1.0287667513
2200.7692126464	1.0288616419
2202.6980200195	1.0267283916
2204.6268273925	1.0254032612
2206.5556347656	1.0267566442
2208.4844421386	1.0269389153
2210.4132495117	1.0258834362
2212.3420568847	1.0283864737
2214.2708642577	1.0283458233
2216.1996716308	1.0275015831
2218.1284790038	1.0290809870
2220.0572863769	1.0261245966
2221.9860937499	1.0256223679
2223.9149011230	1.0288363695
2225.8437084960	1.0273548365
2227.7725158691	1.0279062986
2229.7013232421	1.0271738768
2231.6301306152	1.0263434649
2233.5589379882	1.0302871466
2235.4877453613	1.0301018953
2237.4165527343	1.0294094086
2239.3453601074	1.0293011665
2241.2741674804	1.0281689167
2243.2029748534	1.0274653435
2245.1317822265	1.0278006792
2247.0605895995	1.0285786390
2248.9893969726	1.0267206430
2250.9182043456	1.0281568766
2252.8470117187	1.0298862457
2254.7758190917	1.0277917385
2256.7046264648	1.0278334618
2258.6334338378	1.0284764767
2260.5622412109	1.0269978046
2262.4910485839	1.0289126635
2264.4198559570	1.0313748121
2266.3486633300	1.0284291506
2268.2774707031	1.0284240246
2270.2062780761	1.0289938450
2272.1350854491	1.0279312134
2274.0638928222	1.0278037786
2275.9927001952	1.0277681351
2277.9215075683	1.0310139656
2279.8503149413	1.0303031206
2281.7791223144	1.0284928083
2283.7079296874	1.0279382467
2285.6367370605	1.0265322924
2287.5655444335	1.0301431417
2289.4943518066	1.0309451818
2291.4231591796	1.0277265310
2293.3519665527	1.0266002417
2295.2807739257	1.0273835659
2297.2095812988	1.0282624960
2299.1383886718	1.0269564390
2301.0671960449	1.0263171196
2302.9960034179	1.0272599459
2304.9248107909	1.0261571407
2306.8536181640	1.0242189169
2308.7824255370	1.0243804455
2310.7112329101	1.0215110779
2312.6400402831	1.0196137428
2314.5688476562	1.0205944777
2316.4976550292	1.0159235001
2318.4264624023	1.0139218569
2320.3552697753	1.0139665604
2322.2840771484	1.0110461712
2324.2128845214	1.0105754137
2326.1416918945	1.0068811178
2328.0704992675	1.0035467148
2329.9993066406	1.0039489269
2331.9281140136	1.0041946173
2333.8569213866	1.0052059889
2335.7857287597	1.0035226345
2337.7145361327	1.0035680532
2339.6433435058	1.0040217638
2341.5721508788	1.0029550791
2343.5009582519	1.0072363615
2345.4297656249	1.0096186399
2347.3585729980	1.0129624605
2349.2873803710	1.0196852684
2351.2161877441	1.0165934563
2353.1449951171	1.0065599680
2355.0738024902	1.0000561476
2357.0026098632	0.9963474274
2358.9314172363	0.9947403073
2360.8602246093	0.9953289628
2362.7890319823	0.9970375896
2364.7178393554	0.9962463379
2366.6466467284	0.9953218699
2368.5754541015	0.9973903894
2370.5042614745	1.0013983250
2372.4330688476	1.0077230930
2374.3618762206	1.0106519461
2376.2906835937	1.0149954557
2378.2194909667	1.0219836235
2380.1482983398	1.0256279707
2382.0771057128	1.0307950974
2384.0059130859	1.0310271978
2385.9347204589	1.0291676521
2387.8635278320	1.0306670666
2389.7923352050	1.0313328505
2391.7211425780	1.0347826481
2393.6499499511	1.0348298550
2395.5787573241	1.0324331522
2397.5075646972	1.0305949450
2399.4363720702	1.0306396484
2401.3651794433	1.0323895216
2403.2939868163	1.0293940306
2405.2227941894	1.0290300846
2407.1516015624	1.0311567783
2409.0804089355	1.0316700935
2411.0092163085	1.0309132338
2412.9380236816	1.0322781801
2414.8668310546	1.0318311453
2416.7956384277	1.0284820795
2418.7244458007	1.0332905054
2420.6532531738	1.0331552029
2422.5820605468	1.0301666260
2424.5108679198	1.0321729183
2426.4396752929	1.0325129032
2428.3684826659	1.0350760221
2430.2972900390	1.0336767435
2432.2260974120	1.0324069262
2434.1549047851	1.0351248980
2436.0837121581	1.0340801477
2438.0125195312	1.0333217382
2439.9413269042	1.0343605280
2441.8701342773	1.0319373608
2443.7989416503	1.0325084925
2445.7277490234	1.0351253748
2447.6565563964	1.0321630239
2449.5853637695	1.0336914063
2451.5141711425	1.0338331461
2453.4429785155	1.0320270061
2455.3717858886	1.0325245857
2457.3005932616	1.0298610926
2459.2294006347	1.0318269730
2461.1582080077	1.0322862864
2463.0870153808	1.0318630934
2465.0158227538	1.0338726044
2466.9446301269	1.0344104767
2468.8734374999	1.0336779356
2470.8022448730	1.0306314230
2472.7310522460	1.0314599276
2474.6598596191	1.0328930616
2476.5886669921	1.0327024460
2478.5174743652	1.0314964056
2480.4462817382	1.0324972868
2482.3750891112	1.0348470211
2484.3038964843	1.0323039293
2486.2327038573	1.0309877396
2488.1615112304	1.0311936140
2490.0903186034	1.0325621367
2492.0191259765	1.0330541134
2493.9479333495	1.0333358049
2495.8767407226	1.0347086191
2497.8055480956	1.0334910154
2499.7343554687	1.0326507092
2501.6631628417	1.0327966213
2503.5919702148	1.0335133076
2505.5207775878	1.0319091082
2507.4495849609	1.0304113626
2509.3783923339	1.0311195850
2511.3071997069	1.0329930782
2513.2360070800	1.0328984261
2515.1648144530	1.0345121622
2517.0936218261	1.0394634008
2519.0224291991	1.0338970423
2520.9512365722	1.0317656994
2522.8800439452	1.0332770348
2524.8088513183	1.0323467255
2526.7376586913	1.0354753733
2528.6664660644	1.0325576067
2530.5952734374	1.0334465504
2532.5240808105	1.0338950157
2534.4528881835	1.0338420868
2536.3816955566	1.0354682207
2538.3105029296	1.0313986540
2540.2393103027	1.0342094898
2542.1681176757	1.0321676731
2544.0969250487	1.0304800272
2546.0257324218	1.0362675190
2547.9545397948	1.0344552994
2549.8833471679	1.0321242809
2551.8121545409	1.0326600075
2553.7409619140	1.0335785151
2555.6697692870	1.0335661173
2557.5985766601	1.0333709717
2559.5273840331	1.0338797569
2561.4561914062	1.0355070829
2563.3849987792	1.0350848436
2565.3138061523	1.0314311981
2567.2426135253	1.0327903032
2569.1714208984	1.0337239504
2571.1002282714	1.0324062109
2573.0290356444	1.0342593193
2574.9578430175	1.0345473289
2576.8866503905	1.0321514606
2578.8154577636	1.0326775312
2580.7442651366	1.0324212313
2582.6730725097	1.0314272642
2584.6018798827	1.0365171432
2586.5306872558	1.0352431536
2588.4594946288	1.0304396152
2590.3883020019	1.0334424973
2592.3171093749	1.0349791050
2594.2459167480	1.0337213278
2596.1747241210	1.0330888033
2598.1035314941	1.0335383415
2600.0323388671	1.0348615646
2601.9611462401	1.0344403982
2603.8899536132	1.0312083960
2605.8187609862	1.0315532684
2607.7475683593	1.0351781845
2609.6763757323	1.0339750051
2611.6051831054	1.0299082994
2613.5339904784	1.0300292969
2615.4627978515	1.0348842144
2617.3916052245	1.0332421064
2619.3204125976	1.0313628912
2621.2492199706	1.0339754820
2623.1780273437	1.0332642794
2625.1068347167	1.0340508223
2627.0356420898	1.0328656435
2628.9644494628	1.0333478451
2630.8932568358	1.0334272385
2632.8220642089	1.0308142900
2634.7508715819	1.0321514606
2636.6796789550	1.0312364101
2638.6084863280	1.0322836637
2640.5372937011	1.0321588516
2642.4661010741	1.0315639973
2644.3949084472	1.0326950550
2646.3237158202	1.0294356346
2648.2525231933	1.0291274786
2650.1813305663	1.0314435959
2652.1101379394	1.0319272280
2654.0389453124	1.0305025578
2655.9677526855	1.0322513580
2657.8965600585	1.0328997374
2659.8253674315	1.0323741436
2661.7541748046	1.0338090658
2663.6829821776	1.0335117579
2665.6117895507	1.0363355875
2667.5405969237	1.0325715542
2669.4694042968	1.0319006443
2671.3982116698	1.0356020927
2673.3270190429	1.0317987204
2675.2558264159	1.0331351757
2677.1846337890	1.0321158171
2679.1134411620	1.0310914516
2681.0422485351	1.0331490040
2682.9710559081	1.0337979794
2684.8998632812	1.0343782902
2686.8286706542	1.0318936110
2688.7574780273	1.0310579538
2690.6862854003	1.0310270786
2692.6150927733	1.0327630043
2694.5439001464	1.0320008993
2696.4727075194	1.0319763422
2698.4015148925	1.0320438147
2700.3303222655	1.0312837362
2702.2591296386	1.0357707739
2704.1879370116	1.0314004421
2706.1167443847	1.0300270319
2708.0455517577	1.0324125290
2709.9743591308	1.0302205086
2711.9031665038	1.0329273939
2713.8319738769	1.0329502821
2715.7607812499	1.0325177908
2717.6895886230	1.0313259363
2719.6183959960	1.0317754745
2721.5472033690	1.0328092575
2723.4760107421	1.0292116404
2725.4048181151	1.0318948030
2727.3336254882	1.0330117941
2729.2624328612	1.0292294025
2731.1912402343	1.0304163694
2733.1200476073	1.0305342674
2735.0488549804	1.0290267467
2736.9776623534	1.0310901403
2738.9064697265	1.0316632986
2740.8352770995	1.0311520100
2742.7640844726	1.0294432640
2744.6928918456	1.0288025141
2746.6216992187	1.0298962593
2748.5505065917	1.0289139748
2750.4793139647	1.0313564539
2752.4081213378	1.0293096304
2754.3369287108	1.0282804966
2756.2657360839	1.0329772234
2758.1945434569	1.0314912796
2760.1233508300	1.0288016796
2762.0521582030	1.0275230408
2763.9809655761	1.0291163921
2765.9097729491	1.0304170847
2767.8385803222	1.0307909250
2769.7673876952	1.0286191702
2771.6961950683	1.0290901661
2773.6250024413	1.0350815058
2775.5538098144	1.0314478874
2777.4826171874	1.0308270454
2779.4114245604	1.0320792198
2781.3402319335	1.0293968916
2783.2690393065	1.0287804604
2785.1978466796	1.0259228945
2787.1266540526	1.0277173519
2789.0554614257	1.0288010836
2790.9842687987	1.0280436277
2792.9130761718	1.0276776552
2794.8418835448	1.0279797316
2796.7706909179	1.0279396772
2798.6994982909	1.0243546963
2800.6283056640	1.0263885260
2802.5571130370	1.0293691158
2804.4859204101	1.0286657810
2806.4147277831	1.0265115499
2808.3435351562	1.0272005796
2810.2723425292	1.0293139219
2812.2011499022	1.0284743309
2814.1299572753	1.0275744200
2816.0587646483	1.0248826742
2817.9875720214	1.0262678862
2819.9163793944	1.0295615196
2821.8451867675	1.0280832052
2823.7739941405	1.0252858400
2825.7028015136	1.0266860723
2827.6316088866	1.0275309086
2829.5604162597	1.0259406567
2831.4892236327	1.0295678377
2833.4180310058	1.0267724991
2835.3468383788	1.0225635767
2837.2756457519	1.0258257389
2839.2044531249	1.0267556906
2841.1332604979	1.0245327950
2843.0620678710	1.0236828327
2844.9908752440	1.0245013237
2846.9196826171	1.0223181248
2848.8484899901	1.0230181217
2850.7772973632	1.0220593214
2852.7061047362	1.0217238665
2854.6349121093	1.0261070728
2856.5637194823	1.0254881382
2858.4925268554	1.0264747143
2860.4213342284	1.0233166218
2862.3501416015	1.0214142799
2864.2789489745	1.0227202177
2866.2077563476	1.0197455883
2868.1365637206	1.0231002569
2870.0653710936	1.0239311457
2871.9941784667	1.0223526955
2873.9229858397	1.0206792355
2875.8517932128	1.0191073418
2877.7806005858	1.0246144533
2879.7094079589	1.0261905193
2881.6382153319	1.0242992640
2883.5670227050	1.0243676901
2885.4958300780	1.0239633322
2887.4246374511	1.0223151445
2889.3534448241	1.0200959444
2891.2822521972	1.0194122791
2893.2110595702	1.0191475153
2895.1398669433	1.0189875364
2897.0686743163	1.0199140310
2898.9974816893	1.0200715065
2900.9262890624	1.0177606344
2902.8550964354	1.0172683001
2904.7839038085	1.0178136826
2906.7127111815	1.0189762115
2908.6415185546	1.0179309845
2910.5703259276	1.0125741959
2912.4991333007	1.0153737068
2914.4279406737	1.0173412561
2916.3567480468	1.0139615536
2918.2855554198	1.0149388313
2920.2143627929	1.0150079727
2922.1431701659	1.0147399902
2924.0719775390	1.0127979517
2926.0007849120	1.0132286549
2927.9295922851	1.0129264593
2929.8583996581	1.0124258995
2931.7872070311	1.0172803402
2933.7160144042	1.0140162706
2935.6448217772	1.0127345324
2937.5736291503	1.0127081871
2939.5024365233	1.0115696192
2941.4312438964	1.0151994228
2943.3600512694	1.0112715960
2945.2888586425	1.0104709864
2947.2176660155	1.0112670660
2949.1464733886	1.0104311705
2951.0752807616	1.0122922659
2953.0040881347	1.0108219385
2954.9328955077	1.0099081993
2956.8617028808	1.0088191032
2958.7905102538	1.0085138083
2960.7193176268	1.0076100826
2962.6481249999	1.0090336800
2964.5769323729	1.0102460384
2966.5057397460	1.0080990791
2968.4345471190	1.0074806213
2970.3633544921	1.0073399544
2972.2921618651	1.0107636452
2974.2209692382	1.0078178644
2976.1497766112	1.0045922995
2978.0785839843	1.0062776804
2980.0073913573	1.0049175024
2981.9361987304	1.0025705099
2983.8650061034	0.9989212751
2985.7938134765	1.0018249750
2987.7226208495	1.0034185648
2989.6514282225	1.0030473471
2991.5802355956	1.0022287369
2993.5090429686	1.0000739098
2995.4378503417	1.0014342070
2997.3666577147	0.9999811649
2999.2954650878	1.0021756887
3001.2242724608	0.9983303547
3003.1530798339	0.9969629645
3005.0818872069	0.9993605614
3007.0106945800	0.9954243302
3008.9395019530	1.0015294552
3010.8683093261	0.9971094131
3012.7971166991	0.9909429550
3014.7259240722	0.9931740165
3016.6547314452	0.9915360808
3018.5835388182	0.9944764376
3020.5123461913	0.9911890030
3022.4411535643	0.9907485247
3024.3699609374	0.9937283993
3026.2987683104	0.9916975498
3028.2275756835	0.9918290973
3030.1563830565	0.9875558615
3032.0851904296	0.9840013385
3034.0139978026	0.9834214449
3035.9428051757	0.9830963612
3037.8716125487	0.9843471646
3039.8004199218	0.9828695059
3041.7292272948	0.9816822410
3043.6580346679	0.9825350642
3045.5868420409	0.9810658693
3047.5156494139	0.9803556204
3049.4444567870	0.9808503985
3051.3732641600	0.9802426696
3053.3020715331	0.9808020592
3055.2308789061	0.9776301384
3057.1596862792	0.9754816890
3059.0884936522	0.9762666821
3061.0173010253	0.9721441269
3062.9461083983	0.9732009768
3064.8749157714	0.9746389389
3066.8037231444	0.9686634541
3068.7325305175	0.9674600959
3070.6613378905	0.9665683508
3072.5901452636	0.9646283388
3074.5189526366	0.9651766419
3076.4477600097	0.9647232890
3078.3765673827	0.9647099376
3080.3053747557	0.9605041742
3082.2341821288	0.9606175423
3084.1629895018	0.9644253254
3086.0917968749	0.9590413570
3088.0206042479	0.9551192522
3089.9494116210	0.9558499455
3091.8782189940	0.9570426941
3093.8070263671	0.9571337104
3095.7358337401	0.9563912153
3097.6646411132	0.9537482262
3099.5934484862	0.9499883652
3101.5222558593	0.9521996975
3103.4510632323	0.9513757229
3105.3798706054	0.9450547695
3107.3086779784	0.9421589971
3109.2374853514	0.9438016415
3111.1662927245	0.9446164966
3113.0951000975	0.9417576790
3115.0239074706	0.9390742183
3116.9527148436	0.9391319156
3118.8815222167	0.9372712374
3120.8103295897	0.9295538664
3122.7391369628	0.9306544662
3124.6679443358	0.9335740805
3126.5967517089	0.9296299815
3128.5255590819	0.9298789501
3130.4543664550	0.9271280169
3132.3831738280	0.9236100316
3134.3119812011	0.9233703017
3136.2407885741	0.9240081906
3138.1695959471	0.9220572114
3140.0984033202	0.9208458066
3142.0272106932	0.9185423255
3143.9560180663	0.9134991765
3145.8848254393	0.9152641892
3147.8136328124	0.9074999094
3149.7424401854	0.9033996463
3151.6712475585	0.9071510434
3153.6000549315	0.9024775624
3155.5288623046	0.9021156430
3157.4576696776	0.9027967453
3159.3864770507	0.9044754505
3161.3152844237	0.8988762498
3163.2440917968	0.8946713209
3165.1728991698	0.8954821825
3167.1017065428	0.8919247985
3169.0305139159	0.8941633701
3170.9593212889	0.8889346123
3172.8881286620	0.8858379722
3174.8169360350	0.8840804100
3176.7457434081	0.8821159601
3178.6745507811	0.8838999271
3180.6033581542	0.8787030578
3182.5321655272	0.8796827197
3184.4609729003	0.8753477931
3186.3897802733	0.8739293814
3188.3185876464	0.8738712072
3190.2473950194	0.8686852455
3192.1762023925	0.8717546463
3194.1050097655	0.8658575416
3196.0338171386	0.8650991321
3197.9626245116	0.8658768535
3199.8914318846	0.8617869020
3201.8202392577	0.8623785377
3203.7490466307	0.8576874137
3205.6778540038	0.8573476672
3207.6066613768	0.8578873277
3209.5354687499	0.8555139899
3211.4642761229	0.8515344858
3213.3930834960	0.8498342633
3215.3218908690	0.8528419137
3217.2506982421	0.8484818935
3219.1795056151	0.8448159099
3221.1083129882	0.8472141027
3223.0371203612	0.8455218077
3224.9659277343	0.8417336345
3226.8947351073	0.8414535522
3228.8235424803	0.8396425247
3230.7523498534	0.8366441131
3232.6811572264	0.8346038461
3234.6099645995	0.8385136724
3236.5387719725	0.8406440020
3238.4675793456	0.8336136937
3240.3963867186	0.8347725868
3242.3251940917	0.8337925673
3244.2540014647	0.8311278224
3246.1828088378	0.8324310184
3248.1116162108	0.8286828399
3250.0404235839	0.8287356496
3251.9692309569	0.8292324543
3253.8980383300	0.8308605552
3255.8268457030	0.8281109929
3257.7556530760	0.8246915936
3259.6844604491	0.8266440630
3261.6132678221	0.8238099217
3263.5420751952	0.8236458898
3265.4708825682	0.8244925737
3267.3996899413	0.8257880807
3269.3284973143	0.8242943287
3271.2573046874	0.8227302432
3273.1861120604	0.8269597292
3275.1149194335	0.8235951662
3277.0437268065	0.8199410439
3278.9725341796	0.8207563758
3280.9013415526	0.8177824616
3282.8301489257	0.8170271516
3284.7589562987	0.8214082122
3286.6877636717	0.8208518624
3288.6165710448	0.8220038414
3290.5453784178	0.8250015974
3292.4741857909	0.8185238242
3294.4029931639	0.8166044950
3296.3318005370	0.8168536425
3298.2606079100	0.8161904216
3300.1894152831	0.8196406364
3302.1182226561	0.8172678947
3304.0470300292	0.8151007295
3305.9758374022	0.8162481189
3307.9046447753	0.8140698075
3309.8334521483	0.8150207400
3311.7622595214	0.8181367517
3313.6910668944	0.8139063120
3315.6198742675	0.8099454641
3317.5486816405	0.8106838465
3319.4774890135	0.8131348491
3321.4062963866	0.8129773736
3323.3351037596	0.8095817566
3325.2639111327	0.8117523193
3327.1927185057	0.8118327856
3329.1215258788	0.8088315129
3331.0503332518	0.8090230823
3332.9791406249	0.8092443943
3334.9079479979	0.8082962036
3336.8367553710	0.8068855405
3338.7655627440	0.8078935146
3340.6943701171	0.8082025647
3342.6231774901	0.8065356612
3344.5519848632	0.8068957925
3346.4807922362	0.8092564940
3348.4095996092	0.8063088655
3350.3384069823	0.8073226213
3352.2672143553	0.8113996983
3354.1960217284	0.8075855374
3356.1248291014	0.8091902137
3358.0536364745	0.8067179322
3359.9824438475	0.8011692166
3361.9112512206	0.8036279678
3363.8400585936	0.8075289130
3365.7688659667	0.8064740896
3367.6976733397	0.8025622368
3369.6264807128	0.8066788912
3371.5552880858	0.8058789372
3373.4840954589	0.8079578876
3375.4129028319	0.8101869822
3377.3417102049	0.8050379753
3379.2705175780	0.8084092140
3381.1993249510	0.8065673113
3383.1281323241	0.8059197068
3385.0569396971	0.8061951399
3386.9857470702	0.8035765886
3388.9145544432	0.8067196608
3390.8433618163	0.8104774952
3392.7721691893	0.8088660836
3394.7009765624	0.8042582870
3396.6297839354	0.8128076196
3398.5585913085	0.8129684925
3400.4873986815	0.8098137379
3402.4162060546	0.8151127696
3404.3450134276	0.8100986481
3406.2738208006	0.8113046885
3408.2026281737	0.8136191964
3410.1314355467	0.8156873584
3412.0602429198	0.8191203475
3413.9890502928	0.8187255859
3415.9178576659	0.8190532923
3417.8466650389	0.8166975975
3419.7754724120	0.8228552341
3421.7042797850	0.8248298764
3423.6330871581	0.8226061463
3425.5618945311	0.8263792992
3427.4907019042	0.8254818320
3429.4195092772	0.8290578723
3431.3483166503	0.8324456215
3433.2771240233	0.8337775469
3435.2059313963	0.8344878554
3437.1347387694	0.8303253055
3439.0635461424	0.8354444504
3440.9923535155	0.8419178724
3442.9211608885	0.8395275474
3444.8499682616	0.8386080861
3446.7787756346	0.8405789137
3448.7075830077	0.8407883644
3450.6363903807	0.8401432037
3452.5651977538	0.8430703878
3454.4940051268	0.8458039761
3456.4228124999	0.8492642045
3458.3516198729	0.8508294225
3460.2804272460	0.8509557843
3462.2092346190	0.8543633223
3464.1380419921	0.8530505896
3466.0668493651	0.8576293588
3467.9956567381	0.8559568524
3469.9244641112	0.8521354795
3471.8532714842	0.8613235354
3473.7820788573	0.8577473164
3475.7108862303	0.8603419065
3477.6396936034	0.8623338938
3479.5685009764	0.8589457870
3481.4973083495	0.8704709411
3483.4261157225	0.8713369966
3485.3549230956	0.8696442842
3487.2837304686	0.8707328439
3489.2125378417	0.8708677292
3491.1413452147	0.8734455705
3493.0701525878	0.8777634501
3494.9989599608	0.8808136582
3496.9277673338	0.8773914576
3498.8565747069	0.8806468844
3500.7853820799	0.8823342919
3502.7141894530	0.8854246736
3504.6429968260	0.8848989010
3506.5718041991	0.8837280869
3508.5006115721	0.8933672905
3510.4294189452	0.8919712901
3512.3582263182	0.8919227719
3514.2870336913	0.8942775130
3516.2158410643	0.8953019977
3518.1446484374	0.8949618340
3520.0734558104	0.8954331279
3522.0022631835	0.9037053585
3523.9310705565	0.9012670517
3525.8598779295	0.9013013244
3527.7886853026	0.9047674537
3529.7174926756	0.9074527025
3531.6463000487	0.9066929221
3533.5751074217	0.9037688971
3535.5039147948	0.9140455127
3537.4327221678	0.9135787487
3539.3615295409	0.9112880230
3541.2903369139	0.9158579707
3543.2191442870	0.9150186777
3545.1479516600	0.9176785350
3547.0767590331	0.9183471799
3549.0055664061	0.9182245731
3550.9343737792	0.9212023616
3552.8631811522	0.9231184721
3554.7919885252	0.9235714674
3556.7207958983	0.9263605475
3558.6496032713	0.9245924354
3560.5784106444	0.9235607982
3562.5072180174	0.9315947890
3564.4360253905	0.9311918616
3566.3648327635	0.9328755736
3568.2936401366	0.9421162009
3570.2224475096	0.9364324808
3572.1512548827	0.9346117377
3574.0800622557	0.9432977438
3576.0088696288	0.9397825599
3577.9376770018	0.9392150640
3579.8664843749	0.9437975287
3581.7952917479	0.9422498345
3583.7240991210	0.9457366467
3585.6529064940	0.9456546307
3587.5817138670	0.9497146010
3589.5105212401	0.9526521564
3591.4393286131	0.9502695799
3593.3681359862	0.9574744701
3595.2969433592	0.9553589821
3597.2257507323	0.9516221881
3599.1545581053	0.9542294741
3601.0833654784	0.9546540380
3603.0121728514	0.9569262862
3604.9409802245	0.9594646096
3606.8697875975	0.9621421695
3608.7985949706	0.9615975022
3610.7274023436	0.9615694880
3612.6562097167	0.9654458165
3614.5850170897	0.9661709070
3616.5138244627	0.9657384753
3618.4426318358	0.9693569541
3620.3714392088	0.9702869058
3622.3002465819	0.9729405046
3624.2290539549	0.9758416414
3626.1578613280	0.9713618159
3628.0866687010	0.9728282690
3630.0154760741	0.9770074487
3631.9442834471	0.9776352048
3633.8730908202	0.9750468135
3635.8018981932	0.9761905670
3637.7307055663	0.9819397330
3639.6595129393	0.9807772636
3641.5883203124	0.9818928242
3643.5171276854	0.9823410511
3645.4459350584	0.9847171903
3647.3747424315	0.9894373417
3649.3035498045	0.9948027730
3651.2323571776	0.9922093749
3653.1611645506	0.9836390615
3655.0899719237	0.9943211675
3657.0187792967	0.9946638942
3658.9475866698	0.9886689186
3660.8763940428	0.9956657887
3662.8052014159	0.9952968359
3664.7340087889	1.0004614592
3666.6628161620	1.0010797977
3668.5916235350	1.0039548874
3670.5204309081	1.0136656761
3672.4492382811	1.0045161247
3674.3780456541	1.0075328350
3676.3068530272	1.0088860989
3678.2356604002	0.9984697104
3680.1644677733	1.0062314272
3682.0932751463	1.0129476786
3684.0220825194	1.0093107224
3685.9508898924	1.0102857351
3687.8796972655	1.0118199587
3689.8085046385	1.0128723383
3691.7373120116	1.0156750679
3693.6661193846	1.0149371624
3695.5949267577	1.0100520849
3697.5237341307	1.0119477510
3699.4525415038	1.0120893717
3701.3813488768	1.0095121861
3703.3101562499	1.0160073042
3705.2389636229	1.0151053667
3707.1677709959	1.0124382973
3709.0965783690	1.0113502741
3711.0253857420	1.0164058208
3712.9541931151	1.0253695250
3714.8830004881	1.0181657076
3716.8118078612	1.0166323185
3718.7406152342	1.0165081024
3720.6694226073	1.0217034817
3722.5982299803	1.0224505663
3724.5270373534	1.0147714615
3726.4558447264	1.0193681717
3728.3846520995	1.0152276754
3730.3134594725	1.0163716078
3732.2422668456	1.0208275318
3734.1710742186	1.0211499929
3736.0998815916	1.0240890980
3738.0286889647	1.0191500187
3739.9574963377	1.0179421902
3741.8863037108	1.0181652308
3743.8151110838	1.0290191174
3745.7439184569	1.0276515484
3747.6727258299	1.0171471834
3749.6015332030	1.0257335901
3751.5303405760	1.0290955305
3753.4591479491	1.0275874138
3755.3879553221	1.0190837383
3757.3167626952	1.0119466782
3759.2455700682	1.0205591917
3761.1743774413	1.0195739269
3763.1031848143	1.0144865513
3765.0319921873	1.0238788128
3766.9607995604	1.0233162642
3768.8896069334	1.0171260834
3770.8184143065	1.0199816227
3772.7472216795	1.0173841715
3774.6760290526	1.0192075968
3776.6048364256	1.0174130201
3778.5336437987	1.0180723667
3780.4624511717	1.0219826698
3782.3912585448	1.0144126415
3784.3200659178	1.0166301727
3786.2488732909	1.0185549259
3788.1776806639	1.0193977356
3790.1064880370	1.0248845816
3792.0352954100	1.0238306522
3793.9641027830	1.0199000835
3795.8929101561	1.0229971409
3797.8217175291	1.0223485231
3799.7505249022	1.0183175802
3801.6793322752	1.0217832327
3803.6081396483	1.0130103827
3805.5369470213	1.0238426924
3807.4657543944	1.0305578709
3809.3945617674	1.0156452656
3811.3233691405	1.0207157135
3813.2521765135	1.0141783953
3815.1809838866	1.0212063789
3817.1097912596	1.0256373882
3819.0385986327	1.0196911097
3820.9674060057	1.0309529305
3822.8962133787	1.0205701590
3824.8250207518	1.0209681988
3826.7538281248	1.0242156982
3828.6826354979	1.0204637051
3830.6114428709	1.0219944715
3832.5402502440	1.0228101015
3834.4690576170	1.0198960304
3836.3978649901	1.0204155445
3838.3266723631	1.0308746099
3840.2554797362	1.0187453032
3842.1842871092	1.0176581144
3844.1130944823	1.0218995810
3846.0419018553	1.0205670595
3847.9707092284	1.0257726908
3849.8995166014	1.0175154209
3851.8283239745	1.0245344639
3853.7571313475	1.0354827642
3855.6859387205	1.0271433592
3857.6147460936	1.0232403278
3859.5435534666	1.0215561390
3861.4723608397	1.0202817917
3863.4011682127	1.0178496838
3865.3299755858	1.0213896036
3867.2587829588	1.0176556110
3869.1875903319	1.0218157768
3871.1163977049	1.0257146358
3873.0452050780	1.0211733580
3874.9740124510	1.0232399702
3876.9028198241	1.0177178383
3878.8316271971	1.0203354359
3880.7604345702	1.0211764574
3882.6892419432	1.0173965693
3884.6180493162	1.0181510448
3886.5468566893	1.0204921961
3888.4756640623	1.0191702843
3890.4044714354	1.0154231787
3892.3332788084	1.0232015848
3894.2620861815	1.0196570158
3896.1908935545	1.0160629749
3898.1197009276	1.0198781490
3900.0485083006	1.0186159611
3901.9773156737	1.0221023560
3903.9061230467	1.0271726847
3905.8349304198	1.0248532295
3907.7637377928	1.0162179470
3909.6925451659	1.0162143707
3911.6213525389	1.0155876875
3913.5501599119	1.0195279121
3915.4789672850	1.0201132298
3917.4077746580	1.0138154030
3919.3365820311	1.0254962444
3921.2653894041	1.0217766762
3923.1941967772	1.0134993792
3925.1230041502	1.0190653801
3927.0518115233	1.0227179527
3928.9806188963	1.0210927725
3930.9094262694	1.0197628736
3932.8382336424	1.0236834288
3934.7670410155	1.0165081024
3936.6958483885	1.0142685175
3938.6246557616	1.0130239725
3940.5534631346	1.0101685524
3942.4822705076	1.0128251314
3944.4110778807	1.0167992115
3946.3398852537	1.0204299688
3948.2686926268	1.0122457743
3950.1974999998	1.0201640129
3952.1263073729	1.0228327513
3954.0551147459	1.0180534124
3955.9839221190	1.0235916376
3957.9127294920	1.0157519579
3959.8415368651	1.0221091509
3961.7703442381	1.0219651461
3963.6991516112	1.0134387016
3965.6279589842	1.0193622112
3967.5567663573	1.0177084208
3969.4855737303	1.0143588781
3971.4143811034	1.0158973932
3973.3431884764	1.0190038681
3975.2719958494	1.0170744658
3977.2008032225	1.0201705694
3979.1296105955	1.0142468214
3981.0584179686	1.0097546577
3982.9872253416	1.0245763063
3984.9160327147	1.0197824240
3986.8448400877	1.0156301260
3988.7736474608	1.0196191072
3990.7024548338	1.0170443058
3992.6312622069	1.0182071924
3994.5600695799	1.0140453577
3996.4888769530	1.0127484798
3998.4176843260	1.0159856081
4000.3464916991	1.0163232088
4002.2752990721	1.0155177116
4004.2041064451	1.0193536282
4006.1329138182	1.0199544430
4008.0617211912	1.0132912397
4009.9905285643	1.0170296431
4011.9193359373	1.0197088718
4013.8481433104	1.0155375004
4015.7769506834	1.0180975199
4017.7057580565	1.0152204037
4019.6345654295	1.0112904310
4021.5633728026	1.0164791346
4023.4921801756	1.0149471760
4025.4209875487	1.0151598454
4027.3497949217	1.0163097382
4029.2786022948	1.0082437992
4031.2074096678	1.0105447769
4033.1362170408	1.0162289143
4035.0650244139	1.0156688690
4036.9938317869	1.0199828148
4038.9226391600	1.0176568031
4040.8514465330	1.0099455118
4042.7802539061	1.0170719624
4044.7090612791	1.0202476978
4046.6378686522	1.0130535364
4048.5666760252	1.0117064714
4050.4954833983	1.0147444010
4052.4242907713	1.0168197155
4054.3530981444	1.0073813200
4056.2819055174	1.0124824047
4058.2107128905	1.0200786591
4060.1395202635	1.0108480453
4062.0683276365	1.0154163837
4063.9971350096	1.0169943571
4065.9259423826	1.0170704126
4067.8547497557	1.0180625916
4069.7835571287	1.0171046257
4071.7123645018	1.0164771080
4073.6411718748	1.0137637854
4075.5699792479	1.0211926699
4077.4987866209	1.0165008307
4079.4275939940	1.0174974203
4081.3564013670	1.0214382410
4083.2852087401	1.0131864548
4085.2140161131	1.0152806044
4087.1428234862	1.0131340027
4089.0716308592	1.0103511810
4091.0004382323	1.0100011826
4092.9292456053	1.0151613951
4094.8580529783	1.0165361166
4096.7868603514	1.0111974478
4098.7156677244	1.0150408745
4100.6444750975	1.0163179636
4102.5732824705	1.0193147659
4104.5020898436	1.0138444901
4106.4308972166	1.0088359118
4108.3597045897	1.0190877914
4110.2885119627	1.0239841938
4112.2173193358	1.0181858540
4114.1461267088	1.0096073151
4116.0749340819	1.0106447935
4118.0037414549	1.0127091408
4119.9325488280	1.0075602531
4121.8613562010	1.0062167645
4123.7901635740	1.0138968229
4125.7189709471	1.0175315142
4127.6477783201	1.0135744810
4129.5765856932	1.0119547844
4131.5053930662	1.0126401186
4133.4342004393	1.0151884556
4135.3630078123	1.0121046305
4137.2918151854	1.0102581978
4139.2206225584	1.0140031576
4141.1494299315	1.0153603554
4143.0782373045	1.0118274689
4145.0070446776	1.0107437372
4146.9358520506	1.0114643574
4148.8646594237	1.0076683760
4150.7934667967	1.0128635168
4152.7222741697	1.0167092085
4154.6510815428	1.0152491331
4156.5798889158	1.0097481012
4158.5086962889	1.0124992132
4160.4375036619	1.0216777325
4162.3663110350	1.0109276772
4164.2951184080	1.0149910450
4166.2239257811	1.0186101198
4168.1527331541	1.0116201639
4170.0815405272	1.0191640854
4172.0103479002	1.0173525810
4173.9391552733	1.0133391619
4175.8679626463	1.0201677084
4177.7967700194	1.0223721266
4179.7255773924	1.0101734400
4181.6543847654	1.0110663176
4183.5831921385	1.0117368698
4185.5119995115	1.0101624727
4187.4408068846	1.0170904398
4189.3696142576	1.0054363012
4191.2984216307	1.0171661377
4193.2272290037	1.0216828585
4195.1560363768	1.0065606833
4197.0848437498	1.0114237070
4199.0136511229	1.0059834719
4200.9424584959	1.0121119022
4202.8712658690	1.0176583529
4204.8000732420	1.0139094591
4206.7288806151	1.0152249336
4208.6576879881	1.0132483244
4210.5864953611	1.0169090033
4212.5153027342	1.0100879669
4214.4441101072	1.0097305775
4216.3729174803	1.0147670507
4218.3017248533	1.0152456760
4220.2305322264	1.0191982985
4222.1593395994	1.0108205080
4224.0881469725	1.0094133615
4226.0169543455	1.0131217241
4227.9457617186	1.0192632675
4229.8745690916	1.0235903263
4231.8033764647	1.0099092722
4233.7321838377	1.0205583572
4235.6609912108	1.0245157480
4237.5897985838	1.0090155602
4239.5186059569	1.0168019533
4241.4474133299	1.0110359192
4243.3762207029	1.0116747618
4245.3050280760	1.0143229961
4247.2338354490	1.0086016655
4249.1626428221	1.0193051100
4251.0914501951	1.0128691196
4253.0202575682	1.0148835182
4254.9490649412	1.0154529810
4256.8778723143	1.0099372864
4258.8066796873	1.0154244900
4260.7354870604	1.0123122931
4262.6642944334	1.0186340809
4264.5931018065	1.0135829449
4266.5219091795	1.0136722326
4268.4507165526	1.0152550936
4270.3795239256	1.0053030252
4272.3083312986	1.0140559673
4274.2371386717	1.0133230686
4276.1659460447	1.0069942474
4278.0947534178	1.0074408054
4280.0235607908	1.0108462572
4281.9523681639	1.0100504160
4283.8811755369	1.0140464306
4285.8099829100	1.0164004564
4287.7387902830	1.0031200647
4289.6675976561	1.0082162619
4291.5964050291	1.0106853247
4293.5252124022	1.0137617588
4295.4540197752	1.0206321478
4297.3828271483	1.0144009590
4299.3116345213	1.0135155916
4301.2404418943	1.0061119795
4303.1692492674	1.0080018044
4305.0980566404	1.0123236179
4307.0268640135	1.0099070072
4308.9556713865	1.0146093369
4310.8844787596	1.0123226643
4312.8132861326	1.0083509684
4314.7420935057	1.0083969831
4316.6709008787	1.0107449293
4318.5997082518	1.0133972168
4320.5285156248	1.0145770311
4322.4573229979	1.0095924139
4324.3861303709	1.0080653429
4326.3149377440	1.0155216455
4328.2437451170	1.0150924921
4330.1725524900	1.0087740421
4332.1013598631	1.0073701143
4334.0301672361	1.0138473511
4335.9589746092	1.0147683620
4337.8877819822	1.0077283382
4339.8165893553	1.0079087019
4341.7453967283	1.0194178820
4343.6742041014	1.0200167894
4345.6030114744	1.0076119900
4347.5318188475	1.0092554092
4349.4606262205	1.0128751993
4351.3894335936	1.0173641443
4353.3182409666	1.0177316666
4355.2470483397	1.0105172396
4357.1758557127	1.0113797188
4359.1046630858	1.0027649403
4361.0334704588	1.0018242598
4362.9622778318	1.0095791817
4364.8910852049	1.0114388466
4366.8198925779	1.0178285837
4368.7486999510	1.0135657787
4370.6775073240	1.0153741837
4372.6063146971	1.0192061663
4374.5351220701	1.0099506378
4376.4639294432	1.0092211962
4378.3927368162	1.0077992678
4380.3215441893	1.0118360519
4382.2503515623	1.0179100037
4384.1791589354	1.0130265951
4386.1079663084	1.0104538202
4388.0367736815	1.0100642443
4389.9655810545	1.0107629299
4391.8943884275	1.0014299154
4393.8231958006	1.0056245327
4395.7520031736	1.0150440931
4397.6808105467	1.0061066151
4399.6096179197	1.0116920471
4401.5384252928	1.0118848085
4403.4672326658	1.0077323914
4405.3960400389	1.0082242489
4407.3248474119	1.0156899691
4409.2536547850	1.0227242708
4411.1824621580	1.0085675716
4413.1112695311	1.0093132257
4415.0400769041	1.0068418980
4416.9688842772	1.0087231398
4418.8976916502	1.0108762980
4420.8264990232	1.0083590746
4422.7553063963	1.0284082890
4424.6841137693	1.0206145048
4426.6129211424	1.0142129660
4428.5417285154	1.0139912367
4430.4705358885	1.0126684904
4432.3993432615	1.0134977102
4434.3281506346	1.0001270771
4436.2569580076	1.0103058815
4438.1857653807	1.0080125332
4440.1145727537	1.0113908052
4442.0433801268	1.0165758133
4443.9721874998	1.0030652285
4445.9009948729	1.0099942684
4447.8298022459	1.0107697248
4449.7586096189	1.0170744658
4451.6874169920	1.0141257048
4453.6162243650	1.0119774342
4455.5450317381	1.0168023109
4457.4738391111	1.0092782974
4459.4026464842	1.0175602436
4461.3314538572	1.0070389509
4463.2602612303	1.0052629709
4465.1890686033	1.0132757425
4467.1178759764	1.0013803244
4469.0466833494	1.0107928514
4470.9754907225	1.0145591497
4472.9042980955	1.0146869421
4474.8331054686	1.0228588581
4476.7619128416	1.0104651451
4478.6907202147	1.0077804327
4480.6195275877	1.0098581314
4482.5483349607	1.0020328760
4484.4771423338	1.0118601322
4486.4059497068	1.0087789297
4488.3347570799	0.9991018772
4490.2635644529	1.0057463646
4492.1923718260	1.0093924999
4494.1211791990	1.0135730505
4496.0499865721	1.0024832487
4497.9787939451	1.0049457550
4499.9076013182	1.0113095045
4501.8364086912	1.0026122332
4503.7652160643	1.0149531364
4505.6940234373	1.0074201822
4507.6228308104	1.0045478344
4509.5516381834	1.0132505894
4511.4804455564	1.0007849932
4513.4092529295	1.0080231428
4515.3380603025	1.0087825060
4517.2668676756	1.0035916567
4519.1956750486	1.0120315552
4521.1244824217	1.0121301413
4523.0532897947	1.0163233280
4524.9820971678	1.0151754618
4526.9109045408	1.0098187923
4528.8397119139	1.0148277283
4530.7685192869	1.0114756823
4532.6973266600	1.0044729710
4534.6261340330	1.0016522408
4536.5549414061	1.0013334751
4538.4837487791	1.0026886463
4540.4125561521	0.9976693392
4542.3413635252	1.0071133375
4544.2701708982	1.0163205862
4546.1989782713	1.0092808008
4548.1277856443	1.0113492012
4550.0565930174	1.0057823658
4551.9854003904	1.0062819719
4553.9142077635	1.0137798786
4555.8430151365	1.0074123144
4557.7718225096	1.0116674900
4559.7006298826	1.0112366676
4561.6294372557	1.0069587231
4563.5582446287	1.0072133541
4565.4870520018	1.0032602549
4567.4158593748	1.0071376562
4569.3446667478	1.0095894337
4571.2734741209	1.0073707104
4573.2022814939	1.0046247244
4575.1310888670	1.0060448647
4577.0598962400	1.0007277727
4578.9887036131	1.0012297630
4580.9175109861	1.0186208487
4582.8463183592	1.0146180391
4584.7751257322	1.0066891909
4586.7039331053	1.0003501177
4588.6327404783	1.0013774633
4590.5615478514	1.0061861277
4592.4903552244	0.9958605766
4594.4191625975	1.0103521347
4596.3479699705	1.0072298050
4598.2767773435	1.0006067753
4600.2055847166	1.0174657106
4602.1343920896	1.0088068247
4604.0631994627	1.0139132738
4605.9920068357	1.0145350695
4607.9208142088	1.0077885389
4609.8496215818	1.0155040026
4611.7784289549	1.0060085058
4613.7072363279	1.0053153038
4615.6360437010	1.0083444118
4617.5648510740	1.0016260147
4619.4936584471	1.0064122677
4621.4224658201	1.0135574341
4623.3512731932	1.0028315783
4625.2800805662	0.9928452373
4627.2088879393	1.0037050247
4629.1376953123	1.0087474585
4631.0665026853	0.9971128702
4632.9953100584	0.9957066774
4634.9241174314	1.0046218634
4636.8529248045	1.0099809170
4638.7817321775	1.0149303675
4640.7105395506	1.0051749945
4642.6393469236	1.0022604465
4644.5681542967	1.0178492069
4646.4969616697	1.0083117485
4648.4257690428	0.9918950200
4650.3545764158	1.0012513399
4652.2833837889	1.0065035820
4654.2121911619	0.9947783947
4656.1409985350	1.0056757927
4658.0698059080	1.0160794258
4659.9986132810	1.0116567612
4661.9274206541	1.0092676878
4663.8562280271	1.0049898624
4665.7850354002	1.0200389624
4667.7138427732	1.0125788450
4669.6426501463	1.0042102337
4671.5714575193	1.0148715973
4673.5002648924	1.0060821772
4675.4290722654	1.0031801462
4677.3578796385	1.0035824776
4679.2866870115	1.0121409893
4681.2154943846	1.0007411242
4683.1443017576	0.9913758636
4685.0731091307	1.0048801899
4687.0019165037	1.0039662123
4688.9307238767	1.0048632622
4690.8595312498	0.9991204143
4692.7883386228	1.0167417526
4694.7171459959	1.0186126232
4696.6459533689	1.0012198687
4698.5747607420	1.0143671036
4700.5035681150	1.0013386011
4702.4323754881	0.9908387065
4704.3611828611	0.9972846508
4706.2899902342	1.0047913790
4708.2187976072	1.0063642263
4710.1476049803	1.0045073032
4712.0764123533	1.0090321302
4714.0052197264	0.9975388050
4715.9340270994	1.0050262213
4717.8628344724	1.0135364532
4719.7916418455	1.0074851513
4721.7204492185	1.0104013681
4723.6492565916	1.0102498531
4725.5780639646	1.0095812082
4727.5068713377	1.0050799847
4729.4356787107	0.9990487695
4731.3644860838	1.0006946325
4733.2932934568	1.0054429770
4735.2221008299	0.9971887469
4737.1509082029	0.9966297150
4739.0797155760	1.0075950623
4741.0085229490	1.0068154335
4742.9373303221	1.0080496073
4744.8661376951	1.0066349506
4746.7949450682	0.9991878867
4748.7237524412	0.9994671941
4750.6525598142	1.0045558214
4752.5813671873	1.0009989738
4754.5101745603	1.0050998926
4756.4389819334	1.0135132074
4758.3677893064	1.0020562410
4760.2965966795	0.9994506836
4762.2254040525	1.0133388042
4764.1542114256	1.0160746574
4766.0830187986	1.0081237555
4768.0118261717	1.0075725317
4769.9406335447	1.0093053579
4771.8694409178	1.0113990307
4773.7982482908	1.0064215660
4775.7270556639	1.0041147470
4777.6558630369	1.0097428560
4779.5846704099	0.9992884994
4781.5134777830	1.0072582960
4783.4422851560	1.0116828680
4785.3710925291	1.0011003017
4787.2998999021	1.0127263069
4789.2287072752	1.0135067701
4791.1575146482	1.0042499304
4793.0863220213	1.0028631687
4795.0151293943	1.0054680109
4796.9439367674	1.0052616596
4798.8727441404	1.0035035610
4800.8015515135	1.0060818195
4802.7303588865	1.0102156401
4804.6591662596	0.9994977713
4806.5879736326	1.0061601400
4808.5167810056	1.0173373222
4810.4455883787	0.9908577800
4812.3743957517	1.0043869019
4814.3032031248	1.0012855530
4816.2320104978	0.9888857603
4818.1608178709	1.0072324276
4820.0896252439	0.9955925345
4822.0184326170	1.0205000639
4823.9472399900	1.0115439892
4825.8760473631	0.9959439039
4827.8048547361	1.0195248127
4829.7336621092	1.0076858997
4831.6624694822	1.0059974194
4833.5912768553	0.9918989539
4835.5200842283	0.9942610264
4837.4488916013	1.0000475645
4839.3776989744	0.9934133291
4841.3065063474	1.0085085630
4843.2353137205	1.0123865604
4845.1641210935	1.0132533312
4847.0929284666	0.9927212000
4849.0217358396	0.9886636734
4850.9505432127	1.0008199215
4852.8793505857	1.0018737316
4854.8081579588	1.0012167692
4856.7369653318	0.9890259504
4858.6657727049	0.9985066056
4860.5945800779	1.0026267767
4862.5233874510	0.9927310348
4864.4521948240	0.9990148544
4866.3810021971	1.0022536516
4868.3098095701	0.9982615709
4870.2386169431	1.0121396780
4872.1674243162	1.0140786171
4874.0962316892	1.0023373365
4876.0250390623	1.0067148209
4877.9538464353	0.9984540939
4879.8826538084	1.0097792149
4881.8114611814	1.0171214342
4883.7402685545	1.0084507465
4885.6690759275	1.0107419491
4887.5978833006	0.9948619008
4889.5266906736	1.0021675825
4891.4554980467	1.0165436268
4893.3843054197	1.0046693087
4895.3131127928	0.9979422092
4897.2419201658	1.0074079037
4899.1707275388	1.0113970041
4901.0995349119	1.0070902109
4903.0283422849	0.9971733689
4904.9571496580	0.9879228473
4906.8859570310	1.0058537722
4908.8147644041	1.0128250122
4910.7435717771	1.0141472816
4912.6723791502	1.0098145008
4914.6011865232	1.0007412434
4916.5299938963	1.0070812702
4918.4588012693	1.0032645464
4920.3876086424	1.0034701824
4922.3164160154	0.9968364835
4924.2452233885	0.9975838065
4926.1740307615	0.9935325980
4928.1028381345	0.9943616986
4930.0316455076	1.0115811825
4931.9604528806	0.9999828935
4933.8892602537	1.0056159496
4935.8180676267	1.0028893948
4937.7468749998	0.9965868592
4939.6756823728	1.0083746910
4941.6044897459	1.0053832531
4943.5332971189	1.0076745749
4945.4621044920	1.0040521622
4947.3909118650	1.0021203756
4949.3197192381	1.0000488758
4951.2485266111	1.0019570589
4953.1773339842	1.0006384850
4955.1061413572	0.9966291785
4957.0349487302	1.0003614426
4958.9637561033	0.9903668165
4960.8925634763	0.9907937050
4962.8213708494	0.9876178503
4964.7501782224	0.9931606650
4966.6789855955	1.0074162483
4968.6077929685	0.9931229353
4970.5366003416	0.9911856055
4972.4654077146	1.0083564520
4974.3942150877	1.0127943754
4976.3230224607	1.0001171827
4978.2518298338	0.9925078154
4980.1806372068	1.0048242807
4982.1094445799	1.0081578493
4984.0382519529	0.9846656322
4985.9670593259	0.9848377705
4987.8958666990	1.0048073530
4989.8246740720	1.0127500296
4991.7534814451	1.0188151598
4993.6822888181	1.0078139305
4995.6110961912	0.9999821782
4997.5399035642	1.0042412281
4999.4687109373	1.0110480785
5001.3975183103	1.0019564629
5003.3263256834	0.9943895340
5005.2551330564	1.0109992027
5007.1839404295	1.0065287352
5009.1127478025	0.9976515174
5011.0415551756	0.9959104061
5012.9703625486	1.0007188320
5014.8991699217	1.0001106262
5016.8279772947	0.9987261891
5018.7567846677	0.9993138909
5020.6855920408	0.9957759976
5022.6143994138	1.0110722780
5024.5432067869	1.0060837269
5026.4720141599	1.0213013887
5028.4008215330	1.0073163509
5030.3296289060	0.9811313748
5032.2584362791	1.0133205652
5034.1872436521	1.0004079342
5036.1160510252	1.0063868761
5038.0448583982	0.9936542511
5039.9736657713	0.9776742458
5041.9024731443	1.0148541927
5043.8312805174	0.9969996214
5045.7600878904	0.9976912737
5047.6888952634	1.0095949173
5049.6177026365	1.0022906065
5051.5465100095	0.9920835495
5053.4753173826	0.9862638712
5055.4041247556	1.0036969185
5057.3329321287	1.0080919266
5059.2617395017	1.0016629696
5061.1905468748	0.9935572147
5063.1193542478	1.0230569839
5065.0481616209	1.0197141171
5066.9769689939	0.9954754710
5068.9057763670	1.0114643574
5070.8345837400	0.9973107576
5072.7633911131	0.9992216229
5074.6921984861	1.0086001158
5076.6210058591	1.0032486916
5078.5498132322	1.0070956945
5080.4786206052	1.0175455809
5082.4074279783	0.9990655184
5084.3362353513	0.9732073545
5086.2650427244	0.9984813929
5088.1938500974	0.9907110929
5090.1226574705	0.9855310321
5092.0514648435	1.0025179386
5093.9802722166	0.9975081682
5095.9090795896	1.0067085028
5097.8378869627	1.0164014101
5099.7666943357	1.0168894529
5101.6955017088	0.9988729954
5103.6243090818	0.9989429116
5105.5531164548	0.9799162149
5107.4819238279	0.9813230634
5109.4107312009	1.0244433880
5111.3395385740	0.9937491417
5113.2683459470	0.9844554067
5115.1971533201	0.9931082726
5117.1259606931	0.9944728017
5119.0547680662	1.0013785362
5120.9835754392	0.9837316871
5122.9123828123	1.0115664005
5124.8411901853	1.0139899254
5126.7699975584	0.9972363114
5128.6988049314	1.0044775009
5130.6276123045	1.0003910065
5132.5564196775	1.0076209307
5134.4852270506	1.0002796650
5136.4140344236	0.9963642955
5138.3428417966	0.9891623855
5140.2716491697	0.9821093082
5142.2004565427	0.9970990419
5144.1292639158	0.9983962178
5146.0580712888	1.0006824732
5147.9868786619	1.0019605160
5149.9156860349	1.0001699924
5151.8444934080	0.9907484055
5153.7733007810	0.9864789248
5155.7021081541	0.9929633737
5157.6309155271	0.9821069837
5159.5597229002	1.0100386143
5161.4885302732	1.0298275948
5163.4173376463	1.0034482479
5165.3461450193	1.0078288317
5167.2749523923	0.9978430271
5169.2037597654	0.9956436157
5171.1325671384	1.0105258226
5173.0613745115	0.9980901480
5174.9901818845	1.0032454729
5176.9189892576	1.0031847954
5178.8477966306	1.0119378567
5180.7766040037	1.0192344189
5182.7054113767	1.0109736919
5184.6342187498	1.0177372694
5186.5630261228	1.0027729273
5188.4918334959	1.0131924152
5190.4206408689	1.0216685534
5192.3494482420	1.0065596104
5194.2782556150	1.0082657337
5196.2070629880	0.9978492260
5198.1358703611	1.0005580187
5200.0646777341	1.0078279972
5201.9934851072	1.0079457760
5203.9222924802	0.9952305555
5205.8510998533	1.0059288740
5207.7799072263	1.0184944868
5209.7087145994	0.9900447130
5211.6375219724	1.0062028170
5213.5663293455	1.0089825392
5215.4951367185	1.0077605247
5217.4239440916	1.0063199997
5219.3527514646	0.9916379452
5221.2815588377	1.0014960766
5223.2103662107	0.9734314084
5225.1391735837	0.9983131886
5227.0679809568	0.9961377978
5228.9967883298	0.9707841277
5230.9255957029	1.0046037436
5232.8544030759	0.9828838706
5234.7832104490	1.0117287636
5236.7120178220	1.0136765242
5238.6408251951	0.9854933023
5240.5696325681	1.0026835203
5242.4984399412	0.9899781942
5244.4272473142	1.0305523872
5246.3560546873	1.0069396496
5248.2848620603	0.9780903459
5250.2136694334	1.0214731693
5252.1424768064	0.9991813302
5254.0712841795	0.9805754423
5256.0000915525	0.9866867661
5257.9288989255	0.9945396781
5259.8577062986	0.9858499169
5261.7865136716	0.9972374439
5263.7153210447	1.0188614130
5265.6441284177	0.9904226661
5267.5729357908	0.9940878749
5269.5017431638	1.0077981949
5271.4305505369	0.9942917824
5273.3593579099	0.9873320460
5275.2881652830	0.9909435511
5277.2169726560	0.9922309518
5279.1457800291	1.0117261410
5281.0745874021	1.0194684267
5283.0033947752	0.9842915535
5284.9322021482	0.9926375747
5286.8610095212	0.9997010827
5288.7898168943	1.0039223433
5290.7186242673	1.0172472000
5292.6474316404	0.9935461283
5294.5762390134	1.0062814951
5296.5050463865	1.0046789646
5298.4338537595	0.9864061475
5300.3626611326	0.9900549054
5302.2914685056	0.9854341149
5304.2202758787	1.0013986826
5306.1490832517	1.0058207512
5308.0778906248	0.9884219170
5310.0066979978	0.9883801341
5311.9355053709	0.9903885126
5313.8643127439	0.9899759293
5315.7931201169	1.0013271570
5317.7219274900	1.0041981936
5319.6507348630	1.0074716806
5321.5795422361	1.0039210320
5323.5083496091	0.9780537486
5325.4371569822	0.9785957932
5327.3659643552	0.9918496013
5329.2947717283	0.9948044419
5331.2235791013	1.0018913746
5333.1523864744	1.0155956745
5335.0811938474	0.9957789779
5337.0100012205	0.9705468416
5338.9388085935	0.9933573008
5340.8676159666	0.9992358685
5342.7964233396	1.0075900555
5344.7252307126	0.9994294047
5346.6540380857	0.9887975454
5348.5828454587	1.0227408409
5350.5116528318	1.0026551485
5352.4404602048	0.9839974046
5354.3692675779	0.9908047915
5356.2980749509	1.0033684969
5358.2268823240	1.0073356628
5360.1556896970	0.9854026437
5362.0844970701	1.0148645639
5364.0133044431	1.0352200270
5365.9421118162	1.0183024406
5367.8709191892	0.9963204265
5369.7997265623	0.9930006862
5371.7285339353	1.0088150501
5373.6573413083	1.0002644062
5375.5861486814	1.0113241673
5377.5149560544	0.9942969084
5379.4437634275	0.9677547812
5381.3725708005	0.9813993573
5383.3013781736	0.9905037284
5385.2301855466	1.0026596785
5387.1589929197	1.0055692196
5389.0878002927	1.0025784969
5391.0166076658	0.9989436269
5392.9454150388	0.9981305599
5394.8742224119	0.9819322228
5396.8030297849	0.9792324305
5398.7318371580	1.0155687332
5400.6606445310	1.0081334114
5402.5894519041	0.9849454165
5404.5182592771	0.9867723584
5406.4470666501	0.9953499436
5408.3758740232	0.9981244802
5410.3046813962	0.9985767007
5412.2334887693	0.9950502515
5414.1622961423	0.9717763066
5416.0911035154	0.9824241400
5418.0199108884	1.0005100965
5419.9487182615	0.9808540344
5421.8775256345	0.9461267591
5423.8063330076	0.9616283774
5425.7351403806	1.0062415600
5427.6639477537	0.9793546796
5429.5927551267	0.9805722833
5431.5215624998	0.9991523027
5433.4503698728	0.9799686074
5435.3791772458	0.9774855375
5437.3079846189	0.9739626646
5439.2367919919	0.9906945229
5441.1655993650	1.0010117292
5443.0944067380	0.9966008067
5445.0232141111	0.9819655418
5446.9520214841	0.9849838018
5448.8808288572	1.0012761354
5450.8096362302	0.9653147459
5452.7384436033	0.9973334074
5454.6672509763	1.0258737803
5456.5960583494	0.9895412326
5458.5248657224	0.9980193973
5460.4536730955	0.9969202280
5462.3824804685	0.9989423752
5464.3112878415	0.9840469360
5466.2400952146	0.9791463017
5468.1689025876	1.0045964718
5470.0977099607	1.0106809139
5472.0265173337	1.0265947580
5473.9553247068	0.9867771268
5475.8841320798	0.9634918571
5477.8129394529	0.9794580936
5479.7417468259	0.9785326719
5481.6705541990	1.0146337748
5483.5993615720	0.9991134405
5485.5281689451	0.9766178131
5487.4569763181	0.9895712137
5489.3857836912	1.0026698112
5491.3145910642	1.0096818209
5493.2433984372	0.9626386762
5495.1722058103	0.9725624323
5497.1010131833	0.9963371754
5499.0298205564	0.9835925102
5500.9586279294	0.9994251132
5502.8874353025	0.9572890401
5504.8162426755	0.9689349532
5506.7450500486	1.0161675215
5508.6738574216	0.9691833854
5510.6026647947	0.9927365184
5512.5314721677	1.0180050135
5514.4602795408	0.9830507040
5516.3890869138	1.0008866787
5518.3178942869	0.9958491921
5520.2467016599	0.9934911728
5522.1755090330	1.0072643757
5524.1043164060	0.9960160255
5526.0331237790	1.0074051619
5527.9619311521	1.0088781118
5529.8907385251	0.9985312223
5531.8195458982	0.9821852446
5533.7483532712	0.9657630324
5535.6771606443	0.9951317906
5537.6059680173	1.0103806257
5539.5347753904	0.9695122838
5541.4635827634	0.9701687098
5543.3923901365	1.0052343607
5545.3211975095	0.9698615074
5547.2500048826	0.9755997658
5549.1788122556	1.0136384964
5551.1076196287	0.9522511363
5553.0364270017	0.9593169093
5554.9652343747	1.0161837339
5556.8940417478	0.9818455577
5558.8228491208	0.9773934484
5560.7516564939	1.0000153780
5562.6804638669	1.0013964176
5564.6092712400	1.0134925842
5566.5380786130	1.0037062168
5568.4668859861	0.9939757586
5570.3956933591	0.9876116514
5572.3245007322	0.9826425314
5574.2533081052	1.0138058662
5576.1821154783	0.9981335402
5578.1109228513	0.9684374928
5580.0397302244	1.0060521364
5581.9685375974	0.9921903610
5583.8973449704	0.9682987332
5585.8261523435	1.0090256929
5587.7549597165	1.0077047348
5589.6837670896	0.9959297180
5591.6125744626	1.0011227131
5593.5413818357	1.0037088394
5595.4701892087	1.0146169662
5597.3989965818	0.9960346222
5599.3278039548	0.9899141192
5601.2566113279	0.9936257005
5603.1854187009	0.9828977585
5605.1142260740	0.9877722859
5607.0430334470	0.9774920940
5608.9718408201	0.9873229265
5610.9006481931	1.0036742687
5612.8294555661	0.9958165884
5614.7582629392	1.0156722069
5616.6870703122	0.9966405034
5618.6158776853	0.9876366854
5620.5446850583	1.0311431885
5622.4734924314	1.0129909515
5624.4022998044	0.9800962210
5626.3311071775	0.9824686050
5628.2599145505	0.9928956032
5630.1887219236	0.9958186150
5632.1175292966	0.9832762480
5634.0463366697	0.9796408415
5635.9751440427	0.9844518304
5637.9039514158	0.9743354321
5639.8327587888	0.9676627517
5641.7615661619	0.9820994735
5643.6903735349	0.9787549973
5645.6191809079	0.9761323929
5647.5479882810	1.0036671162
5649.4767956540	1.0123062134
5651.4056030271	0.9831946492
5653.3344104001	1.0053681135
5655.2632177732	1.0366060734
5657.1920251462	0.9689311385
5659.1208325193	0.9969569445
5661.0496398923	1.0307372808
5662.9784472654	0.9617335200
5664.9072546384	0.9891542792
5666.8360620115	0.9823077321
5668.7648693845	0.9798505902
5670.6936767576	1.0082662106
5672.6224841306	0.9903408289
5674.5512915036	1.0147804022
5676.4800988767	1.0039017200
5678.4089062497	0.9658185244
5680.3377136228	0.9392849207
5682.2665209958	0.9679808617
5684.1953283689	0.9850949645
5686.1241357419	0.9882723093
5688.0529431150	1.0232427120
5689.9817504880	0.9623779058
5691.9105578611	0.9563097954
5693.8393652341	0.9650242329
5695.7681726072	0.9758765101
5697.6969799802	0.9986520410
5699.6257873533	0.9762036204
5701.5545947263	1.0322237015
5703.4834020993	0.9893310666
5705.4122094724	0.9482845664
5707.3410168454	0.9605020881
5709.2698242185	0.9536005855
5711.1986315915	0.9854787588
5713.1274389646	0.9646936655
5715.0562463376	1.0091592073
5716.9850537107	1.0178185701
5718.9138610837	0.9751685858
5720.8426684568	0.9731070995
5722.7714758298	0.9756149054
5724.7002832029	1.0057332516
5726.6290905759	0.9676495194
5728.5578979490	0.9873036146
5730.4867053220	1.0036193132
5732.4155126950	0.9548409581
5734.3443200681	0.9841325879
5736.2731274411	1.0217169523
5738.2019348142	1.0199043751
5740.1307421872	0.9710880518
5742.0595495603	0.9929243922
5743.9883569333	1.0243682861
5745.9171643064	0.9593625665
5747.8459716794	0.9775194526
5749.7747790525	0.9873711467
5751.7035864255	0.9492392540
5753.6323937986	0.9837037325
5755.5612011716	0.9594079852
5757.4900085447	0.9561832547
5759.4188159177	0.9902440906
5761.3476232907	0.9531497955
5763.2764306638	0.9901174307
5765.2052380368	0.9460564256
5767.1340454099	0.9313400984
5769.0628527829	1.0214358568
5770.9916601560	0.9618567228
5772.9204675290	0.9679202437
5774.8492749021	0.9804905653
5776.7780822751	0.9695854187
5778.7068896482	1.0182151794
5780.6356970212	0.9877147675
5782.5645043943	0.9720162153
5784.4933117673	0.9853319526
5786.4221191404	1.0045088530
5788.3509265134	0.9870170951
5790.2797338865	0.9723603129
5792.2085412595	0.9771203399
5794.1373486325	0.9782186151
5796.0661560056	0.9902361631
5797.9949633786	0.9745426178
5799.9237707517	0.9791927934
5801.8525781247	0.9752694964
5803.7813854978	0.9975451827
5805.7101928708	0.9638751745
5807.6390002439	0.9465981722
5809.5678076169	1.0212126970
5811.4966149900	0.9798610806
5813.4254223630	0.9736897349
5815.3542297361	0.9943606853
5817.2830371091	0.9820309281
5819.2118444822	1.0162445307
5821.1406518552	1.0165361166
5823.0694592282	0.9518501759
5824.9982666013	0.9444412589
5826.9270739743	1.0023049116
5828.8558813474	0.9720000625
5830.7846887204	0.9662889242
5832.7134960935	0.9376868606
5834.6423034665	0.9536336064
5836.5711108396	0.9963648319
5838.4999182126	0.9313839674
5840.4287255857	1.0187351704
5842.3575329587	1.0113402605
5844.2863403318	0.9459132552
5846.2151477048	0.9718856215
5848.1439550779	0.9079313874
5850.0727624509	0.9465622306
5852.0015698239	0.9827467799
5853.9303771970	0.9598867297
5855.8591845700	0.9756559134
5857.7879919431	0.9902167916
5859.7167993161	0.9849583507
5861.6456066892	0.9832992554
5863.5744140622	0.9963351488
5865.5032214353	0.9632295966
5867.4320288083	0.9655248523
5869.3608361814	0.9711782932
5871.2896435544	0.9663478732
5873.2184509275	0.9646110535
5875.1472583005	0.9558693767
5877.0760656736	0.9470008612
5879.0048730466	0.9411433935
5880.9336804196	1.0188539028
5882.8624877927	1.0143723488
5884.7912951657	0.9691277742
5886.7201025388	1.0065590143
5888.6489099118	0.9786698818
5890.5777172849	0.9470829964
5892.5065246579	0.9846799374
5894.4353320310	0.9948255420
5896.3641394040	0.9648375511
5898.2929467771	0.9904020429
5900.2217541501	0.9781664610
5902.1505615232	0.9793612957
5904.0793688962	1.0146031380
5906.0081762693	0.9697969556
5907.9369836423	0.9912277460
5909.8657910154	1.0121872425
5911.7945983884	0.9755573273
5913.7234057614	0.9650719166
5915.6522131345	0.9687822461
5917.5810205075	0.9418504834
5919.5098278806	0.9154269099
5921.4386352536	1.0109297037
5923.3674426267	1.0040322542
5925.2962499997	0.9441543221
5927.2250573728	0.9808493257
5929.1538647458	0.9644759297
5931.0826721189	0.9921929240
5933.0114794919	0.9983267188
5934.9402868650	0.9499737620
5936.8690942380	0.9922661781
5938.7979016111	0.9883575439
5940.7267089841	0.9507405162
5942.6555163571	0.9778628349
5944.5843237302	0.9543756247
5946.5131311032	0.9399545193
5948.4419384763	1.0242838860
5950.3707458493	0.9834817052
5952.2995532224	0.9438643456
5954.2283605954	1.0402742624
5956.1571679685	0.9872463942
5958.0859753415	0.9565408826
5960.0147827146	1.0073844194
5961.9435900876	0.9811396599
5963.8723974607	0.9945023060
5965.8012048337	0.9720107317
5967.7300122068	0.9500319958
5969.6588195798	0.9619837403
5971.5876269528	0.9983497262
5973.5164343259	1.0298943520
5975.4452416989	0.9706543088
5977.3740490720	1.0070040226
5979.3028564450	1.0079782009
5981.2316638181	0.9462596774
5983.1604711911	0.9813422561
5985.0892785642	0.9678689837
5987.0180859372	0.9780557156
5988.9468933103	1.0079874992
5990.8757006833	0.9720373750
5992.8045080564	0.9640297294
5994.7333154294	0.9779263139
5996.6621228025	0.9732874036
5998.5909301755	0.9978606701
6000.5197375485	1.0150783062
