399.2631262207	0.0002458720
401.1919335938	0.0001985927
403.1207409668	0.0000186038
405.0495483398	0.0003481660
406.9783557129	0.0000967825
408.9071630859	0.0002479686
410.8359704590	0.0000422429
412.7647778320	-0.0000102710
414.6935852051	0.0001106676
416.6223925781	-0.0001068021
418.5511999512	0.0002301095
420.4800073242	-0.0000403322
422.4088146973	0.0002313470
424.3376220703	0.0002452960
426.2664294434	-0.0001017192
428.1952368164	0.0002951123
430.1240441895	0.0002364884
432.0528515625	0.0002593840
433.9816589355	0.0001111957
435.9104663086	0.0002602414
437.8392736816	0.0002379514
439.7680810547	0.0000165011
441.6968884277	0.0002721238
443.6256958008	0.0000310104
445.5545031738	0.0001571819
447.4833105469	0.0001039365
449.4121179199	-0.0000532957
451.3409252930	0.0002371047
453.2697326660	0.0001620451
455.1985400391	0.0000913227
457.1273474121	0.0000719775
459.0561547852	-0.0000802230
460.9849621582	-0.0000708586
462.9137695313	0.0002168475
464.8425769043	0.0001285496
466.7713842773	0.0001806320
468.7001916504	0.0003138059
470.6289990234	-0.0000529752
472.5578063965	0.0000311237
474.4866137695	0.0002139944
476.4154211426	0.0001019036
478.3442285156	-0.0001347146
480.2730358887	-0.0000997192
482.2018432617	0.0000530300
484.1306506348	0.0000807559
486.0594580078	0.0002487716
487.9882653809	0.0000936410
489.9170727539	0.0002044306
491.8458801270	0.0003680260
493.7746875000	0.0002430897
495.7034948730	0.0002905052
497.6323022461	0.0002847081
499.5611096191	0.0003063749
501.4899169922	0.0001332895
503.4187243652	0.0002372101
505.3475317383	0.0004983564
507.2763391113	0.0002493004
509.2051464844	0.0000131647
511.1339538574	0.0002320515
513.0627612305	0.0004683732
514.9915686035	0.0002505788
516.9203759766	0.0002280373
518.8491833496	0.0001824506
520.7779907227	0.0000600683
522.7067980957	0.0002396559
524.6356054688	0.0001314412
526.5644128418	0.0001070539
528.4932202148	0.0002293502
530.4220275879	0.0002155731
532.3508349609	0.0002601286
534.2796423340	0.0001015543
536.2084497070	-0.0000184238
538.1372570801	0.0002015442
540.0660644531	0.0002254037
541.9948718262	0.0000929339
543.9236791992	0.0002798535
545.8524865723	0.0000816359
547.7812939453	0.0000389469
549.7101013184	0.0005062249
551.6389086914	0.0001757050
553.5677160645	0.0001450135
555.4965234375	0.0003689144
557.4253308105	0.0000542986
559.3541381836	0.0003545886
561.2829455566	0.0003717473
563.2117529297	-0.0000099210
565.1405603027	0.0001296000
567.0693676758	0.0002923851
568.9981750488	0.0002596974
570.9269824219	0.0001437037
572.8557897949	0.0000793680
574.7845971680	0.0000343484
576.7134045410	0.0002361308
578.6422119141	0.0004124340
580.5710192871	0.0003222279
582.4998266602	0.0000311397
584.4286340332	0.0001578620
586.3574414063	0.0005975358
588.2862487793	0.0002013362
590.2150561523	0.0002404105
592.1438635254	0.0004765613
594.0726708984	0.0002565689
596.0014782715	0.0003154397
597.9302856445	0.0002887873
599.8590930176	0.0003126858
601.7879003906	0.0001545352
603.7167077637	0.0001409081
605.6455151367	0.0001609091
607.5743225098	0.0001868869
609.5031298828	0.0003719158
611.4319372559	0.0001670303
613.3607446289	0.0001587523
615.2895520020	0.0001263871
617.2183593750	0.0001094416
619.1471667480	0.0001894194
621.0759741211	0.0000671646
623.0047814941	0.0000862391
624.9335888672	0.0004709075
626.8623962402	0.0006214071
628.7912036133	0.0002695159
630.7200109863	0.0002150141
632.6488183594	0.0002631075
634.5776257324	0.0002956002
636.5064331055	0.0001088838
638.4352404785	0.0000908179
640.3640478516	0.0004563121
642.2928552246	0.0005263867
644.2216625977	0.0004264145
646.1504699707	0.0001971485
648.0792773438	0.0004814048
650.0080847168	0.0004872080
651.9368920898	0.0002188720
653.8656994629	0.0005120813
655.7945068359	0.0003574337
657.7233142090	0.0002815461
659.6521215820	0.0003364990
661.5809289551	0.0002442175
663.5097363281	0.0004076328
665.4385437012	0.0005269445
667.3673510742	0.0004133883
669.2961584473	0.0003335844
671.2249658203	0.0004445223
673.1537731934	0.0005238401
675.0825805664	0.0005865903
677.0113879395	0.0004469556
678.9401953125	0.0004333806
680.8690026855	0.0005780673
682.7978100586	0.0004862038
684.7266174316	0.0002324643
686.6554248047	0.0003641134
688.5842321777	0.0006497482
690.5130395508	0.0003116099
692.4418469238	0.0005282726
694.3706542969	0.0006685745
696.2994616699	0.0004539601
698.2282690430	0.0008332873
700.1570764160	0.0007412075
702.0858837891	0.0006418378
704.0146911621	0.0006555539
705.9434985352	0.0004252816
707.8723059082	0.0004807076
709.8011132813	0.0005615661
711.7299206543	0.0004056130
713.6587280273	0.0004224502
715.5875354004	0.0004177505
717.5163427734	0.0002903427
719.4451501465	0.0005371189
721.3739575195	0.0004051360
723.3027648926	0.0004110746
725.2315722656	0.0004676863
727.1603796387	0.0002128768
729.0891870117	0.0005681114
731.0179943848	0.0004777611
732.9468017578	0.0002817448
734.8756091309	0.0003875545
736.8044165039	0.0003331516
738.7332238770	0.0004716532
740.6620312500	0.0004898282
742.5908386230	0.0004771961
744.5196459961	0.0004965459
746.4484533691	0.0005436092
748.3772607422	0.0005248041
750.3060681152	0.0004067239
752.2348754883	0.0003537376
754.1636828613	0.0004142878
756.0924902344	0.0005173666
758.0212976074	0.0004529177
759.9501049805	0.0004237740
761.8789123535	0.0004381101
763.8077197266	0.0004938957
765.7365270996	0.0004191444
767.6653344727	0.0003948977
769.5941418457	0.0005237472
771.5229492188	0.0003863039
773.4517565918	0.0004555021
775.3805639648	0.0006770695
777.3093713379	0.0005825417
779.2381787109	0.0004691479
781.1669860840	0.0005955251
783.0957934570	0.0005629139
785.0246008301	0.0003510852
786.9534082031	0.0005021009
788.8822155762	0.0005532238
790.8110229492	0.0003633498
792.7398303223	0.0005224384
794.6686376953	0.0006986327
796.5974450684	0.0004657895
798.5262524414	0.0004138393
800.4550598145	0.0006016627
802.3838671875	0.0005755639
804.3126745605	0.0006549973
806.2414819336	0.0006531028
808.1702893066	0.0005371986
810.0990966797	0.0006342517
812.0279040527	0.0006406674
813.9567114258	0.0004708783
815.8855187988	0.0005005338
817.8143261719	0.0006566755
819.7431335449	0.0003443905
821.6719409180	0.0003114184
823.6007482910	0.0008099934
825.5295556641	0.0007204022
827.4583630371	0.0003868836
829.3871704102	0.0005187872
831.3159777832	0.0006632337
833.2447851563	0.0005206952
835.1735925293	0.0006594314
837.1023999023	0.0008136768
839.0312072754	0.0006522792
840.9600146484	0.0006521836
842.8888220215	0.0005000365
844.8176293945	0.0005978612
846.7464367676	0.0009884813
848.6752441406	0.0008163969
850.6040515137	0.0007206975
852.5328588867	0.0006940942
854.4616662598	0.0005867570
856.3904736328	0.0007750127
858.3192810059	0.0007514063
860.2480883789	0.0006846809
862.1768957520	0.0006706597
864.1057031250	0.0007108958
866.0345104980	0.0007251084
867.9633178711	0.0005838332
869.8921252441	0.0008603888
871.8209326172	0.0008834208
873.7497399902	0.0006154520
875.6785473633	0.0007211670
877.6073547363	0.0006927538
879.5361621094	0.0007034956
881.4649694824	0.0007518467
883.3937768555	0.0007503089
885.3225842285	0.0009946352
887.2513916016	0.0010689816
889.1801989746	0.0010693937
891.1090063477	0.0009954403
893.0378137207	0.0009140010
894.9666210938	0.0012288333
896.8954284668	0.0012767568
898.8242358398	0.0012459265
900.7530432129	0.0014678359
902.6818505859	0.0014659676
904.6106579590	0.0013745381
906.5394653320	0.0013528606
908.4682727051	0.0014767509
910.3970800781	0.0014403212
912.3258874512	0.0012613944
914.2546948242	0.0012749941
916.1835021973	0.0013065027
918.1123095703	0.0012859108
920.0411169434	0.0013365541
921.9699243164	0.0012883509
923.8987316895	0.0011241158
925.8275390625	0.0014421749
927.7563464355	0.0015820847
929.6851538086	0.0013604262
931.6139611816	0.0014874025
933.5427685547	0.0015713205
935.4715759277	0.0016014685
937.4003833008	0.0015546584
939.3291906738	0.0015012224
941.2579980469	0.0013880074
943.1868054199	0.0012610470
945.1156127930	0.0012100716
947.0444201660	0.0010372682
948.9732275391	0.0011840600
950.9020349121	0.0013331422
952.8308422852	0.0012193122
954.7596496582	0.0010706343
956.6884570313	0.0012223331
958.6172644043	0.0012427142
960.5460717773	0.0010570076
962.4748791504	0.0012217390
964.4036865234	0.0010987765
966.3324938965	0.0011195863
968.2613012695	0.0009477215
970.1901086426	0.0008201287
972.1189160156	0.0010587503
974.0477233887	0.0008953053
975.9765307617	0.0012462279
977.9053381348	0.0012146705
979.8341455078	0.0010008935
981.7629528809	0.0010954067
983.6917602539	0.0010007827
985.6205676270	0.0012654560
987.5493750000	0.0011153562
989.4781823730	0.0010639552
991.4069897461	0.0012660150
993.3357971191	0.0011563587
995.2646044922	0.0009856687
997.1934118652	0.0010546395
999.1222192383	0.0012182503
1001.0510266113	0.0009807704
1002.9798339844	0.0010768948
1004.9086413574	0.0012802137
1006.8374487305	0.0012175159
1008.7662561035	0.0011317751
1010.6950634766	0.0012838498
1012.6238708496	0.0014190692
1014.5526782227	0.0012388794
1016.4814855957	0.0012150323
1018.4102929688	0.0011882929
1020.3391003418	0.0013680006
1022.2679077148	0.0013062035
1024.1967150879	0.0013642886
1026.1255224609	0.0015139987
1028.0543298340	0.0012834477
1029.9831372070	0.0015074979
1031.9119445801	0.0014942216
1033.8407519531	0.0015679717
1035.7695593262	0.0014420687
1037.6983666992	0.0013386931
1039.6271740723	0.0015791105
1041.5559814453	0.0012957621
1043.4847888184	0.0015726051
1045.4135961914	0.0015029197
1047.3424035645	0.0013813346
1049.2712109375	0.0016812393
1051.2000183105	0.0015241867
1053.1288256836	0.0016244452
1055.0576330566	0.0014956843
1056.9864404297	0.0014376109
1058.9152478027	0.0015105307
1060.8440551758	0.0014041972
1062.7728625488	0.0014070204
1064.7016699219	0.0014002484
1066.6304772949	0.0014414708
1068.5592846680	0.0013178791
1070.4880920410	0.0013097981
1072.4168994141	0.0013265369
1074.3457067871	0.0013290583
1076.2745141602	0.0013058432
1078.2033215332	0.0011354785
1080.1321289062	0.0011684432
1082.0609362793	0.0012503422
1083.9897436523	0.0012466104
1085.9185510254	0.0011424694
1087.8473583984	0.0012135491
1089.7761657715	0.0012980495
1091.7049731445	0.0011389123
1093.6337805176	0.0011696129
1095.5625878906	0.0013040497
1097.4913952637	0.0013262028
1099.4202026367	0.0013891837
1101.3490100098	0.0014364324
1103.2778173828	0.0013731702
1105.2066247559	0.0013999641
1107.1354321289	0.0014072945
1109.0642395019	0.0013116172
1110.9930468750	0.0012697389
1112.9218542480	0.0012918808
1114.8506616211	0.0013061686
1116.7794689941	0.0013174217
1118.7082763672	0.0013151636
1120.6370837402	0.0012659621
1122.5658911133	0.0013517493
1124.4946984863	0.0012999732
1126.4235058594	0.0011439912
1128.3523132324	0.0011699973
1130.2811206055	0.0012616117
1132.2099279785	0.0012552382
1134.1387353516	0.0011577716
1136.0675427246	0.0011853797
1137.9963500977	0.0009917459
1139.9251574707	0.0009977515
1141.8539648437	0.0011396052
1143.7827722168	0.0010670411
1145.7115795898	0.0012985275
1147.6403869629	0.0011825389
1149.5691943359	0.0010850036
1151.4980017090	0.0013018122
1153.4268090820	0.0013821735
1155.3556164551	0.0014137013
1157.2844238281	0.0013607992
1159.2132312012	0.0014108201
1161.1420385742	0.0012709317
1163.0708459473	0.0014441323
1164.9996533203	0.0015901799
1166.9284606934	0.0013085651
1168.8572680664	0.0014731439
1170.7860754394	0.0015987116
1172.7148828125	0.0017179663
1174.6436901855	0.0017185088
1176.5724975586	0.0015683025
1178.5013049316	0.0017136966
1180.4301123047	0.0016655942
1182.3589196777	0.0017264965
1184.2877270508	0.0018252931
1186.2165344238	0.0017900505
1188.1453417969	0.0019411951
1190.0741491699	0.0020118239
1192.0029565430	0.0020830538
1193.9317639160	0.0020673065
1195.8605712891	0.0020514643
1197.7893786621	0.0022424830
1199.7181860351	0.0022826518
1201.6469934082	0.0023923803
1203.5758007812	0.0026110888
1205.5046081543	0.0027273279
1207.4334155273	0.0027016024
1209.3622229004	0.0026959288
1211.2910302734	0.0028810014
1213.2198376465	0.0028166128
1215.1486450195	0.0028091925
1217.0774523926	0.0028648502
1219.0062597656	0.0028953287
1220.9350671387	0.0031331186
1222.8638745117	0.0031804994
1224.7926818848	0.0032479758
1226.7214892578	0.0031371615
1228.6502966308	0.0030844198
1230.5791040039	0.0031611817
1232.5079113769	0.0031210447
1234.4367187500	0.0033195913
1236.3655261230	0.0031021489
1238.2943334961	0.0030955155
1240.2231408691	0.0034110600
1242.1519482422	0.0032317969
1244.0807556152	0.0030918051
1246.0095629883	0.0031563940
1247.9383703613	0.0032659185
1249.8671777344	0.0030781808
1251.7959851074	0.0029770494
1253.7247924805	0.0030120672
1255.6535998535	0.0029275925
1257.5824072266	0.0030920538
1259.5112145996	0.0030367943
1261.4400219726	0.0028976717
1263.3688293457	0.0030766854
1265.2976367187	0.0030743922
1267.2264440918	0.0029176408
1269.1552514648	0.0029768224
1271.0840588379	0.0027074842
1273.0128662109	0.0025707735
1274.9416735840	0.0028167290
1276.8704809570	0.0025937557
1278.7992883301	0.0026940731
1280.7280957031	0.0026355321
1282.6569030762	0.0024505155
1284.5857104492	0.0027529243
1286.5145178223	0.0025243224
1288.4433251953	0.0024807134
1290.3721325683	0.0024871505
1292.3009399414	0.0023982632
1294.2297473144	0.0024766233
1296.1585546875	0.0023801057
1298.0873620605	0.0026314757
1300.0161694336	0.0025113276
1301.9449768066	0.0023869937
1303.8737841797	0.0025961504
1305.8025915527	0.0024759311
1307.7313989258	0.0024973424
1309.6602062988	0.0024955822
1311.5890136719	0.0026278263
1313.5178210449	0.0028894285
1315.4466284180	0.0028526648
1317.3754357910	0.0027103345
1319.3042431640	0.0027756230
1321.2330505371	0.0030116183
1323.1618579101	0.0030366927
1325.0906652832	0.0030853241
1327.0194726562	0.0030682157
1328.9482800293	0.0029854174
1330.8770874023	0.0031172743
1332.8058947754	0.0033062915
1334.7347021484	0.0033660727
1336.6635095215	0.0032554441
1338.5923168945	0.0032705860
1340.5211242676	0.0032347881
1342.4499316406	0.0034215986
1344.3787390137	0.0035918299
1346.3075463867	0.0033942228
1348.2363537597	0.0035318180
1350.1651611328	0.0034434926
1352.0939685058	0.0033890633
1354.0227758789	0.0035289861
1355.9515832519	0.0033460972
1357.8803906250	0.0033979607
1359.8091979980	0.0033696811
1361.7380053711	0.0032344316
1363.6668127441	0.0032477861
1365.5956201172	0.0033655185
1367.5244274902	0.0032898355
1369.4532348633	0.0031538545
1371.3820422363	0.0033310654
1373.3108496094	0.0031582795
1375.2396569824	0.0031973962
1377.1684643555	0.0033594156
1379.0972717285	0.0031910883
1381.0260791015	0.0032971310
1382.9548864746	0.0032547675
1384.8836938476	0.0031762372
1386.8125012207	0.0031673168
1388.7413085937	0.0031762864
1390.6701159668	0.0033657092
1392.5989233398	0.0034061028
1394.5277307129	0.0033231154
1396.4565380859	0.0032140687
1398.3853454590	0.0031196307
1400.3141528320	0.0032093038
1402.2429602051	0.0033871774
1404.1717675781	0.0032447181
1406.1005749512	0.0031629046
1408.0293823242	0.0033218018
1409.9581896972	0.0033665011
1411.8869970703	0.0033832402
1413.8158044433	0.0033603306
1415.7446118164	0.0033228430
1417.6734191894	0.0030353272
1419.6022265625	0.0029846583
1421.5310339355	0.0031916176
1423.4598413086	0.0029825927
1425.3886486816	0.0028786482
1427.3174560547	0.0029797168
1429.2462634277	0.0029717325
1431.1750708008	0.0027825350
1433.1038781738	0.0028336116
1435.0326855469	0.0027777194
1436.9614929199	0.0024275812
1438.8903002929	0.0025816362
1440.8191076660	0.0026227073
1442.7479150390	0.0026021933
1444.6767224121	0.0026603290
1446.6055297851	0.0025297767
1448.5343371582	0.0025820062
1450.4631445312	0.0025969571
1452.3919519043	0.0027369959
1454.3207592773	0.0028659645
1456.2495666504	0.0025723996
1458.1783740234	0.0023945351
1460.1071813965	0.0028346411
1462.0359887695	0.0032115369
1463.9647961426	0.0031171055
1465.8936035156	0.0030697286
1467.8224108886	0.0033190839
1469.7512182617	0.0036219968
1471.6800256347	0.0034772509
1473.6088330078	0.0035601705
1475.5376403808	0.0039327340
1477.4664477539	0.0040740222
1479.3952551269	0.0043083597
1481.3240625000	0.0044444101
1483.2528698730	0.0046355389
1485.1816772461	0.0047290027
1487.1104846191	0.0047153831
1489.0392919922	0.0046373224
1490.9680993652	0.0046379166
1492.8969067383	0.0052268654
1494.8257141113	0.0050935536
1496.7545214843	0.0047461288
1498.6833288574	0.0052657872
1500.6121362304	0.0053254170
1502.5409436035	0.0054739658
1504.4697509765	0.0053111585
1506.3985583496	0.0044013113
1508.3273657226	0.0049825162
1510.2561730957	0.0054962533
1512.1849804687	0.0054577338
1514.1137878418	0.0058528958
1516.0425952148	0.0053766682
1517.9714025879	0.0055628037
1519.9002099609	0.0053776568
1521.8290173340	0.0049472302
1523.7578247070	0.0058070980
1525.6866320801	0.0057120072
1527.6154394531	0.0056979023
1529.5442468261	0.0059917513
1531.4730541992	0.0059201531
1533.4018615722	0.0054828324
1535.3306689453	0.0056526288
1537.2594763183	0.0061251651
1539.1882836914	0.0047876313
1541.1170910644	0.0049692765
1543.0458984375	0.0055007194
1544.9747058105	0.0054762345
1546.9035131836	0.0062116794
1548.8323205566	0.0056237569
1550.7611279297	0.0059880903
1552.6899353027	0.0058740177
1554.6187426758	0.0054155439
1556.5475500488	0.0057488247
1558.4763574218	0.0045245495
1560.4051647949	0.0048852791
1562.3339721679	0.0060514016
1564.2627795410	0.0058410764
1566.1915869140	0.0059571629
1568.1203942871	0.0059030326
1570.0492016601	0.0055381441
1571.9780090332	0.0059320508
1573.9068164062	0.0058859205
1575.8356237793	0.0052208314
1577.7644311523	0.0056758518
1579.6932385254	0.0058696596
1581.6220458984	0.0058133062
1583.5508532715	0.0060471138
1585.4796606445	0.0060202088
1587.4084680175	0.0060903002
1589.3372753906	0.0058480422
1591.2660827636	0.0058825249
1593.1948901367	0.0058231913
1595.1236975097	0.0058170343
1597.0525048828	0.0060160006
1598.9813122558	0.0059306305
1600.9101196289	0.0059033069
1602.8389270019	0.0057665380
1604.7677343750	0.0060058683
1606.6965417480	0.0057904418
1608.6253491211	0.0056496151
1610.5541564941	0.0058036204
1612.4829638672	0.0057805078
1614.4117712402	0.0060175750
1616.3405786132	0.0052720448
1618.2693859863	0.0054285564
1620.1981933593	0.0061032120
1622.1270007324	0.0056187063
1624.0558081054	0.0056446027
1625.9846154785	0.0057718325
1627.9134228515	0.0057867272
1629.8422302246	0.0058376594
1631.7710375976	0.0060701193
1633.6998449707	0.0058386014
1635.6286523437	0.0051434017
1637.5574597168	0.0056540985
1639.4862670898	0.0062133344
1641.4150744629	0.0061683590
1643.3438818359	0.0063423356
1645.2726892090	0.0058834944
1647.2014965820	0.0054210806
1649.1303039550	0.0064637363
1651.0591113281	0.0060157180
1652.9879187011	0.0045464099
1654.9167260742	0.0057991082
1656.8455334472	0.0065997187
1658.7743408203	0.0063920617
1660.7031481933	0.0066437186
1662.6319555664	0.0061265845
1664.5607629394	0.0063043414
1666.4895703125	0.0068263747
1668.4183776855	0.0062942049
1670.3471850586	0.0061475546
1672.2759924316	0.0067760870
1674.2047998047	0.0063207974
1676.1336071777	0.0061766473
1678.0624145507	0.0069182217
1679.9912219238	0.0066804029
1681.9200292968	0.0066745691
1683.8488366699	0.0056645991
1685.7776440429	0.0055638878
1687.7064514160	0.0072111059
1689.6352587890	0.0064248596
1691.5640661621	0.0067608687
1693.4928735351	0.0070718327
1695.4216809082	0.0056799166
1697.3504882812	0.0064830286
1699.2792956543	0.0059624882
1701.2081030273	0.0054559857
1703.1369104004	0.0068364106
1705.0657177734	0.0064396644
1706.9945251464	0.0064256592
1708.9233325195	0.0070102392
1710.8521398925	0.0067428737
1712.7809472656	0.0066227857
1714.7097546386	0.0063588023
1716.6385620117	0.0059606927
1718.5673693847	0.0057840515
1720.4961767578	0.0065165488
1722.4249841308	0.0067103794
1724.3537915039	0.0061507910
1726.2825988769	0.0065498529
1728.2114062500	0.0063662012
1730.1402136230	0.0064523946
1732.0690209961	0.0062678196
1733.9978283691	0.0050865579
1735.9266357421	0.0059592295
1737.8554431152	0.0064807795
1739.7842504882	0.0059816227
1741.7130578613	0.0062378058
1743.6418652343	0.0062334454
1745.5706726074	0.0063631758
1747.4994799804	0.0063867625
1749.4282873535	0.0061844517
1751.3570947265	0.0059296759
1753.2859020996	0.0063739307
1755.2147094726	0.0065458976
1757.1435168457	0.0060441243
1759.0723242187	0.0065955035
1761.0011315918	0.0061561596
1762.9299389648	0.0062202103
1764.8587463379	0.0069205188
1766.7875537109	0.0061454475
1768.7163610839	0.0064301221
1770.6451684570	0.0062527787
1772.5739758300	0.0057306169
1774.5027832031	0.0062779021
1776.4315905761	0.0063952832
1778.3603979492	0.0064967708
1780.2892053222	0.0063747223
1782.2180126953	0.0064012902
1784.1468200683	0.0064634392
1786.0756274414	0.0063059730
1788.0044348144	0.0066050412
1789.9332421875	0.0064876187
1791.8620495605	0.0060392339
1793.7908569336	0.0061712163
1795.7196643066	0.0064113345
1797.6484716796	0.0063448474
1799.5772790527	0.0063875597
1801.5060864257	0.0063025327
1803.4348937988	0.0062903455
1805.3637011718	0.0063724788
1807.2925085449	0.0063824039
1809.2213159179	0.0065232459
1811.1501232910	0.0064291880
1813.0789306640	0.0065085753
1815.0077380371	0.0063983756
1816.9365454101	0.0064143641
1818.8653527832	0.0065887729
1820.7941601562	0.0064504948
1822.7229675293	0.0065720500
1824.6517749023	0.0061738025
1826.5805822753	0.0062632002
1828.5093896484	0.0063348459
1830.4381970214	0.0059725419
1832.3670043945	0.0063746530
1834.2958117675	0.0062549664
1836.2246191406	0.0063551040
1838.1534265136	0.0063406071
1840.0822338867	0.0062993551
1842.0110412597	0.0064813606
1843.9398486328	0.0058372091
1845.8686560058	0.0060956795
1847.7974633789	0.0062919240
1849.7262707519	0.0061774449
1851.6550781250	0.0064113773
1853.5838854980	0.0062351911
1855.5126928710	0.0063184570
1857.4415002441	0.0062145386
1859.3703076171	0.0062438129
1861.2991149902	0.0063193091
1863.2279223632	0.0061933203
1865.1567297363	0.0062866360
1867.0855371093	0.0060094721
1869.0143444824	0.0059413482
1870.9431518554	0.0062862867
1872.8719592285	0.0063359551
1874.8007666015	0.0061373622
1876.7295739746	0.0061758808
1878.6583813476	0.0061459737
1880.5871887207	0.0060990127
1882.5159960937	0.0062150592
1884.4448034667	0.0060232887
1886.3736108398	0.0061386554
1888.3024182128	0.0061481474
1890.2312255859	0.0059827161
1892.1600329589	0.0061976286
1894.0888403320	0.0060353968
1896.0176477050	0.0059884111
1897.9464550781	0.0060847313
1899.8752624511	0.0059391614
1901.8040698242	0.0060190787
1903.7328771972	0.0060085766
1905.6616845703	0.0060133114
1907.5904919433	0.0060747950
1909.5192993164	0.0059570367
1911.4481066894	0.0059882686
1913.3769140625	0.0059383572
1915.3057214355	0.0059138858
1917.2345288085	0.0059180795
1919.1633361816	0.0057754926
1921.0921435546	0.0059370361
1923.0209509277	0.0059823841
1924.9497583007	0.0059541957
1926.8785656738	0.0060015637
1928.8073730468	0.0059338398
1930.7361804199	0.0059581101
1932.6649877929	0.0059334044
1934.5937951660	0.0060628364
1936.5226025390	0.0059248554
1938.4514099121	0.0058214320
1940.3802172851	0.0059821708
1942.3090246582	0.0057013091
1944.2378320312	0.0058331518
1946.1666394042	0.0060567968
1948.0954467773	0.0058790622
1950.0242541503	0.0058213077
1951.9530615234	0.0058320886
1953.8818688964	0.0059968000
1955.8106762695	0.0059097828
1957.7394836425	0.0057842592
1959.6682910156	0.0059396126
1961.5970983886	0.0059183268
1963.5259057617	0.0058601014
1965.4547131347	0.0058398359
1967.3835205078	0.0058323941
1969.3123278808	0.0058546336
1971.2411352539	0.0057269470
1973.1699426269	0.0056949593
1975.0987499999	0.0057227155
1977.0275573730	0.0057494063
1978.9563647460	0.0058468673
1980.8851721191	0.0057055834
1982.8139794921	0.0056920806
1984.7427868652	0.0057508056
1986.6715942382	0.0057860864
1988.6004016113	0.0058701215
1990.5292089843	0.0056771329
1992.4580163574	0.0056940154
1994.3868237304	0.0056194095
1996.3156311035	0.0055522695
1998.2444384765	0.0057476899
2000.1732458496	0.0056074541
2002.1020532226	0.0055983560
2004.0308605956	0.0057199970
2005.9596679687	0.0056844261
2007.8884753417	0.0055447575
2009.8172827148	0.0054918672
2011.7460900878	0.0055320845
2013.6748974609	0.0055495296
2015.6037048339	0.0056264820
2017.5325122070	0.0054968037
2019.4613195800	0.0055442625
2021.3901269531	0.0056334585
2023.3189343261	0.0054995762
2025.2477416992	0.0054984223
2027.1765490722	0.0054975962
2029.1053564453	0.0054364940
2031.0341638183	0.0054243454
2032.9629711914	0.0055066338
2034.8917785644	0.0053994488
2036.8205859374	0.0054159500
2038.7493933105	0.0054858709
2040.6782006835	0.0052882745
2042.6070080566	0.0053095333
2044.5358154296	0.0054011298
2046.4646228027	0.0053861327
2048.3934301757	0.0052498123
2050.3222375488	0.0053711664
2052.2510449218	0.0055162422
2054.1798522949	0.0053174249
2056.1086596679	0.0053064283
2058.0374670410	0.0052233483
2059.9662744140	0.0052291816
2061.8950817871	0.0052647046
2063.8238891601	0.0052004056
2065.7526965331	0.0053075235
2067.6815039062	0.0052168733
2069.6103112792	0.0052556163
2071.5391186523	0.0053228857
2073.4679260253	0.0051649665
2075.3967333984	0.0051938528
2077.3255407714	0.0052740620
2079.2543481445	0.0052720718
2081.1831555175	0.0052676974
2083.1119628906	0.0052381335
2085.0407702636	0.0051614381
2086.9695776367	0.0051122070
2088.8983850097	0.0052032745
2090.8271923828	0.0053171720
2092.7559997558	0.0052021937
2094.6848071288	0.0051041525
2096.6136145019	0.0052393805
2098.5424218749	0.0052332915
2100.4712292480	0.0051317802
2102.4000366210	0.0050979853
2104.3288439941	0.0050313845
2106.2576513671	0.0051650405
2108.1864587402	0.0051859999
2110.1152661132	0.0050223423
2112.0440734863	0.0051209647
2113.9728808593	0.0050658397
2115.9016882324	0.0050900280
2117.8304956054	0.0051400638
2119.7593029785	0.0049437145
2121.6881103515	0.0049691908
2123.6169177245	0.0049081924
2125.5457250976	0.0051004570
2127.4745324706	0.0051780748
2129.4033398437	0.0048943777
2131.3321472167	0.0049960152
2133.2609545898	0.0049700462
2135.1897619628	0.0050109234
2137.1185693359	0.0050540594
2139.0473767089	0.0049956581
2140.9761840820	0.0050587030
2142.9049914550	0.0049316706
2144.8337988281	0.0049102963
2146.7626062011	0.0049201972
2148.6914135742	0.0050666565
2150.6202209472	0.0051327609
2152.5490283203	0.0049665705
2154.4778356933	0.0049259104
2156.4066430663	0.0048868805
2158.3354504394	0.0048706559
2160.2642578124	0.0047779279
2162.1930651855	0.0048314808
2164.1218725585	0.0048001064
2166.0506799316	0.0048079351
2167.9794873046	0.0049945666
2169.9082946777	0.0047823507
2171.8371020507	0.0048371688
2173.7659094238	0.0049169431
2175.6947167968	0.0048547373
2177.6235241699	0.0049005947
2179.5523315429	0.0046804659
2181.4811389160	0.0048422106
2183.4099462890	0.0049257055
2185.3387536620	0.0047767698
2187.2675610351	0.0049876831
2189.1963684081	0.0048565147
2191.1251757812	0.0047066137
2193.0539831542	0.0048808227
2194.9827905273	0.0048277006
2196.9115979003	0.0048150029
2198.8404052734	0.0048713423
2200.7692126464	0.0047434159
2202.6980200195	0.0047477912
2204.6268273925	0.0047834814
2206.5556347656	0.0047466420
2208.4844421386	0.0048459796
2210.4132495117	0.0048816521
2212.3420568847	0.0048459871
2214.2708642577	0.0048009190
2216.1996716308	0.0047255373
2218.1284790038	0.0047257300
2220.0572863769	0.0047765709
2221.9860937499	0.0047999644
2223.9149011230	0.0047629336
2225.8437084960	0.0047721080
2227.7725158691	0.0046857866
2229.7013232421	0.0046140929
2231.6301306152	0.0047691725
2233.5589379882	0.0047564600
2235.4877453613	0.0046340860
2237.4165527343	0.0046716663
2239.3453601074	0.0047083450
2241.2741674804	0.0046091434
2243.2029748534	0.0046239300
2245.1317822265	0.0047195172
2247.0605895995	0.0046492345
2248.9893969726	0.0046161702
2250.9182043456	0.0045653898
2252.8470117187	0.0046131876
2254.7758190917	0.0046389354
2256.7046264648	0.0045568389
2258.6334338378	0.0045901360
2260.5622412109	0.0045293025
2262.4910485839	0.0046070283
2264.4198559570	0.0045954762
2266.3486633300	0.0045208698
2268.2774707031	0.0045025297
2270.2062780761	0.0044273939
2272.1350854491	0.0046845479
2274.0638928222	0.0046839071
2275.9927001952	0.0045679999
2277.9215075683	0.0045264205
2279.8503149413	0.0044702971
2281.7791223144	0.0046232156
2283.7079296874	0.0044881916
2285.6367370605	0.0044599241
2287.5655444335	0.0044893213
2289.4943518066	0.0045263330
2291.4231591796	0.0045624040
2293.3519665527	0.0042678015
2295.2807739257	0.0043780017
2297.2095812988	0.0044928286
2299.1383886718	0.0043529905
2301.0671960449	0.0043353001
2302.9960034179	0.0042967717
2304.9248107909	0.0043735746
2306.8536181640	0.0043461397
2308.7824255370	0.0042334199
2310.7112329101	0.0042722998
2312.6400402831	0.0042339303
2314.5688476562	0.0041397559
2316.4976550292	0.0041249022
2318.4264624023	0.0040277103
2320.3552697753	0.0040456112
2322.2840771484	0.0040492518
2324.2128845214	0.0039034230
2326.1416918945	0.0039888993
2328.0704992675	0.0039052106
2329.9993066406	0.0037710043
2331.9281140136	0.0038849581
2333.8569213866	0.0038569462
2335.7857287597	0.0037312503
2337.7145361327	0.0037370371
2339.6433435058	0.0038689503
2341.5721508788	0.0038827760
2343.5009582519	0.0038704071
2345.4297656249	0.0039124778
2347.3585729980	0.0040334482
2349.2873803710	0.0040790439
2351.2161877441	0.0039260890
2353.1449951171	0.0038609013
2355.0738024902	0.0037107242
2357.0026098632	0.0036543550
2358.9314172363	0.0036201989
2360.8602246093	0.0034552366
2362.7890319823	0.0034303656
2364.7178393554	0.0034349819
2366.6466467284	0.0035801528
2368.5754541015	0.0036339043
2370.5042614745	0.0037289816
2372.4330688476	0.0038699070
2374.3618762206	0.0038310015
2376.2906835937	0.0039956775
2378.2194909667	0.0040322109
2380.1482983398	0.0040366021
2382.0771057128	0.0040671946
2384.0059130859	0.0040459502
2385.9347204589	0.0042149704
2387.8635278320	0.0041907821
2389.7923352050	0.0041378215
2391.7211425780	0.0041327504
2393.6499499511	0.0041613523
2395.5787573241	0.0042120535
2397.5075646972	0.0041384548
2399.4363720702	0.0042022024
2401.3651794433	0.0040880674
2403.2939868163	0.0039648172
2405.2227941894	0.0041278303
2407.1516015624	0.0041716853
2409.0804089355	0.0040767509
2411.0092163085	0.0040600011
2412.9380236816	0.0041135070
2414.8668310546	0.0040112780
2416.7956384277	0.0040233852
2418.7244458007	0.0040910435
2420.6532531738	0.0039733872
2422.5820605468	0.0040382454
2424.5108679198	0.0041519953
2426.4396752929	0.0040882500
2428.3684826659	0.0039858343
2430.2972900390	0.0040412047
2432.2260974120	0.0040386803
2434.1549047851	0.0039211307
2436.0837121581	0.0039641475
2438.0125195312	0.0040091388
2439.9413269042	0.0039803153
2441.8701342773	0.0039188024
2443.7989416503	0.0040625641
2445.7277490234	0.0040561031
2447.6565563964	0.0038640744
2449.5853637695	0.0040135533
2451.5141711425	0.0039357641
2453.4429785155	0.0038842475
2455.3717858886	0.0040246393
2457.3005932616	0.0039452636
2459.2294006347	0.0039508436
2461.1582080077	0.0039112256
2463.0870153808	0.0038671377
2465.0158227538	0.0038602380
2466.9446301269	0.0037945823
2468.8734374999	0.0038201308
2470.8022448730	0.0038500740
2472.7310522460	0.0037964294
2474.6598596191	0.0038376963
2476.5886669921	0.0039311862
2478.5174743652	0.0038430111
2480.4462817382	0.0038557043
2482.3750891112	0.0038586012
2484.3038964843	0.0037552400
2486.2327038573	0.0038171418
2488.1615112304	0.0038458407
2490.0903186034	0.0038391547
2492.0191259765	0.0038826950
2493.9479333495	0.0038345875
2495.8767407226	0.0037513520
2497.8055480956	0.0038489797
2499.7343554687	0.0038503960
2501.6631628417	0.0038022879
2503.5919702148	0.0038453857
2505.5207775878	0.0037100120
2507.4495849609	0.0037463610
2509.3783923339	0.0037862482
2511.3071997069	0.0037761768
2513.2360070800	0.0037376517
2515.1648144530	0.0035753329
2517.0936218261	0.0037321569
2519.0224291991	0.0037094830
2520.9512365722	0.0037210409
2522.8800439452	0.0038922403
2524.8088513183	0.0037477959
2526.7376586913	0.0037478621
2528.6664660644	0.0036823847
2530.5952734374	0.0036806981
2532.5240808105	0.0037889937
2534.4528881835	0.0037158073
2536.3816955566	0.0037579527
2538.3105029296	0.0037075037
2540.2393103027	0.0037285229
2542.1681176757	0.0037115666
2544.0969250487	0.0035630446
2546.0257324218	0.0036940153
2547.9545397948	0.0036553538
2549.8833471679	0.0035829120
2551.8121545409	0.0036908302
2553.7409619140	0.0036523603
2555.6697692870	0.0035905098
2557.5985766601	0.0036052037
2559.5273840331	0.0037099901
2561.4561914062	0.0036249529
2563.3849987792	0.0035471271
2565.3138061523	0.0036639618
2567.2426135253	0.0035952483
2569.1714208984	0.0036240509
2571.1002282714	0.0037038024
2573.0290356444	0.0036262961
2574.9578430175	0.0035194829
2576.8866503905	0.0034513855
2578.8154577636	0.0036162925
2580.7442651366	0.0036863508
2582.6730725097	0.0035662912
2584.6018798827	0.0035939501
2586.5306872558	0.0035569293
2588.4594946288	0.0034337437
2590.3883020019	0.0034607998
2592.3171093749	0.0033955709
2594.2459167480	0.0034350380
2596.1747241210	0.0036480674
2598.1035314941	0.0035360337
2600.0323388671	0.0034952234
2601.9611462401	0.0035376702
2603.8899536132	0.0034242924
2605.8187609862	0.0034907612
2607.7475683593	0.0034913763
2609.6763757323	0.0033919397
2611.6051831054	0.0034538703
2613.5339904784	0.0034735897
2615.4627978515	0.0033481051
2617.3916052245	0.0033892612
2619.3204125976	0.0034383419
2621.2492199706	0.0033956405
2623.1780273437	0.0034447294
2625.1068347167	0.0033529580
2627.0356420898	0.0034211809
2628.9644494628	0.0034859930
2630.8932568358	0.0033375574
2632.8220642089	0.0034047319
2634.7508715819	0.0034133247
2636.6796789550	0.0033395542
2638.6084863280	0.0033937735
2640.5372937011	0.0034771520
2642.4661010741	0.0033880903
2644.3949084472	0.0033283529
2646.3237158202	0.0034101699
2648.2525231933	0.0033099265
2650.1813305663	0.0033302265
2652.1101379394	0.0033639017
2654.0389453124	0.0033197266
2655.9677526855	0.0033596114
2657.8965600585	0.0032675588
2659.8253674315	0.0032801731
2661.7541748046	0.0033067991
2663.6829821776	0.0033134285
2665.6117895507	0.0034036390
2667.5405969237	0.0033223855
2669.4694042968	0.0032250886
2671.3982116698	0.0032182569
2673.3270190429	0.0032705825
2675.2558264159	0.0033035870
2677.1846337890	0.0032705399
2679.1134411620	0.0033066587
2681.0422485351	0.0033132648
2682.9710559081	0.0032859333
2684.8998632812	0.0032105625
2686.8286706542	0.0031560329
2688.7574780273	0.0032714538
2690.6862854003	0.0031836855
2692.6150927733	0.0031060840
2694.5439001464	0.0032823826
2696.4727075194	0.0032423753
2698.4015148925	0.0031980495
2700.3303222655	0.0031997710
2702.2591296386	0.0030883385
2704.1879370116	0.0031381897
2706.1167443847	0.0031870478
2708.0455517577	0.0031487430
2709.9743591308	0.0031650849
2711.9031665038	0.0031524205
2713.8319738769	0.0030825622
2715.7607812499	0.0030666469
2717.6895886230	0.0031415885
2719.6183959960	0.0031608741
2721.5472033690	0.0030756635
2723.4760107421	0.0031110428
2725.4048181151	0.0032180580
2727.3336254882	0.0031523232
2729.2624328612	0.0030805813
2731.1912402343	0.0030452493
2733.1200476073	0.0030251546
2735.0488549804	0.0030846570
2736.9776623534	0.0030895395
2738.9064697265	0.0030478600
2740.8352770995	0.0030325002
2742.7640844726	0.0030827429
2744.6928918456	0.0031059263
2746.6216992187	0.0031116023
2748.5505065917	0.0030680869
2750.4793139647	0.0029631888
2752.4081213378	0.0030695582
2754.3369287108	0.0031109101
2756.2657360839	0.0030176793
2758.1945434569	0.0030160379
2760.1233508300	0.0029698401
2762.0521582030	0.0029755137
2763.9809655761	0.0030172435
2765.9097729491	0.0029905539
2767.8385803222	0.0029232320
2769.7673876952	0.0028462694
2771.6961950683	0.0028500841
2773.6250024413	0.0029474024
2775.5538098144	0.0029948442
2777.4826171874	0.0029814311
2779.4114245604	0.0029876346
2781.3402319335	0.0029120408
2783.2690393065	0.0029188865
2785.1978466796	0.0029607825
2787.1266540526	0.0028596064
2789.0554614257	0.0028686165
2790.9842687987	0.0029420992
2792.9130761718	0.0028912257
2794.8418835448	0.0028348791
2796.7706909179	0.0029475028
2798.6994982909	0.0029846271
2800.6283056640	0.0028764443
2802.5571130370	0.0028956071
2804.4859204101	0.0029122219
2806.4147277831	0.0028803088
2808.3435351562	0.0027975217
2810.2723425292	0.0027884482
2812.2011499022	0.0028476524
2814.1299572753	0.0027425149
2816.0587646483	0.0027624057
2817.9875720214	0.0027830156
2819.9163793944	0.0027397333
2821.8451867675	0.0028275838
2823.7739941405	0.0027603870
2825.7028015136	0.0027738372
2827.6316088866	0.0028611468
2829.5604162597	0.0027773506
2831.4892236327	0.0027722348
2833.4180310058	0.0027495231
2835.3468383788	0.0027642660
2837.2756457519	0.0028188447
2839.2044531249	0.0027717617
2841.1332604979	0.0027737441
2843.0620678710	0.0027133976
2844.9908752440	0.0026219906
2846.9196826171	0.0026277862
2848.8484899901	0.0027416602
2850.7772973632	0.0027197055
2852.7061047362	0.0025070158
2854.6349121093	0.0026088813
2856.5637194823	0.0027355838
2858.4925268554	0.0026502726
2860.4213342284	0.0026294356
2862.3501416015	0.0026212963
2864.2789489745	0.0026310161
2866.2077563476	0.0025887720
2868.1365637206	0.0026209671
2870.0653710936	0.0026430334
2871.9941784667	0.0025854395
2873.9229858397	0.0026771834
2875.8517932128	0.0026563485
2877.7806005858	0.0025746415
2879.7094079589	0.0025518711
2881.6382153319	0.0025437004
2883.5670227050	0.0026006703
2885.4958300780	0.0025423248
2887.4246374511	0.0024940018
2889.3534448241	0.0025007941
2891.2822521972	0.0024744493
2893.2110595702	0.0025114119
2895.1398669433	0.0025311229
2897.0686743163	0.0024448545
2898.9974816893	0.0023510978
2900.9262890624	0.0024058181
2902.8550964354	0.0024476687
2904.7839038085	0.0025035776
2906.7127111815	0.0025853030
2908.6415185546	0.0024119702
2910.5703259276	0.0024151709
2912.4991333007	0.0025235321
2914.4279406737	0.0023522694
2916.3567480468	0.0023072260
2918.2855554198	0.0023398544
2920.2143627929	0.0023758681
2922.1431701659	0.0024427916
2924.0719775390	0.0023965358
2926.0007849120	0.0023242906
2927.9295922851	0.0023693712
2929.8583996581	0.0024661012
2931.7872070311	0.0023637423
2933.7160144042	0.0023507592
2935.6448217772	0.0023636816
2937.5736291503	0.0022951278
2939.5024365233	0.0024446263
2941.4312438964	0.0024319082
2943.3600512694	0.0023374450
2945.2888586425	0.0024310062
2947.2176660155	0.0024788259
2949.1464733886	0.0023321277
2951.0752807616	0.0022511692
2953.0040881347	0.0023189469
2954.9328955077	0.0022532907
2956.8617028808	0.0023064190
2958.7905102538	0.0022697870
2960.7193176268	0.0022341628
2962.6481249999	0.0023811348
2964.5769323729	0.0023045731
2966.5057397460	0.0023252782
2968.4345471190	0.0022813454
2970.3633544921	0.0022340517
2972.2921618651	0.0022655595
2974.2209692382	0.0021640365
2976.1497766112	0.0022886698
2978.0785839843	0.0022518127
2980.0073913573	0.0021973972
2981.9361987304	0.0023244331
2983.8650061034	0.0022162250
2985.7938134765	0.0021390356
2987.7226208495	0.0022183214
2989.6514282225	0.0023045936
2991.5802355956	0.0022829301
2993.5090429686	0.0022509359
2995.4378503417	0.0021970896
2997.3666577147	0.0021719385
2999.2954650878	0.0022398380
3001.2242724608	0.0021977525
3003.1530798339	0.0022289604
3005.0818872069	0.0022518164
3007.0106945800	0.0022439107
3008.9395019530	0.0021521039
3010.8683093261	0.0020378814
3012.7971166991	0.0021866038
3014.7259240722	0.0021227677
3016.6547314452	0.0021723118
3018.5835388182	0.0022992138
3020.5123461913	0.0020658975
3022.4411535643	0.0020848722
3024.3699609374	0.0021494792
3026.2987683104	0.0021167961
3028.2275756835	0.0021255342
3030.1563830565	0.0021198019
3032.0851904296	0.0021065050
3034.0139978026	0.0020607004
3035.9428051757	0.0021255198
3037.8716125487	0.0020392190
3039.8004199218	0.0020413545
3041.7292272948	0.0021230062
3043.6580346679	0.0020239395
3045.5868420409	0.0020380719
3047.5156494139	0.0020904397
3049.4444567870	0.0021602758
3051.3732641600	0.0021222397
3053.3020715331	0.0021031336
3055.2308789061	0.0021148953
3057.1596862792	0.0020839702
3059.0884936522	0.0020492431
3061.0173010253	0.0019248774
3062.9461083983	0.0020177476
3064.8749157714	0.0019819695
3066.8037231444	0.0019685815
3068.7325305175	0.0020870920
3070.6613378905	0.0020376998
3072.5901452636	0.0020861691
3074.5189526366	0.0020077464
3076.4477600097	0.0020127047
3078.3765673827	0.0020371308
3080.3053747557	0.0019694511
3082.2341821288	0.0019514798
3084.1629895018	0.0019155797
3086.0917968749	0.0020266119
3088.0206042479	0.0020418609
3089.9494116210	0.0020154067
3091.8782189940	0.0019198640
3093.8070263671	0.0019095959
3095.7358337401	0.0019556347
3097.6646411132	0.0018498264
3099.5934484862	0.0019043260
3101.5222558593	0.0019157132
3103.4510632323	0.0019528067
3105.3798706054	0.0019392641
3107.3086779784	0.0018660963
3109.2374853514	0.0018506343
3111.1662927245	0.0018877436
3113.0951000975	0.0019815043
3115.0239074706	0.0018758484
3116.9527148436	0.0019356414
3118.8815222167	0.0019529623
3120.8103295897	0.0018551950
3122.7391369628	0.0018535460
3124.6679443358	0.0018875659
3126.5967517089	0.0020137734
3128.5255590819	0.0018893529
3130.4543664550	0.0018271741
3132.3831738280	0.0018690936
3134.3119812011	0.0018553691
3136.2407885741	0.0018284426
3138.1695959471	0.0017844202
3140.0984033202	0.0018395161
3142.0272106932	0.0017999455
3143.9560180663	0.0017813826
3145.8848254393	0.0018041127
3147.8136328124	0.0018187156
3149.7424401854	0.0016509660
3151.6712475585	0.0016466801
3153.6000549315	0.0018313725
3155.5288623046	0.0016926809
3157.4576696776	0.0017687641
3159.3864770507	0.0018147482
3161.3152844237	0.0017638304
3163.2440917968	0.0018056181
3165.1728991698	0.0017383480
3167.1017065428	0.0017689958
3169.0305139159	0.0017255278
3170.9593212889	0.0016832985
3172.8881286620	0.0016921449
3174.8169360350	0.0017818576
3176.7457434081	0.0017952959
3178.6745507811	0.0017668568
3180.6033581542	0.0017980018
3182.5321655272	0.0017135085
3184.4609729003	0.0017729490
3186.3897802733	0.0017050842
3188.3185876464	0.0016999210
3190.2473950194	0.0016892782
3192.1762023925	0.0015446562
3194.1050097655	0.0017219502
3196.0338171386	0.0017264906
3197.9626245116	0.0017154632
3199.8914318846	0.0017875910
3201.8202392577	0.0017443767
3203.7490466307	0.0017701002
3205.6778540038	0.0017411914
3207.6066613768	0.0016767636
3209.5354687499	0.0015956496
3211.4642761229	0.0016900664
3213.3930834960	0.0017356243
3215.3218908690	0.0016498136
3217.2506982421	0.0017060894
3219.1795056151	0.0016779883
3221.1083129882	0.0017039420
3223.0371203612	0.0017747583
3224.9659277343	0.0017421659
3226.8947351073	0.0017105240
3228.8235424803	0.0016414751
3230.7523498534	0.0016623866
3232.6811572264	0.0016914288
3234.6099645995	0.0016574633
3236.5387719725	0.0016603866
3238.4675793456	0.0016703596
3240.3963867186	0.0017064204
3242.3251940917	0.0016827863
3244.2540014647	0.0016791155
3246.1828088378	0.0016245507
3248.1116162108	0.0015939176
3250.0404235839	0.0017306625
3251.9692309569	0.0016503397
3253.8980383300	0.0016528377
3255.8268457030	0.0017467778
3257.7556530760	0.0016787644
3259.6844604491	0.0017029899
3261.6132678221	0.0016786475
3263.5420751952	0.0016830437
3265.4708825682	0.0017150152
3267.3996899413	0.0017305223
3269.3284973143	0.0017325720
3271.2573046874	0.0017262492
3273.1861120604	0.0017394158
3275.1149194335	0.0016840985
3277.0437268065	0.0017302865
3278.9725341796	0.0016945715
3280.9013415526	0.0017467672
3282.8301489257	0.0018007711
3284.7589562987	0.0016635682
3286.6877636717	0.0017714750
3288.6165710448	0.0017960754
3290.5453784178	0.0017365492
3292.4741857909	0.0017416121
3294.4029931639	0.0017536912
3296.3318005370	0.0017528699
3298.2606079100	0.0016793625
3300.1894152831	0.0017717325
3302.1182226561	0.0017408226
3304.0470300292	0.0017287931
3305.9758374022	0.0018407314
3307.9046447753	0.0017983683
3309.8334521483	0.0018289648
3311.7622595214	0.0017983728
3313.6910668944	0.0017342548
3315.6198742675	0.0017679732
3317.5486816405	0.0017913140
3319.4774890135	0.0018066424
3321.4062963866	0.0017648796
3323.3351037596	0.0017726179
3325.2639111327	0.0018371639
3327.1927185057	0.0018586995
3329.1215258788	0.0018667479
3331.0503332518	0.0018240202
3332.9791406249	0.0017877351
3334.9079479979	0.0018529826
3336.8367553710	0.0018482469
3338.7655627440	0.0017898751
3340.6943701171	0.0018767740
3342.6231774901	0.0018927573
3344.5519848632	0.0018377727
3346.4807922362	0.0019256277
3348.4095996092	0.0018623618
3350.3384069823	0.0017163571
3352.2672143553	0.0017840897
3354.1960217284	0.0018690001
3356.1248291014	0.0018598915
3358.0536364745	0.0018255777
3359.9824438475	0.0018458830
3361.9112512206	0.0018370833
3363.8400585936	0.0018688031
3365.7688659667	0.0019437730
3367.6976733397	0.0018422425
3369.6264807128	0.0018218281
3371.5552880858	0.0018918107
3373.4840954589	0.0018799263
3375.4129028319	0.0018068894
3377.3417102049	0.0017736118
3379.2705175780	0.0018776269
3381.1993249510	0.0019201064
3383.1281323241	0.0019539974
3385.0569396971	0.0019175683
3386.9857470702	0.0018858938
3388.9145544432	0.0019758064
3390.8433618163	0.0018588147
3392.7721691893	0.0018266570
3394.7009765624	0.0019568731
3396.6297839354	0.0019742257
3398.5585913085	0.0020328313
3400.4873986815	0.0019847443
3402.4162060546	0.0018918326
3404.3450134276	0.0019842489
3406.2738208006	0.0019892524
3408.2026281737	0.0019788626
3410.1314355467	0.0020334844
3412.0602429198	0.0019716658
3413.9890502928	0.0019577928
3415.9178576659	0.0019743235
3417.8466650389	0.0019617933
3419.7754724120	0.0019739943
3421.7042797850	0.0019750786
3423.6330871581	0.0019594040
3425.5618945311	0.0019683568
3427.4907019042	0.0019875080
3429.4195092772	0.0019315366
3431.3483166503	0.0019594613
3433.2771240233	0.0019944247
3435.2059313963	0.0019929633
3437.1347387694	0.0020470638
3439.0635461424	0.0020260434
3440.9923535155	0.0020084670
3442.9211608885	0.0020033598
3444.8499682616	0.0020820089
3446.7787756346	0.0021024202
3448.7075830077	0.0019999864
3450.6363903807	0.0020340094
3452.5651977538	0.0020275784
3454.4940051268	0.0020221560
3456.4228124999	0.0020285556
3458.3516198729	0.0019663346
3460.2804272460	0.0020050409
3462.2092346190	0.0020369084
3464.1380419921	0.0020231204
3466.0668493651	0.0020145338
3467.9956567381	0.0020462740
3469.9244641112	0.0021130852
3471.8532714842	0.0020978549
3473.7820788573	0.0020720558
3475.7108862303	0.0020522834
3477.6396936034	0.0020521539
3479.5685009764	0.0020923931
3481.4973083495	0.0020527518
3483.4261157225	0.0021005790
3485.3549230956	0.0021672030
3487.2837304686	0.0021174476
3489.2125378417	0.0021149763
3491.1413452147	0.0020624348
3493.0701525878	0.0020396695
3494.9989599608	0.0020890906
3496.9277673338	0.0021234159
3498.8565747069	0.0021079285
3500.7853820799	0.0020750645
3502.7141894530	0.0021598290
3504.6429968260	0.0021550837
3506.5718041991	0.0021107085
3508.5006115721	0.0021035594
3510.4294189452	0.0020387801
3512.3582263182	0.0020620322
3514.2870336913	0.0021363706
3516.2158410643	0.0021011531
3518.1446484374	0.0020839847
3520.0734558104	0.0022301611
3522.0022631835	0.0021544674
3523.9310705565	0.0019912056
3525.8598779295	0.0020535961
3527.7886853026	0.0021063164
3529.7174926756	0.0021522250
3531.6463000487	0.0020851267
3533.5751074217	0.0020743706
3535.5039147948	0.0021621753
3537.4327221678	0.0021443923
3539.3615295409	0.0022346219
3541.2903369139	0.0022170967
3543.2191442870	0.0020658788
3545.1479516600	0.0020728286
3547.0767590331	0.0020918604
3549.0055664061	0.0021693925
3550.9343737792	0.0022625306
3552.8631811522	0.0021170666
3554.7919885252	0.0020706952
3556.7207958983	0.0022098729
3558.6496032713	0.0022073723
3560.5784106444	0.0021220800
3562.5072180174	0.0020881635
3564.4360253905	0.0021469016
3566.3648327635	0.0020723240
3568.2936401366	0.0020041456
3570.2224475096	0.0021456461
3572.1512548827	0.0021574879
3574.0800622557	0.0022063269
3576.0088696288	0.0022149328
3577.9376770018	0.0020584827
3579.8664843749	0.0021390705
3581.7952917479	0.0021649408
3583.7240991210	0.0021063068
3585.6529064940	0.0021106589
3587.5817138670	0.0019852829
3589.5105212401	0.0020295344
3591.4393286131	0.0021650228
3593.3681359862	0.0022310778
3595.2969433592	0.0021358205
3597.2257507323	0.0020057024
3599.1545581053	0.0021338384
3601.0833654784	0.0020838287
3603.0121728514	0.0021003548
3604.9409802245	0.0021674903
3606.8697875975	0.0020529663
3608.7985949706	0.0020531276
3610.7274023436	0.0019940033
3612.6562097167	0.0020165243
3614.5850170897	0.0020164833
3616.5138244627	0.0020176738
3618.4426318358	0.0019497997
3620.3714392088	0.0019450157
3622.3002465819	0.0021614982
3624.2290539549	0.0021670412
3626.1578613280	0.0022517198
3628.0866687010	0.0019068822
3630.0154760741	0.0017564823
3631.9442834471	0.0021515924
3633.8730908202	0.0020063443
3635.8018981932	0.0020285747
3637.7307055663	0.0021188599
3639.6595129393	0.0020833891
3641.5883203124	0.0020836862
3643.5171276854	0.0020974369
3645.4459350584	0.0021013124
3647.3747424315	0.0018694899
3649.3035498045	0.0018587413
3651.2323571776	0.0018938668
3653.1611645506	0.0021212841
3655.0899719237	0.0020998539
3657.0187792967	0.0018486234
3658.9475866698	0.0020504347
3660.8763940428	0.0020860820
3662.8052014159	0.0021144948
3664.7340087889	0.0020280809
3666.6628161620	0.0020268704
3668.5916235350	0.0019222742
3670.5204309081	0.0016908820
3672.4492382811	0.0020034418
3674.3780456541	0.0018367865
3676.3068530272	0.0017025564
3678.2356604002	0.0019527066
3680.1644677733	0.0019972355
3682.0932751463	0.0020269342
3684.0220825194	0.0019843113
3685.9508898924	0.0020790650
3687.8796972655	0.0018751882
3689.8085046385	0.0017429425
3691.7373120116	0.0019385174
3693.6661193846	0.0019294480
3695.5949267577	0.0019984634
3697.5237341307	0.0019921432
3699.4525415038	0.0019521974
3701.3813488768	0.0018610095
3703.3101562499	0.0018223827
3705.2389636229	0.0019153364
3707.1677709959	0.0018284448
3709.0965783690	0.0018531339
3711.0253857420	0.0017375820
3712.9541931151	0.0016608001
3714.8830004881	0.0018005930
3716.8118078612	0.0018379914
3718.7406152342	0.0019142550
3720.6694226073	0.0017534262
3722.5982299803	0.0017984028
3724.5270373534	0.0018930268
3726.4558447264	0.0017123071
3728.3846520995	0.0018469233
3730.3134594725	0.0018159375
3732.2422668456	0.0017003214
3734.1710742186	0.0016659840
3736.0998815916	0.0016475670
3738.0286889647	0.0016682700
3739.9574963377	0.0016862839
3741.8863037108	0.0018727700
3743.8151110838	0.0015102874
3745.7439184569	0.0014124254
3747.6727258299	0.0017857994
3749.6015332030	0.0015875918
3751.5303405760	0.0015763119
3753.4591479491	0.0017021359
3755.3879553221	0.0017835669
3757.3167626952	0.0017951489
3759.2455700682	0.0016814917
3761.1743774413	0.0018108824
3763.1031848143	0.0017442578
3765.0319921873	0.0016985331
3766.9607995604	0.0017488207
3768.8896069334	0.0016089957
3770.8184143065	0.0016718560
3772.7472216795	0.0017562100
3774.6760290526	0.0016988361
3776.6048364256	0.0017123511
3778.5336437987	0.0016516405
3780.4624511717	0.0016537516
3782.3912585448	0.0017850904
3784.3200659178	0.0017983350
3786.2488732909	0.0017279165
3788.1776806639	0.0016444102
3790.1064880370	0.0016668765
3792.0352954100	0.0017296898
3793.9641027830	0.0017294510
3795.8929101561	0.0015758852
3797.8217175291	0.0016591821
3799.7505249022	0.0017643333
3801.6793322752	0.0013942956
3803.6081396483	0.0016006280
3805.5369470213	0.0016426729
3807.4657543944	0.0013799123
3809.3945617674	0.0016457895
3811.3233691405	0.0015926647
3813.2521765135	0.0016985275
3815.1809838866	0.0015029272
3817.1097912596	0.0012939367
3819.0385986327	0.0016548809
3820.9674060057	0.0014597096
3822.8962133787	0.0014412547
3824.8250207518	0.0015702699
3826.7538281248	0.0015386363
3828.6826354979	0.0015924200
3830.6114428709	0.0015385719
3832.5402502440	0.0015455687
3834.4690576170	0.0015457199
3836.3978649901	0.0015319381
3838.3266723631	0.0014074810
3840.2554797362	0.0015206335
3842.1842871092	0.0015555093
3844.1130944823	0.0014171682
3846.0419018553	0.0016240862
3847.9707092284	0.0015814130
3849.8995166014	0.0015281385
3851.8283239745	0.0014632572
3853.7571313475	0.0012016463
3855.6859387205	0.0013688195
3857.6147460936	0.0015719600
3859.5435534666	0.0014660452
3861.4723608397	0.0014542532
3863.4011682127	0.0014723132
3865.3299755858	0.0014481291
3867.2587829588	0.0015385130
3869.1875903319	0.0013864822
3871.1163977049	0.0013452538
3873.0452050780	0.0015365301
3874.9740124510	0.0014215182
3876.9028198241	0.0014446115
3878.8316271971	0.0014369453
3880.7604345702	0.0013700766
3882.6892419432	0.0015436364
3884.6180493162	0.0014181868
3886.5468566893	0.0013465866
3888.4756640623	0.0014975653
3890.4044714354	0.0013732752
3892.3332788084	0.0013055271
3894.2620861815	0.0014571964
3896.1908935545	0.0015244157
3898.1197009276	0.0013993044
3900.0485083006	0.0012797315
3901.9773156737	0.0013902050
3903.9061230467	0.0013777490
3905.8349304198	0.0012761261
3907.7637377928	0.0014182217
3909.6925451659	0.0014859439
3911.6213525389	0.0014608495
3913.5501599119	0.0014591307
3915.4789672850	0.0014384289
3917.4077746580	0.0014137159
3919.3365820311	0.0013774962
3921.2653894041	0.0014279343
3923.1941967772	0.0014518398
3925.1230041502	0.0014322953
3927.0518115233	0.0014013152
3928.9806188963	0.0013770808
3930.9094262694	0.0014636475
3932.8382336424	0.0014589410
3934.7670410155	0.0013672102
3936.6958483885	0.0013623938
3938.6246557616	0.0013867912
3940.5534631346	0.0014078094
3942.4822705076	0.0014225002
3944.4110778807	0.0013838599
3946.3398852537	0.0013465774
3948.2686926268	0.0013338712
3950.1974999998	0.0012866114
3952.1263073729	0.0013702604
3954.0551147459	0.0014531880
3955.9839221190	0.0013823938
3957.9127294920	0.0014049611
3959.8415368651	0.0014287781
3961.7703442381	0.0014155584
3963.6991516112	0.0014334981
3965.6279589842	0.0014149712
3967.5567663573	0.0013548550
3969.4855737303	0.0013251033
3971.4143811034	0.0013689128
3973.3431884764	0.0013507748
3975.2719958494	0.0014204367
3977.2008032225	0.0013894050
3979.1296105955	0.0012848114
3981.0584179686	0.0014043021
3982.9872253416	0.0012882750
3984.9160327147	0.0012616250
3986.8448400877	0.0013444559
3988.7736474608	0.0012597933
3990.7024548338	0.0013718209
3992.6312622069	0.0013352204
3994.5600695799	0.0013046509
3996.4888769530	0.0013331538
3998.4176843260	0.0012544324
4000.3464916991	0.0013609575
4002.2752990721	0.0013372240
4004.2041064451	0.0012461405
4006.1329138182	0.0012829351
4008.0617211912	0.0012758535
4009.9905285643	0.0012247348
4011.9193359373	0.0012501080
4013.8481433104	0.0013067721
4015.7769506834	0.0012538468
4017.7057580565	0.0013163437
4019.6345654295	0.0013402235
4021.5633728026	0.0011812812
4023.4921801756	0.0011497661
4025.4209875487	0.0012446963
4027.3497949217	0.0013057778
4029.2786022948	0.0012892322
4031.2074096678	0.0012783844
4033.1362170408	0.0012205602
4035.0650244139	0.0012099482
4036.9938317869	0.0012938193
4038.9226391600	0.0012546574
4040.8514465330	0.0012308966
4042.7802539061	0.0012466831
4044.7090612791	0.0012373345
4046.6378686522	0.0012293113
4048.5666760252	0.0011880253
4050.4954833983	0.0011898021
4052.4242907713	0.0012023535
4054.3530981444	0.0012294456
4056.2819055174	0.0012493089
4058.2107128905	0.0012438272
4060.1395202635	0.0011925221
4062.0683276365	0.0011762860
4063.9971350096	0.0013025753
4065.9259423826	0.0012598599
4067.8547497557	0.0012328424
4069.7835571287	0.0012863881
4071.7123645018	0.0011782991
4073.6411718748	0.0011874568
4075.5699792479	0.0011839233
4077.4987866209	0.0011416322
4079.4275939940	0.0011691123
4081.3564013670	0.0012014562
4083.2852087401	0.0011875369
4085.2140161131	0.0011553435
4087.1428234862	0.0012768700
4089.0716308592	0.0011800495
4091.0004382323	0.0010811964
4092.9292456053	0.0011910306
4094.8580529783	0.0011433127
4096.7868603514	0.0012041002
4098.7156677244	0.0012377118
4100.6444750975	0.0011193920
4102.5732824705	0.0011509710
4104.5020898436	0.0012455013
4106.4308972166	0.0011978871
4108.3597045897	0.0011435368
4110.2885119627	0.0011719428
4112.2173193358	0.0010973627
4114.1461267088	0.0010914691
4116.0749340819	0.0011436051
4118.0037414549	0.0011547818
4119.9325488280	0.0011375486
4121.8613562010	0.0010871351
4123.7901635740	0.0011545068
4125.7189709471	0.0011122935
4127.6477783201	0.0010386808
4129.5765856932	0.0010838038
4131.5053930662	0.0010659448
4133.4342004393	0.0010770527
4135.3630078123	0.0011103282
4137.2918151854	0.0011281888
4139.2206225584	0.0011428106
4141.1494299315	0.0011126364
4143.0782373045	0.0010710792
4145.0070446776	0.0010977000
4146.9358520506	0.0011281073
4148.8646594237	0.0010981564
4150.7934667967	0.0010909135
4152.7222741697	0.0011102642
4154.6510815428	0.0011582706
4156.5798889158	0.0011416522
4158.5086962889	0.0010782999
4160.4375036619	0.0010792937
4162.3663110350	0.0010641019
4164.2951184080	0.0010609713
4166.2239257811	0.0011077736
4168.1527331541	0.0011088350
4170.0815405272	0.0010324814
4172.0103479002	0.0010408736
4173.9391552733	0.0011096419
4175.8679626463	0.0010614903
4177.7967700194	0.0010629824
4179.7255773924	0.0010838374
4181.6543847654	0.0010488373
4183.5831921385	0.0010771314
4185.5119995115	0.0010532830
4187.4408068846	0.0010865424
4189.3696142576	0.0010628505
4191.2984216307	0.0009398634
4193.2272290037	0.0010482604
4195.1560363768	0.0010848291
4197.0848437498	0.0010643068
4199.0136511229	0.0010828078
4200.9424584959	0.0010632288
4202.8712658690	0.0011338764
4204.8000732420	0.0010281345
4206.7288806151	0.0009806482
4208.6576879881	0.0010269699
4210.5864953611	0.0010049455
4212.5153027342	0.0010266777
4214.4441101072	0.0009443235
4216.3729174803	0.0010507675
4218.3017248533	0.0010672440
4220.2305322264	0.0009667088
4222.1593395994	0.0011325376
4224.0881469725	0.0010437637
4226.0169543455	0.0009633369
4227.9457617186	0.0010892584
4229.8745690916	0.0010280650
4231.8033764647	0.0009902923
4233.7321838377	0.0010543104
4235.6609912108	0.0010582083
4237.5897985838	0.0009853588
4239.5186059569	0.0010006133
4241.4474133299	0.0010321236
4243.3762207029	0.0010001076
4245.3050280760	0.0010572495
4247.2338354490	0.0010116026
4249.1626428221	0.0009447342
4251.0914501951	0.0010060482
4253.0202575682	0.0009924438
4254.9490649412	0.0009901691
4256.8778723143	0.0010091579
4258.8066796873	0.0010134423
4260.7354870604	0.0009877805
4262.6642944334	0.0009415902
4264.5931018065	0.0009787130
4266.5219091795	0.0009402595
4268.4507165526	0.0009431459
4270.3795239256	0.0009788644
4272.3083312986	0.0009360308
4274.2371386717	0.0009882366
4276.1659460447	0.0009609700
4278.0947534178	0.0009469283
4280.0235607908	0.0009812372
4281.9523681639	0.0008834327
4283.8811755369	0.0008916027
4285.8099829100	0.0009751223
4287.7387902830	0.0009658325
4289.6675976561	0.0009751174
4291.5964050291	0.0009903308
4293.5252124022	0.0008916561
4295.4540197752	0.0008977934
4297.3828271483	0.0009760226
4299.3116345213	0.0009083434
4301.2404418943	0.0009570239
4303.1692492674	0.0009551016
4305.0980566404	0.0008606012
4307.0268640135	0.0009880748
4308.9556713865	0.0009826720
4310.8844787596	0.0008867105
4312.8132861326	0.0009720680
4314.7420935057	0.0009542059
4316.6709008787	0.0009285531
4318.5997082518	0.0009834371
4320.5285156248	0.0009098892
4322.4573229979	0.0008942267
4324.3861303709	0.0009662354
4326.3149377440	0.0009324449
4328.2437451170	0.0008946520
4330.1725524900	0.0008927494
4332.1013598631	0.0009268272
4334.0301672361	0.0009675965
4335.9589746092	0.0009119957
4337.8877819822	0.0009218084
4339.8165893553	0.0009520866
4341.7453967283	0.0008724832
4343.6742041014	0.0008468518
4345.6030114744	0.0008652739
4347.5318188475	0.0008826561
4349.4606262205	0.0008602974
4351.3894335936	0.0008647241
4353.3182409666	0.0008957292
4355.2470483397	0.0008699051
4357.1758557127	0.0008897983
4359.1046630858	0.0008651081
4361.0334704588	0.0009551332
4362.9622778318	0.0009846026
4364.8910852049	0.0008498630
4366.8198925779	0.0009541832
4368.7486999510	0.0008965368
4370.6775073240	0.0008062915
4372.6063146971	0.0009135939
4374.5351220701	0.0009127047
4376.4639294432	0.0009208594
4378.3927368162	0.0008560368
4380.3215441893	0.0008526149
4382.2503515623	0.0008755121
4384.1791589354	0.0008406152
4386.1079663084	0.0009186880
4388.0367736815	0.0009081319
4389.9655810545	0.0008548299
4391.8943884275	0.0008181394
4393.8231958006	0.0008604396
4395.7520031736	0.0008797857
4397.6808105467	0.0007522599
4399.6096179197	0.0008001811
4401.5384252928	0.0008101753
4403.4672326658	0.0007362018
4405.3960400389	0.0008429899
4407.3248474119	0.0008191747
4409.2536547850	0.0007228157
4411.1824621580	0.0007988541
4413.1112695311	0.0008495835
4415.0400769041	0.0008107616
4416.9688842772	0.0008093080
4418.8976916502	0.0008504769
4420.8264990232	0.0008139978
4422.7553063963	0.0007727292
4424.6841137693	0.0008073919
4426.6129211424	0.0008391216
4428.5417285154	0.0008657886
4430.4705358885	0.0008062272
4432.3993432615	0.0007836890
4434.3281506346	0.0008312016
4436.2569580076	0.0008209969
4438.1857653807	0.0008266036
4440.1145727537	0.0007761871
4442.0433801268	0.0007981425
4443.9721874998	0.0008369130
4445.9009948729	0.0007922043
4447.8298022459	0.0008257274
4449.7586096189	0.0008142415
4451.6874169920	0.0007862112
4453.6162243650	0.0007966605
4455.5450317381	0.0008320060
4457.4738391111	0.0008116054
4459.4026464842	0.0008161342
4461.3314538572	0.0008376163
4463.2602612303	0.0007200856
4465.1890686033	0.0007785846
4467.1178759764	0.0008029428
4469.0466833494	0.0007713552
4470.9754907225	0.0008114531
4472.9042980955	0.0007730827
4474.8331054686	0.0008296940
4476.7619128416	0.0007387740
4478.6907202147	0.0007747539
4480.6195275877	0.0008182824
4482.5483349607	0.0006794144
4484.4771423338	0.0008495435
4486.4059497068	0.0007888540
4488.3347570799	0.0006842404
4490.2635644529	0.0007757203
4492.1923718260	0.0007364708
4494.1211791990	0.0007871288
4496.0499865721	0.0007572531
4497.9787939451	0.0007552847
4499.9076013182	0.0007380254
4501.8364086912	0.0006755049
4503.7652160643	0.0007592681
4505.6940234373	0.0007108171
4507.6228308104	0.0007139648
4509.5516381834	0.0007592492
4511.4804455564	0.0006960824
4513.4092529295	0.0007028072
4515.3380603025	0.0006993361
4517.2668676756	0.0007087003
4519.1956750486	0.0007321716
4521.1244824217	0.0006997482
4523.0532897947	0.0007218019
4524.9820971678	0.0007579144
4526.9109045408	0.0006748575
4528.8397119139	0.0006476009
4530.7685192869	0.0007284764
4532.6973266600	0.0007082691
4534.6261340330	0.0007150237
4536.5549414061	0.0007769121
4538.4837487791	0.0007211646
4540.4125561521	0.0007234908
4542.3413635252	0.0007590527
4544.2701708982	0.0007035327
4546.1989782713	0.0007664128
4548.1277856443	0.0007465164
4550.0565930174	0.0006176980
4551.9854003904	0.0007223953
4553.9142077635	0.0007583116
4555.8430151365	0.0006755079
4557.7718225096	0.0006939170
4559.7006298826	0.0006912033
4561.6294372557	0.0007318981
4563.5582446287	0.0007506157
4565.4870520018	0.0007151207
4567.4158593748	0.0007328540
4569.3446667478	0.0006847504
4571.2734741209	0.0006663838
4573.2022814939	0.0006987000
4575.1310888670	0.0006623091
4577.0598962400	0.0006528056
4578.9887036131	0.0006427566
4580.9175109861	0.0006322685
4582.8463183592	0.0006805613
4584.7751257322	0.0007138430
4586.7039331053	0.0006596646
4588.6327404783	0.0006347763
4590.5615478514	0.0006622660
4592.4903552244	0.0006344373
4594.4191625975	0.0006926506
4596.3479699705	0.0006959487
4598.2767773435	0.0006701480
4600.2055847166	0.0007058459
4602.1343920896	0.0006444145
4604.0631994627	0.0007024264
4605.9920068357	0.0006688342
4607.9208142088	0.0006232843
4609.8496215818	0.0007158174
4611.7784289549	0.0006775475
4613.7072363279	0.0006754056
4615.6360437010	0.0006040302
4617.5648510740	0.0006393059
4619.4936584471	0.0006897122
4621.4224658201	0.0005678848
4623.3512731932	0.0006152380
4625.2800805662	0.0006171155
4627.2088879393	0.0006374295
4629.1376953123	0.0006493079
4631.0665026853	0.0006527443
4632.9953100584	0.0007229543
4634.9241174314	0.0006141083
4636.8529248045	0.0006304811
4638.7817321775	0.0006683654
4640.7105395506	0.0006607326
4642.6393469236	0.0007237878
4644.5681542967	0.0006488221
4646.4969616697	0.0006287083
4648.4257690428	0.0006496029
4650.3545764158	0.0006246852
4652.2833837889	0.0006202471
4654.2121911619	0.0005828227
4656.1409985350	0.0006035470
4658.0698059080	0.0006715576
4659.9986132810	0.0006449226
4661.9274206541	0.0005698591
4663.8562280271	0.0005669277
4665.7850354002	0.0006580383
4667.7138427732	0.0006673278
4669.6426501463	0.0006057058
4671.5714575193	0.0006750959
4673.5002648924	0.0006527400
4675.4290722654	0.0005811490
4677.3578796385	0.0006269887
4679.2866870115	0.0006579990
4681.2154943846	0.0006479730
4683.1443017576	0.0005828445
4685.0731091307	0.0006213675
4687.0019165037	0.0006264277
4688.9307238767	0.0005822340
4690.8595312498	0.0006656295
4692.7883386228	0.0006313287
4694.7171459959	0.0005633543
4696.6459533689	0.0006093859
4698.5747607420	0.0005962447
4700.5035681150	0.0005007555
4702.4323754881	0.0005544822
4704.3611828611	0.0005921545
4706.2899902342	0.0005565417
4708.2187976072	0.0006954696
4710.1476049803	0.0006449221
4712.0764123533	0.0005376643
4714.0052197264	0.0005919650
4715.9340270994	0.0005420419
4717.8628344724	0.0005679905
4719.7916418455	0.0005967976
4721.7204492185	0.0005030321
4723.6492565916	0.0005575214
4725.5780639646	0.0006301269
4727.5068713377	0.0005517784
4729.4356787107	0.0006076287
4731.3644860838	0.0006405783
4733.2932934568	0.0005657393
4735.2221008299	0.0006124605
4737.1509082029	0.0005638046
4739.0797155760	0.0005571961
4741.0085229490	0.0006293034
4742.9373303221	0.0005852444
4744.8661376951	0.0006124830
4746.7949450682	0.0006341126
4748.7237524412	0.0005793378
4750.6525598142	0.0005856946
4752.5813671873	0.0005850145
4754.5101745603	0.0004989090
4756.4389819334	0.0004710208
4758.3677893064	0.0005465794
4760.2965966795	0.0006040464
4762.2254040525	0.0005773983
4764.1542114256	0.0005123211
4766.0830187986	0.0005267521
4768.0118261717	0.0005925693
4769.9406335447	0.0005721648
4771.8694409178	0.0005425972
4773.7982482908	0.0005967591
4775.7270556639	0.0005576548
4777.6558630369	0.0005313607
4779.5846704099	0.0005295070
4781.5134777830	0.0005098587
4783.4422851560	0.0005963225
4785.3710925291	0.0005441552
4787.2998999021	0.0005232325
4789.2287072752	0.0005420289
4791.1575146482	0.0005181672
4793.0863220213	0.0005660991
4795.0151293943	0.0004770991
4796.9439367674	0.0004903037
4798.8727441404	0.0005304568
4800.8015515135	0.0005424008
4802.7303588865	0.0006039654
4804.6591662596	0.0005255513
4806.5879736326	0.0005257356
4808.5167810056	0.0005239149
4810.4455883787	0.0005076107
4812.3743957517	0.0005738734
4814.3032031248	0.0005711212
4816.2320104978	0.0005439963
4818.1608178709	0.0005805937
4820.0896252439	0.0005611280
4822.0184326170	0.0004971170
4823.9472399900	0.0005553227
4825.8760473631	0.0005515972
4827.8048547361	0.0005365157
4829.7336621092	0.0005356882
4831.6624694822	0.0005366090
4833.5912768553	0.0005306697
4835.5200842283	0.0004058170
4837.4488916013	0.0004864513
4839.3776989744	0.0005376798
4841.3065063474	0.0004967813
4843.2353137205	0.0005736656
4845.1641210935	0.0005461369
4847.0929284666	0.0005093829
4849.0217358396	0.0004957203
4850.9505432127	0.0005197182
4852.8793505857	0.0005011293
4854.8081579588	0.0004736802
4856.7369653318	0.0005227707
4858.6657727049	0.0004911989
4860.5945800779	0.0004579302
4862.5233874510	0.0004808473
4864.4521948240	0.0005114623
4866.3810021971	0.0004707273
4868.3098095701	0.0004616171
4870.2386169431	0.0005001579
4872.1674243162	0.0004790435
4874.0962316892	0.0004687803
4876.0250390623	0.0005219258
4877.9538464353	0.0005081465
4879.8826538084	0.0004159317
4881.8114611814	0.0005233828
4883.7402685545	0.0005126738
4885.6690759275	0.0004030172
4887.5978833006	0.0004482483
4889.5266906736	0.0004388039
4891.4554980467	0.0004837197
4893.3843054197	0.0004534947
4895.3131127928	0.0005055896
4897.2419201658	0.0005775830
4899.1707275388	0.0004683969
4901.0995349119	0.0004639068
4903.0283422849	0.0004667658
4904.9571496580	0.0005125948
4906.8859570310	0.0004465739
4908.8147644041	0.0004040888
4910.7435717771	0.0005250203
4912.6723791502	0.0004735888
4914.6011865232	0.0004389795
4916.5299938963	0.0004207208
4918.4588012693	0.0004449766
4920.3876086424	0.0005077276
4922.3164160154	0.0004506864
4924.2452233885	0.0004276536
4926.1740307615	0.0004423282
4928.1028381345	0.0004640010
4930.0316455076	0.0004548046
4931.9604528806	0.0004419068
4933.8892602537	0.0004575857
4935.8180676267	0.0004334188
4937.7468749998	0.0004314766
4939.6756823728	0.0004891411
4941.6044897459	0.0005047151
4943.5332971189	0.0004800919
4945.4621044920	0.0004965024
4947.3909118650	0.0004686345
4949.3197192381	0.0004140731
4951.2485266111	0.0004539348
4953.1773339842	0.0005420381
4955.1061413572	0.0004912424
4957.0349487302	0.0003826239
4958.9637561033	0.0004464289
4960.8925634763	0.0004989138
4962.8213708494	0.0004542485
4964.7501782224	0.0004487937
4966.6789855955	0.0004671853
4968.6077929685	0.0004577940
4970.5366003416	0.0004536814
4972.4654077146	0.0004784850
4974.3942150877	0.0004510555
4976.3230224607	0.0004212944
4978.2518298338	0.0004576501
4980.1806372068	0.0004419922
4982.1094445799	0.0003776092
4984.0382519529	0.0004120370
4985.9670593259	0.0004582666
4987.8958666990	0.0004493733
4989.8246740720	0.0004358423
4991.7534814451	0.0003977710
4993.6822888181	0.0003917884
4995.6110961912	0.0003914910
4997.5399035642	0.0003792805
4999.4687109373	0.0003631999
5001.3975183103	0.0003893281
5003.3263256834	0.0004474120
5005.2551330564	0.0004572487
5007.1839404295	0.0004617867
5009.1127478025	0.0003804934
5011.0415551756	0.0003949041
5012.9703625486	0.0004531937
5014.8991699217	0.0003354988
5016.8279772947	0.0003861304
5018.7567846677	0.0004320367
5020.6855920408	0.0003599551
5022.6143994138	0.0004498088
5024.5432067869	0.0004589865
5026.4720141599	0.0004057931
5028.4008215330	0.0004415461
5030.3296289060	0.0003926423
5032.2584362791	0.0003389941
5034.1872436521	0.0003689612
5036.1160510252	0.0003937739
5038.0448583982	0.0004168662
5039.9736657713	0.0003718734
5041.9024731443	0.0003738344
5043.8312805174	0.0004705340
5045.7600878904	0.0004151978
5047.6888952634	0.0003433740
5049.6177026365	0.0003557431
5051.5465100095	0.0003692674
5053.4753173826	0.0003581884
5055.4041247556	0.0003616134
5057.3329321287	0.0004064292
5059.2617395017	0.0003464946
5061.1905468748	0.0003983477
5063.1193542478	0.0004481564
5065.0481616209	0.0003408124
5066.9769689939	0.0003937591
5068.9057763670	0.0003992609
5070.8345837400	0.0003906935
5072.7633911131	0.0004318985
5074.6921984861	0.0003977785
5076.6210058591	0.0003835651
5078.5498132322	0.0003357878
5080.4786206052	0.0004010136
5082.4074279783	0.0003833708
5084.3362353513	0.0003017068
5086.2650427244	0.0003754623
5088.1938500974	0.0003533747
5090.1226574705	0.0003609065
5092.0514648435	0.0003248722
5093.9802722166	0.0002981708
5095.9090795896	0.0003960916
5097.8378869627	0.0003766400
5099.7666943357	0.0003859795
5101.6955017088	0.0003621339
5103.6243090818	0.0003402476
5105.5531164548	0.0004366707
5107.4819238279	0.0004306386
5109.4107312009	0.0003798212
5111.3395385740	0.0003763779
5113.2683459470	0.0003886289
5115.1971533201	0.0004182502
5117.1259606931	0.0004180962
5119.0547680662	0.0003725655
5120.9835754392	0.0003467987
5122.9123828123	0.0003075955
5124.8411901853	0.0003186150
5126.7699975584	0.0003811367
5128.6988049314	0.0003393475
5130.6276123045	0.0003436951
5132.5564196775	0.0003580245
5134.4852270506	0.0003220479
5136.4140344236	0.0003723809
5138.3428417966	0.0003744916
5140.2716491697	0.0003286167
5142.2004565427	0.0003709742
5144.1292639158	0.0004215422
5146.0580712888	0.0003981667
5147.9868786619	0.0003685531
5149.9156860349	0.0003484542
5151.8444934080	0.0003271317
5153.7733007810	0.0003075847
5155.7021081541	0.0003304993
5157.6309155271	0.0003672563
5159.5597229002	0.0003109325
5161.4885302732	0.0002974892
5163.4173376463	0.0003375035
5165.3461450193	0.0003850780
5167.2749523923	0.0003814246
5169.2037597654	0.0003358714
5171.1325671384	0.0004186594
5173.0613745115	0.0004126057
5174.9901818845	0.0003398468
5176.9189892576	0.0003097498
5178.8477966306	0.0002914135
5180.7766040037	0.0003600372
5182.7054113767	0.0003478652
5184.6342187498	0.0003293060
5186.5630261228	0.0003419778
5188.4918334959	0.0003311540
5190.4206408689	0.0003443988
5192.3494482420	0.0003261088
5194.2782556150	0.0003308487
5196.2070629880	0.0002923541
5198.1358703611	0.0002907257
5200.0646777341	0.0003703717
5201.9934851072	0.0003912444
5203.9222924802	0.0003858825
5205.8510998533	0.0003268653
5207.7799072263	0.0002967432
5209.7087145994	0.0003305164
5211.6375219724	0.0003690440
5213.5663293455	0.0003669332
5215.4951367185	0.0003076381
5217.4239440916	0.0003434742
5219.3527514646	0.0003416596
5221.2815588377	0.0003006084
5223.2103662107	0.0003365798
5225.1391735837	0.0003152831
5227.0679809568	0.0003469154
5228.9967883298	0.0003624305
5230.9255957029	0.0003405329
5232.8544030759	0.0003412273
5234.7832104490	0.0002553927
5236.7120178220	0.0003063245
5238.6408251951	0.0003751726
5240.5696325681	0.0003387027
5242.4984399412	0.0003633074
5244.4272473142	0.0003317329
5246.3560546873	0.0002895630
5248.2848620603	0.0002811874
5250.2136694334	0.0003086245
5252.1424768064	0.0003802663
5254.0712841795	0.0003249336
5256.0000915525	0.0002375560
5257.9288989255	0.0002979072
5259.8577062986	0.0003040317
5261.7865136716	0.0002305030
5263.7153210447	0.0002603955
5265.6441284177	0.0002972065
5267.5729357908	0.0003359327
5269.5017431638	0.0003325903
5271.4305505369	0.0003091250
5273.3593579099	0.0003193045
5275.2881652830	0.0002775547
5277.2169726560	0.0002978760
5279.1457800291	0.0002858925
5281.0745874021	0.0002799335
5283.0033947752	0.0003038505
5284.9322021482	0.0002832683
5286.8610095212	0.0003577701
5288.7898168943	0.0003394340
5290.7186242673	0.0002770731
5292.6474316404	0.0003014291
5294.5762390134	0.0003146745
5296.5050463865	0.0003147611
5298.4338537595	0.0002744259
5300.3626611326	0.0002646542
5302.2914685056	0.0002969256
5304.2202758787	0.0002943006
5306.1490832517	0.0002802947
5308.0778906248	0.0003263464
5310.0066979978	0.0003333436
5311.9355053709	0.0002996353
5313.8643127439	0.0002908899
5315.7931201169	0.0002757406
5317.7219274900	0.0002877741
5319.6507348630	0.0002442083
5321.5795422361	0.0002641826
5323.5083496091	0.0003128316
5325.4371569822	0.0002611702
5327.3659643552	0.0002915751
5329.2947717283	0.0003150053
5331.2235791013	0.0002664002
5333.1523864744	0.0002918771
5335.0811938474	0.0003420257
5337.0100012205	0.0002964057
5338.9388085935	0.0002972927
5340.8676159666	0.0003119305
5342.7964233396	0.0002846837
5344.7252307126	0.0002892184
5346.6540380857	0.0002524786
5348.5828454587	0.0003319172
5350.5116528318	0.0003368976
5352.4404602048	0.0002339436
5354.3692675779	0.0002725109
5356.2980749509	0.0002910132
5358.2268823240	0.0002909025
5360.1556896970	0.0002906387
5362.0844970701	0.0003043489
5364.0133044431	0.0002716103
5365.9421118162	0.0002844781
5367.8709191892	0.0003475128
5369.7997265623	0.0002594891
5371.7285339353	0.0002205569
5373.6573413083	0.0002536573
5375.5861486814	0.0002833824
5377.5149560544	0.0002546834
5379.4437634275	0.0002681893
5381.3725708005	0.0003065369
5383.3013781736	0.0002748925
5385.2301855466	0.0003009607
5387.1589929197	0.0002425661
5389.0878002927	0.0002764125
5391.0166076658	0.0003132085
5392.9454150388	0.0002478187
5394.8742224119	0.0002518257
5396.8030297849	0.0002049189
5398.7318371580	0.0002447497
5400.6606445310	0.0002904283
5402.5894519041	0.0002849335
5404.5182592771	0.0002163783
5406.4470666501	0.0002263264
5408.3758740232	0.0002850743
5410.3046813962	0.0001327217
5412.2334887693	0.0001788879
5414.1622961423	0.0002639125
5416.0911035154	0.0002392604
5418.0199108884	0.0002682678
5419.9487182615	0.0002509580
5421.8775256345	0.0002632133
5423.8063330076	0.0002708078
5425.7351403806	0.0002413821
5427.6639477537	0.0001597520
5429.5927551267	0.0002415447
5431.5215624998	0.0003108102
5433.4503698728	0.0002429142
5435.3791772458	0.0002701211
5437.3079846189	0.0002447786
5439.2367919919	0.0002378833
5441.1655993650	0.0002253017
5443.0944067380	0.0002142490
5445.0232141111	0.0001772695
5446.9520214841	0.0001799708
5448.8808288572	0.0002624467
5450.8096362302	0.0002232689
5452.7384436033	0.0002376011
5454.6672509763	0.0002040766
5456.5960583494	0.0002159873
5458.5248657224	0.0002370335
5460.4536730955	0.0001537717
5462.3824804685	0.0001923684
5464.3112878415	0.0002265816
5466.2400952146	0.0002734085
5468.1689025876	0.0002899379
5470.0977099607	0.0002946105
5472.0265173337	0.0002341762
5473.9553247068	0.0001995535
5475.8841320798	0.0002406287
5477.8129394529	0.0002024652
5479.7417468259	0.0002733112
5481.6705541990	0.0002315514
5483.5993615720	0.0002012169
5485.5281689451	0.0002089233
5487.4569763181	0.0001915770
5489.3857836912	0.0002862188
5491.3145910642	0.0002180674
5493.2433984372	0.0002052017
5495.1722058103	0.0002160460
5497.1010131833	0.0002179831
5499.0298205564	0.0002301772
5500.9586279294	0.0002008699
5502.8874353025	0.0002711879
5504.8162426755	0.0002264798
5506.7450500486	0.0001950018
5508.6738574216	0.0001655581
5510.6026647947	0.0001699159
5512.5314721677	0.0002608579
5514.4602795408	0.0002527734
5516.3890869138	0.0002076137
5518.3178942869	0.0001528615
5520.2467016599	0.0002278654
5522.1755090330	0.0002437616
5524.1043164060	0.0002155933
5526.0331237790	0.0002473746
5527.9619311521	0.0002157599
5529.8907385251	0.0001859189
5531.8195458982	0.0001453549
5533.7483532712	0.0002248044
5535.6771606443	0.0002229080
5537.6059680173	0.0002260945
5539.5347753904	0.0002954427
5541.4635827634	0.0001965066
5543.3923901365	0.0002191178
5545.3211975095	0.0002203979
5547.2500048826	0.0002530832
5549.1788122556	0.0002996715
5551.1076196287	0.0001796346
5553.0364270017	0.0002577878
5554.9652343747	0.0002616050
5556.8940417478	0.0001755428
5558.8228491208	0.0002436776
5560.7516564939	0.0002277241
5562.6804638669	0.0002332957
5564.6092712400	0.0002355638
5566.5380786130	0.0001927846
5568.4668859861	0.0002120322
5570.3956933591	0.0002347588
5572.3245007322	0.0002194777
5574.2533081052	0.0001776248
5576.1821154783	0.0002808605
5578.1109228513	0.0002767997
5580.0397302244	0.0001783927
5581.9685375974	0.0002553675
5583.8973449704	0.0002060308
5585.8261523435	0.0002016836
5587.7549597165	0.0002306699
5589.6837670896	0.0002012738
5591.6125744626	0.0002435932
5593.5413818357	0.0001729122
5595.4701892087	0.0002006025
5597.3989965818	0.0002429543
5599.3278039548	0.0001932105
5601.2566113279	0.0002447191
5603.1854187009	0.0002468589
5605.1142260740	0.0002037141
5607.0430334470	0.0002504662
5608.9718408201	0.0002443475
5610.9006481931	0.0002158673
5612.8294555661	0.0002805192
5614.7582629392	0.0001970518
5616.6870703122	0.0001758415
5618.6158776853	0.0002481125
5620.5446850583	0.0001925354
5622.4734924314	0.0001569090
5624.4022998044	0.0001373194
5626.3311071775	0.0001980347
5628.2599145505	0.0001989315
5630.1887219236	0.0001945153
5632.1175292966	0.0001976679
5634.0463366697	0.0001498414
5635.9751440427	0.0001953614
5637.9039514158	0.0001903078
5639.8327587888	0.0002172193
5641.7615661619	0.0001791932
5643.6903735349	0.0001800948
5645.6191809079	0.0002012608
5647.5479882810	0.0001249505
5649.4767956540	0.0002080940
5651.4056030271	0.0001932682
5653.3344104001	0.0002115343
5655.2632177732	0.0002540976
5657.1920251462	0.0001224494
5659.1208325193	0.0001469929
5661.0496398923	0.0002599868
5662.9784472654	0.0001738400
5664.9072546384	0.0001116247
5666.8360620115	0.0002160030
5668.7648693845	0.0002066031
5670.6936767576	0.0002432255
5672.6224841306	0.0001912251
5674.5512915036	0.0001314430
5676.4800988767	0.0002202007
5678.4089062497	0.0001518537
5680.3377136228	0.0001729351
5682.2665209958	0.0001647027
5684.1953283689	0.0001922019
5686.1241357419	0.0002069268
5688.0529431150	0.0001684361
5689.9817504880	0.0002488068
5691.9105578611	0.0001821288
5693.8393652341	0.0002096048
5695.7681726072	0.0001746874
5697.6969799802	0.0002057181
5699.6257873533	0.0002580654
5701.5545947263	0.0001469854
5703.4834020993	0.0002404953
5705.4122094724	0.0001856803
5707.3410168454	0.0002063224
5709.2698242185	0.0002493422
5711.1986315915	0.0001693208
5713.1274389646	0.0001885450
5715.0562463376	0.0001124340
5716.9850537107	0.0001790458
5718.9138610837	0.0002229422
5720.8426684568	0.0001604948
5722.7714758298	0.0001680012
5724.7002832029	0.0001913683
5726.6290905759	0.0001734214
5728.5578979490	0.0001738498
5730.4867053220	0.0002085183
5732.4155126950	0.0001479864
5734.3443200681	0.0002119306
5736.2731274411	0.0002224198
5738.2019348142	0.0002065181
5740.1307421872	0.0002429184
5742.0595495603	0.0001711889
5743.9883569333	0.0002029478
5745.9171643064	0.0002116860
5747.8459716794	0.0002227833
5749.7747790525	0.0001982635
5751.7035864255	0.0001665363
5753.6323937986	0.0001559485
5755.5612011716	0.0000916229
5757.4900085447	0.0001652556
5759.4188159177	0.0001854754
5761.3476232907	0.0001733770
5763.2764306638	0.0001919151
5765.2052380368	0.0001719562
5767.1340454099	0.0001165542
5769.0628527829	0.0001493719
5770.9916601560	0.0002314423
5772.9204675290	0.0001511734
5774.8492749021	0.0001854134
5776.7780822751	0.0001487898
5778.7068896482	0.0001165421
5780.6356970212	0.0001984504
5782.5645043943	0.0001156238
5784.4933117673	0.0001783905
5786.4221191404	0.0001899887
5788.3509265134	0.0001432454
5790.2797338865	0.0001876150
5792.2085412595	0.0001662851
5794.1373486325	0.0001938996
5796.0661560056	0.0001724814
5797.9949633786	0.0001755455
5799.9237707517	0.0001821520
5801.8525781247	0.0001360629
5803.7813854978	0.0001535029
5805.7101928708	0.0001285507
5807.6390002439	0.0000968242
5809.5678076169	0.0001653251
5811.4966149900	0.0002006725
5813.4254223630	0.0001400778
5815.3542297361	0.0001835974
5817.2830371091	0.0002159323
5819.2118444822	0.0001649395
5821.1406518552	0.0001904515
5823.0694592282	0.0001394911
5824.9982666013	0.0001289327
5826.9270739743	0.0002288978
5828.8558813474	0.0001658665
5830.7846887204	0.0001424888
5832.7134960935	0.0002371555
5834.6423034665	0.0001750787
5836.5711108396	0.0001485932
5838.4999182126	0.0002022185
5840.4287255857	0.0001629256
5842.3575329587	0.0001574579
5844.2863403318	0.0001734773
5846.2151477048	0.0001745964
5848.1439550779	0.0001665271
5850.0727624509	0.0001953990
5852.0015698239	0.0002244568
5853.9303771970	0.0001620957
5855.8591845700	0.0001768090
5857.7879919431	0.0002284754
5859.7167993161	0.0001771130
5861.6456066892	0.0001378289
5863.5744140622	0.0001928853
5865.5032214353	0.0001670414
5867.4320288083	0.0001345036
5869.3608361814	0.0001685082
5871.2896435544	0.0001171601
5873.2184509275	0.0001182967
5875.1472583005	0.0001313719
5877.0760656736	0.0001821548
5879.0048730466	0.0001384724
5880.9336804196	0.0000682072
5882.8624877927	0.0002028874
5884.7912951657	0.0001670388
5886.7201025388	0.0001832080
5888.6489099118	0.0002212260
5890.5777172849	0.0001403403
5892.5065246579	0.0001585429
5894.4353320310	0.0001296355
5896.3641394040	0.0001592540
5898.2929467771	0.0001429040
5900.2217541501	0.0001845796
5902.1505615232	0.0001921591
5904.0793688962	0.0000592729
5906.0081762693	0.0001649834
5907.9369836423	0.0001698390
5909.8657910154	0.0001085637
5911.7945983884	0.0001495868
5913.7234057614	0.0001665477
5915.6522131345	0.0002062949
5917.5810205075	0.0001480798
5919.5098278806	0.0001608627
5921.4386352536	0.0001897826
5923.3674426267	0.0001192944
5925.2962499997	0.0001426540
5927.2250573728	0.0001398728
5929.1538647458	0.0000857619
5931.0826721189	0.0001560593
5933.0114794919	0.0001832218
5934.9402868650	0.0001390948
5936.8690942380	0.0001786491
5938.7979016111	0.0001426188
5940.7267089841	0.0001102473
5942.6555163571	0.0001433899
5944.5843237302	0.0001498002
5946.5131311032	0.0001616571
5948.4419384763	0.0001286334
5950.3707458493	0.0001320861
5952.2995532224	0.0001332193
5954.2283605954	0.0001304970
5956.1571679685	0.0001576894
5958.0859753415	0.0001423156
5960.0147827146	0.0002018335
5961.9435900876	0.0001911767
5963.8723974607	0.0000856595
5965.8012048337	0.0000761958
5967.7300122068	0.0001155738
5969.6588195798	0.0001701671
5971.5876269528	0.0001693294
5973.5164343259	0.0001351207
5975.4452416989	0.0001032144
5977.3740490720	0.0001089109
5979.3028564450	0.0001578870
5981.2316638181	0.0001081670
5983.1604711911	0.0000786830
5985.0892785642	0.0001220697
5987.0180859372	0.0001467798
5988.9468933103	0.0001526122
5990.8757006833	0.0001378382
5992.8045080564	0.0001224437
5994.7333154294	0.0001502069
5996.6621228025	0.0002282570
5998.5909301755	0.0001352082
6000.5197375485	0.0000964178
