399.2631262207	0.1123863384
401.1919335938	0.2862002552
403.1207409668	0.2709998190
405.0495483398	0.0521100350
406.9783557129	0.3183030486
408.9071630859	0.2087083906
410.8359704590	-0.0142222196
412.7647778320	0.1612482220
414.6935852051	0.1602266431
416.6223925781	0.2442781478
418.5511999512	0.1315621734
420.4800073242	0.1783352643
422.4088146973	0.2411994636
424.3376220703	-0.0340264477
426.2664294434	0.1819281131
428.1952368164	0.1809737384
430.1240441895	0.0829403400
432.0528515625	0.1529571265
433.9816589355	0.2203759551
435.9104663086	0.1614205241
437.8392736816	0.0814214200
439.7680810547	0.2869556248
441.6968884277	0.1458210498
443.6256958008	0.1485861987
445.5545031738	0.2405885905
447.4833105469	0.1622854173
449.4121179199	0.2624493539
451.3409252930	0.1242439821
453.2697326660	-0.1266296059
455.1985400391	0.0777699575
457.1273474121	0.3928203881
459.0561547852	0.3048932552
460.9849621582	0.1741898954
462.9137695313	0.2535282671
464.8425769043	0.2569052279
466.7713842773	0.3770436645
468.7001916504	0.1592880636
470.6289990234	0.1541424841
472.5578063965	-0.0606255382
474.4866137695	0.4267961383
476.4154211426	1.0997914076
478.3442285156	0.0773179159
480.2730358887	0.2055539489
482.2018432617	0.1597215235
484.1306506348	-0.6304090023
486.0594580078	1.0623264313
487.9882653809	0.5572077632
489.9170727539	0.2051394731
491.8458801270	0.5361860394
493.7746875000	0.3758816421
495.7034948730	-0.0235773325
497.6323022461	0.9597143531
499.5611096191	0.3367788196
501.4899169922	-1.2296134233
503.4187243652	1.2100683451
505.3475317383	0.1726368070
507.2763391113	1.2340757847
509.2051464844	1.0418280363
511.1339538574	0.3445903361
513.0627612305	1.3476513624
514.9915686035	1.2840089798
516.9203759766	-1.2751888037
518.8491833496	1.0015054941
520.7779907227	1.5209610462
522.7067980957	0.4030628204
524.6356054688	0.1285243779
526.5644128418	0.1952776164
528.4932202148	0.4543207288
530.4220275879	2.9431018829
532.3508349609	0.4809219539
534.2796423340	-0.0034159771
536.2084497070	0.3416698873
538.1372570801	0.4596854746
540.0660644531	34.4737052917
541.9948718262	1.2010930777
543.9236791992	-9.9666671753
545.8524865723	9.1246795654
547.7812939453	0.0605614185
549.7101013184	-0.0028311838
551.6389086914	-2.9925482273
553.5677160645	-15.7518663406
555.4965234375	-0.8473402262
557.4253308105	3.7128071785
559.3541381836	0.8054352999
561.2829455566	-0.2987627685
563.2117529297	0.1552897096
565.1405603027	1.0012677908
567.0693676758	-0.1539377421
568.9981750488	1.1301146746
570.9269824219	3.4211225510
572.8557897949	-2.9073617458
574.7845971680	-0.1942379773
576.7134045410	-3.2723467350
578.6422119141	-0.2905240059
580.5710192871	0.8690972924
582.4998266602	-3.1631488800
584.4286340332	2.3890635967
586.3574414063	1.0297898054
588.2862487793	1.1993261576
590.2150561523	-0.1806627512
592.1438635254	-1.3073328733
594.0726708984	0.5832296014
596.0014782715	0.7440497875
597.9302856445	0.1412609965
599.8590930176	-0.1907569468
601.7879003906	1.0684874058
603.7167077637	1.4364442825
605.6455151367	-0.5738466978
607.5743225098	-0.1231163070
609.5031298828	0.9810488820
611.4319372559	0.7387452722
613.3607446289	1.8168817759
615.2895520020	-1.2264842987
617.2183593750	-0.5396384597
619.1471667480	-0.4723879993
621.0759741211	-3.7305588722
623.0047814941	-0.2319437414
624.9335888672	2.0487525463
626.8623962402	0.5243254304
628.7912036133	23.7741641998
630.7200109863	0.9051846266
632.6488183594	0.6368005276
634.5776257324	0.4090263247
636.5064331055	0.2997146547
638.4352404785	-0.0108746411
640.3640478516	0.1779020727
642.2928552246	0.3854539096
644.2216625977	0.3932089806
646.1504699707	0.4030205905
648.0792773438	0.2810165882
650.0080847168	0.3148251474
651.9368920898	0.3457489610
653.8656994629	0.3049447536
655.7945068359	0.4311140180
657.7233142090	0.4061510861
659.6521215820	0.2823361158
661.5809289551	0.3435454667
663.5097363281	0.3445790112
665.4385437012	0.3291145861
667.3673510742	0.3115232587
669.2961584473	0.2795954645
671.2249658203	0.3081883788
673.1537731934	0.3058785796
675.0825805664	0.3104357421
677.0113879395	0.2900860608
678.9401953125	0.3271807432
680.8690026855	0.3722104132
682.7978100586	0.3254148364
684.7266174316	0.3399010003
686.6554248047	0.3009279966
688.5842321777	0.2779331207
690.5130395508	0.3438273370
692.4418469238	0.3723804951
694.3706542969	0.3903437555
696.2994616699	0.3337827027
698.2282690430	0.3183996975
700.1570764160	0.3566971719
702.0858837891	0.3469072580
704.0146911621	0.3315504491
705.9434985352	0.3430969715
707.8723059082	0.3233766556
709.8011132813	0.3237663209
711.7299206543	0.4417574406
713.6587280273	0.4472602606
715.5875354004	0.1550830454
717.5163427734	-0.0869441703
719.4451501465	0.3119771183
721.3739575195	2.8556401730
723.3027648926	1.1161714792
725.2315722656	-0.1800640970
727.1603796387	-0.4081803560
729.0891870117	-5.2155714035
731.0179943848	-8.1072082520
732.9468017578	0.5637765527
734.8756091309	1.8381328583
736.8044165039	-0.9904307127
738.7332238770	-1.6294941902
740.6620312500	0.2292675078
742.5908386230	4.8787317276
744.5196459961	4.8787317276
746.4484533691	0.2928442359
748.3772607422	1.8138015270
750.3060681152	6.3694753647
752.2348754883	1.0789546967
754.1636828613	1.0420241356
756.0924902344	0.9262332320
758.0212976074	3.5817975998
759.9501049805	0.8776721954
761.8789123535	1.6550399065
763.8077197266	1.8300619125
765.7365270996	0.9247784019
767.6653344727	3.4951291084
769.5941418457	0.2763019800
771.5229492188	1.1163001060
773.4517565918	1.3027373552
775.3805639648	0.6331421733
777.3093713379	1.8295586109
779.2381787109	2.9643146992
781.1669860840	0.4848496616
783.0957934570	0.5628829002
785.0246008301	0.9990664124
786.9534082031	1.0880413055
788.8822155762	0.7121778727
790.8110229492	0.3881359398
792.7398303223	0.4202532172
794.6686376953	0.5911567211
796.5974450684	0.6876905560
798.5262524414	0.4504413307
800.4550598145	0.4849852324
802.3838671875	0.5176599026
804.3126745605	0.5054430366
806.2414819336	0.4540975988
808.1702893066	0.5389497280
810.0990966797	0.5530759096
812.0279040527	0.6764137745
813.9567114258	1.3374922276
815.8855187988	0.5696414113
817.8143261719	0.0999954119
819.7431335449	0.1878350824
821.6719409180	0.1064549237
823.6007482910	1.0987219810
825.5295556641	0.4337503910
827.4583630371	0.3779166639
829.3871704102	0.8484130502
831.3159777832	0.5939253569
833.2447851563	0.6652133465
835.1735925293	0.5540738702
837.1023999023	0.4319726825
839.0312072754	0.7716839910
840.9600146484	0.8914600611
842.8888220215	0.5908408761
844.8176293945	0.6778736711
846.7464367676	0.6866078973
848.6752441406	0.5875894427
850.6040515137	0.8393270373
852.5328588867	0.4420092404
854.4616662598	0.3379847109
856.3904736328	0.7350642681
858.3192810059	0.4776124060
860.2480883789	0.5633728504
862.1768957520	1.3375327587
864.1057031250	1.1607766151
866.0345104980	0.5084682107
867.9633178711	0.4094070196
869.8921252441	1.8171204329
871.8209326172	1.9466794729
873.7497399902	1.3880889416
875.6785473633	0.5681667328
877.6073547363	0.6535573602
879.5361621094	1.5238376856
881.4649694824	1.4135544300
883.3937768555	0.7210842371
885.3225842285	1.4146082401
887.2513916016	1.2787754536
889.1801989746	1.1077216864
891.1090063477	0.8412589431
893.0378137207	0.6960642934
894.9666210938	0.4022405148
896.8954284668	1.4443142414
898.8242358398	5.3148670197
900.7530432129	1.2678719759
902.6818505859	1.8271768093
904.6106579590	0.9123035073
906.5394653320	0.3420886099
908.4682727051	1.0765620470
910.3970800781	0.4209078550
912.3258874512	0.4517197311
914.2546948242	0.4845701754
916.1835021973	0.7010040283
918.1123095703	0.8521729708
920.0411169434	0.5469342470
921.9699243164	0.8365882039
923.8987316895	0.5823978782
925.8275390625	0.4408468306
927.7563464355	0.7249671817
929.6851538086	0.6203880310
931.6139611816	0.3965394497
933.5427685547	0.4713402987
935.4715759277	0.5152797699
937.4003833008	0.5565312505
939.3291906738	0.5153956413
941.2579980469	0.5435908437
943.1868054199	0.5804281831
945.1156127930	0.4265332222
947.0444201660	0.5902943015
948.9732275391	0.5704368353
950.9020349121	0.4307332635
952.8308422852	0.5921058059
954.7596496582	0.4663855433
956.6884570313	0.4096640646
958.6172644043	0.4987793565
960.5460717773	0.5398373008
962.4748791504	0.5270749331
964.4036865234	0.5115341544
966.3324938965	0.5088895559
968.2613012695	0.5471642017
970.1901086426	0.6460186839
972.1189160156	0.5345002413
974.0477233887	0.5121626258
975.9765307617	0.4436085522
977.9053381348	0.4817372859
979.8341455078	0.5866467357
981.7629528809	0.4352757633
983.6917602539	0.4326392710
985.6205676270	0.4814024866
987.5493750000	0.4875881076
989.4781823730	0.4479052126
991.4069897461	0.4249248207
993.3357971191	0.4599003494
995.2646044922	0.4516490400
997.1934118652	0.4637024701
999.1222192383	0.4279767573
1001.0510266113	0.4092953503
1002.9798339844	0.4257414639
1004.9086413574	0.4208613634
1006.8374487305	0.4398609996
1008.7662561035	0.4266470075
1010.6950634766	0.4226438105
1012.6238708496	0.4278597236
1014.5526782227	0.4190222025
1016.4814855957	0.4131359458
1018.4102929688	0.4111993015
1020.3391003418	0.4194972217
1022.2679077148	0.4096342325
1024.1967150879	0.4030675888
1026.1255224609	0.4100925326
1028.0543298340	0.4167419672
1029.9831372070	0.4078263938
1031.9119445801	0.4002462029
1033.8407519531	0.4080229104
1035.7695593262	0.4094260037
1037.6983666992	0.4165215790
1039.6271740723	0.4027312398
1041.5559814453	0.3936387300
1043.4847888184	0.4059060216
1045.4135961914	0.3943942189
1047.3424035645	0.3976242840
1049.2712109375	0.3999773860
1051.2000183105	0.3979229927
1053.1288256836	0.4138243198
1055.0576330566	0.3975529671
1056.9864404297	0.3878606558
1058.9152478027	0.3960742354
1060.8440551758	0.3928712010
1062.7728625488	0.3931982517
1064.7016699219	0.3843498528
1066.6304772949	0.4008708298
1068.5592846680	0.4010059536
1070.4880920410	0.3817111850
1072.4168994141	0.4135452807
1074.3457067871	0.4049859047
1076.2745141602	0.3925152719
1078.2033215332	0.4007099569
1080.1321289062	0.3758000135
1082.0609362793	0.3853206635
1083.9897436523	0.3909378946
1085.9185510254	0.3850483298
1087.8473583984	0.3871293366
1089.7761657715	0.4090087712
1091.7049731445	0.4181112945
1093.6337805176	0.3951678574
1095.5625878906	0.4291443229
1097.4913952637	0.4101724625
1099.4202026367	0.3747182488
1101.3490100098	0.4000967443
1103.2778173828	0.4017520845
1105.2066247559	0.4193874896
1107.1354321289	0.4176572263
1109.0642395019	0.3978459835
1110.9930468750	0.3995173275
1112.9218542480	0.4102188945
1114.8506616211	0.4341584146
1116.7794689941	0.4237266779
1118.7082763672	0.4008405805
1120.6370837402	0.4130896330
1122.5658911133	0.4127556980
1124.4946984863	0.4045374393
1126.4235058594	0.4127630889
1128.3523132324	0.3941794038
1130.2811206055	0.4103608429
1132.2099279785	0.4143534899
1134.1387353516	0.3928499222
1136.0675427246	0.4277245402
1137.9963500977	0.4030549526
1139.9251574707	0.3915548027
1141.8539648437	0.4081938267
1143.7827722168	0.3831287324
1145.7115795898	0.3980238140
1147.6403869629	0.4000263512
1149.5691943359	0.3890429735
1151.4980017090	0.3910352290
1153.4268090820	0.3825335205
1155.3556164551	0.3776568472
1157.2844238281	0.3915857375
1159.2132312012	0.3915455937
1161.1420385742	0.3684162796
1163.0708459473	0.3827108741
1164.9996533203	0.3714385033
1166.9284606934	0.3540697396
1168.8572680664	0.3718443811
1170.7860754394	0.3656930327
1172.7148828125	0.3741532862
1174.6436901855	0.3690066636
1176.5724975586	0.3582162559
1178.5013049316	0.3730141819
1180.4301123047	0.3670094907
1182.3589196777	0.3608692884
1184.2877270508	0.3616683483
1186.2165344238	0.3620486557
1188.1453417969	0.3594473004
1190.0741491699	0.3593317866
1192.0029565430	0.3654110134
1193.9317639160	0.3585712612
1195.8605712891	0.3540424407
1197.7893786621	0.3570955992
1199.7181860351	0.3527359664
1201.6469934082	0.3499332368
1203.5758007812	0.3539352119
1205.5046081543	0.3557989001
1207.4334155273	0.3549213707
1209.3622229004	0.3516571820
1211.2910302734	0.3502613902
1213.2198376465	0.3527399302
1215.1486450195	0.3521018624
1217.0774523926	0.3496768177
1219.0062597656	0.3493131697
1220.9350671387	0.3507748544
1222.8638745117	0.3484952748
1224.7926818848	0.3461757600
1226.7214892578	0.3458811641
1228.6502966308	0.3450612426
1230.5791040039	0.3453312814
1232.5079113769	0.3450161517
1234.4367187500	0.3493584096
1236.3655261230	0.3496915102
1238.2943334961	0.3465737998
1240.2231408691	0.3475688696
1242.1519482422	0.3459928334
1244.0807556152	0.3463405073
1246.0095629883	0.3476237655
1247.9383703613	0.3474861681
1249.8671777344	0.3453910053
1251.7959851074	0.3466246724
1253.7247924805	0.3467105329
1255.6535998535	0.3438903391
1257.5824072266	0.3476422131
1259.5112145996	0.3448314965
1261.4400219726	0.3462537527
1263.3688293457	0.3511558175
1265.2976367187	0.3453287780
1267.2264440918	0.3438658118
1269.1552514648	0.3446872532
1271.0840588379	0.3444196582
1273.0128662109	0.3474120498
1274.9416735840	0.3463201523
1276.8704809570	0.3413444757
1278.7992883301	0.3487151861
1280.7280957031	0.3488206267
1282.6569030762	0.3415275812
1284.5857104492	0.3506269753
1286.5145178223	0.3507176936
1288.4433251953	0.3465030193
1290.3721325683	0.3454397023
1292.3009399414	0.3462119699
1294.2297473144	0.3486886621
1296.1585546875	0.3442137837
1298.0873620605	0.3464685678
1300.0161694336	0.3475741744
1301.9449768066	0.3472965360
1303.8737841797	0.3484216034
1305.8025915527	0.3477498889
1307.7313989258	0.3472882211
1309.6602062988	0.3484194577
1311.5890136719	0.3517021239
1313.5178210449	0.3471757174
1315.4466284180	0.3403823674
1317.3754357910	0.3379599154
1319.3042431640	0.3400764465
1321.2330505371	0.3385589123
1323.1618579101	0.3406868875
1325.0906652832	0.3441858590
1327.0194726562	0.3389454782
1328.9482800293	0.3415461183
1330.8770874023	0.3397554159
1332.8058947754	0.3362583518
1334.7347021484	0.3398620188
1336.6635095215	0.3388921022
1338.5923168945	0.3388448358
1340.5211242676	0.3389286995
1342.4499316406	0.3388525844
1344.3787390137	0.3392228782
1346.3075463867	0.3404634297
1348.2363537597	0.3387084603
1350.1651611328	0.3357809782
1352.0939685058	0.3389354646
1354.0227758789	0.3393645585
1355.9515832519	0.3390319049
1357.8803906250	0.3395294249
1359.8091979980	0.3360974491
1361.7380053711	0.3357537985
1363.6668127441	0.3400816619
1365.5956201172	0.3380821049
1367.5244274902	0.3368308842
1369.4532348633	0.3380115926
1371.3820422363	0.3339107633
1373.3108496094	0.3361294270
1375.2396569824	0.3374200761
1377.1684643555	0.3385321200
1379.0972717285	0.3418376744
1381.0260791015	0.3365650177
1382.9548864746	0.3346947432
1384.8836938476	0.3378813863
1386.8125012207	0.3396535516
1388.7413085937	0.3366010487
1390.6701159668	0.3373453319
1392.5989233398	0.3397658765
1394.5277307129	0.3360983431
1396.4565380859	0.3359099925
1398.3853454590	0.3360428214
1400.3141528320	0.3360660076
1402.2429602051	0.3356895149
1404.1717675781	0.3372985125
1406.1005749512	0.3374387920
1408.0293823242	0.3333385587
1409.9581896972	0.3361940086
1411.8869970703	0.3362624645
1413.8158044433	0.3361959457
1415.7446118164	0.3347572386
1417.6734191894	0.3311619163
1419.6022265625	0.3398959339
1421.5310339355	0.3377565145
1423.4598413086	0.3325935900
1425.3886486816	0.3369089663
1427.3174560547	0.3366046846
1429.2462634277	0.3369364142
1431.1750708008	0.3374969959
1433.1038781738	0.3397816122
1435.0326855469	0.3405492604
1436.9614929199	0.3375163376
1438.8903002929	0.3424533904
1440.8191076660	0.3418386877
1442.7479150390	0.3364959955
1444.6767224121	0.3378067613
1446.6055297851	0.3393229842
1448.5343371582	0.3372313976
1450.4631445312	0.3357182443
1452.3919519043	0.3364933431
1454.3207592773	0.3376113772
1456.2495666504	0.3406426311
1458.1783740234	0.3386355937
1460.1071813965	0.3347507417
1462.0359887695	0.3321013153
1463.9647961426	0.3307452202
1465.8936035156	0.3306575418
1467.8224108886	0.3277648687
1469.7512182617	0.3297330737
1471.6800256347	0.3292938471
1473.6088330078	0.3260521889
1475.5376403808	0.3262796104
1477.4664477539	0.3242165744
1479.3952551269	0.3243405521
1481.3240625000	0.3225188255
1483.2528698730	0.3224915564
1485.1816772461	0.3227769732
1487.1104846191	0.3205580711
1489.0392919922	0.3229384124
1490.9680993652	0.3202275634
1492.8969067383	0.3186747432
1494.8257141113	0.3198142052
1496.7545214843	0.3166241050
1498.6833288574	0.3169611990
1500.6121362304	0.3154759705
1502.5409436035	0.3148239553
1504.4697509765	0.3153254986
1506.3985583496	0.3123118579
1508.3273657226	0.3152021170
1510.2561730957	0.3145406246
1512.1849804687	0.3135251403
1514.1137878418	0.3141307831
1516.0425952148	0.3109602034
1517.9714025879	0.3133450747
1519.9002099609	0.3129943609
1521.8290173340	0.3120728135
1523.7578247070	0.3133167922
1525.6866320801	0.3085991144
1527.6154394531	0.3094300926
1529.5442468261	0.3111707568
1531.4730541992	0.3105164170
1533.4018615722	0.3091312647
1535.3306689453	0.3083764017
1537.2594763183	0.3103757799
1539.1882836914	0.3073387444
1541.1170910644	0.3078557849
1543.0458984375	0.3072666526
1544.9747058105	0.3055217862
1546.9035131836	0.3086785674
1548.8323205566	0.3067928255
1550.7611279297	0.3061034977
1552.6899353027	0.3056933582
1554.6187426758	0.3050633669
1556.5475500488	0.3061279655
1558.4763574218	0.3039129078
1560.4051647949	0.3027261198
1562.3339721679	0.3039237857
1564.2627795410	0.3043274283
1566.1915869140	0.3024054170
1568.1203942871	0.3037575185
1570.0492016601	0.3034526706
1571.9780090332	0.3004776537
1573.9068164062	0.3020923436
1575.8356237793	0.2994364500
1577.7644311523	0.2986549139
1579.6932385254	0.2998495996
1581.6220458984	0.2972923219
1583.5508532715	0.2980891466
1585.4796606445	0.2983787060
1587.4084680175	0.2973877788
1589.3372753906	0.2984548211
1591.2660827636	0.2983097136
1593.1948901367	0.2964913547
1595.1236975097	0.2962105870
1597.0525048828	0.2976622283
1598.9813122558	0.2976558208
1600.9101196289	0.2958378494
1602.8389270019	0.2954816222
1604.7677343750	0.2956283987
1606.6965417480	0.2953128815
1608.6253491211	0.2961989343
1610.5541564941	0.2967092395
1612.4829638672	0.2970490754
1614.4117712402	0.2959195077
1616.3405786132	0.2967105210
1618.2693859863	0.2984919548
1620.1981933593	0.2973690331
1622.1270007324	0.2991065383
1624.0558081054	0.2999271154
1625.9846154785	0.3024953008
1627.9134228515	0.3048447967
1629.8422302246	0.3059096932
1631.7710375976	0.3119886220
1633.6998449707	0.3125583827
1635.6286523437	0.3115938902
1637.5574597168	0.3172714710
1639.4862670898	0.3213020265
1641.4150744629	0.3227611780
1643.3438818359	0.3266826868
1645.2726892090	0.3304218352
1647.2014965820	0.3302221298
1649.1303039550	0.3350208104
1651.0591113281	0.3397027850
1652.9879187011	0.3420134485
1654.9167260742	0.3445998728
1656.8455334472	0.3496605158
1658.7743408203	0.3536857963
1660.7031481933	0.3548452854
1662.6319555664	0.3565979004
1664.5607629394	0.3584476113
1666.4895703125	0.3632664979
1668.4183776855	0.3642812371
1670.3471850586	0.3670583963
1672.2759924316	0.3712880015
1674.2047998047	0.3704034686
1676.1336071777	0.3738776147
1678.0624145507	0.3761684000
1679.9912219238	0.3782208562
1681.9200292968	0.3797916472
1683.8488366699	0.3787321150
1685.7776440429	0.3819766045
1687.7064514160	0.3851221502
1689.6352587890	0.3848209977
1691.5640661621	0.3841476440
1693.4928735351	0.3871886730
1695.4216809082	0.3875098228
1697.3504882812	0.3862321973
1699.2792956543	0.3860184848
1701.2081030273	0.3871603310
1703.1369104004	0.3902385533
1705.0657177734	0.3889812529
1706.9945251464	0.3894824088
1708.9233325195	0.3902812004
1710.8521398925	0.3879292309
1712.7809472656	0.3883638084
1714.7097546386	0.3889470398
1716.6385620117	0.3859654665
1718.5673693847	0.3853659630
1720.4961767578	0.3885326385
1722.4249841308	0.3871436119
1724.3537915039	0.3859800696
1726.2825988769	0.3870028853
1728.2114062500	0.3858913779
1730.1402136230	0.3847430944
1732.0690209961	0.3821427524
1733.9978283691	0.3784496188
1735.9266357421	0.3791269958
1737.8554431152	0.3815876544
1739.7842504882	0.3800016344
1741.7130578613	0.3771573603
1743.6418652343	0.3782374859
1745.5706726074	0.3757826686
1747.4994799804	0.3743760884
1749.4282873535	0.3749822080
1751.3570947265	0.3738879859
1753.2859020996	0.3739959300
1755.2147094726	0.3721239567
1757.1435168457	0.3710317016
1759.0723242187	0.3713897169
1761.0011315918	0.3698028624
1762.9299389648	0.3685560226
1764.8587463379	0.3687959313
1766.7875537109	0.3681712449
1768.7163610839	0.3666624427
1770.6451684570	0.3659583032
1772.5739758300	0.3646329045
1774.5027832031	0.3648109138
1776.4315905761	0.3642899692
1778.3603979492	0.3634303212
1780.2892053222	0.3637061119
1782.2180126953	0.3625444770
1784.1468200683	0.3621386886
1786.0756274414	0.3609000742
1788.0044348144	0.3608674407
1789.9332421875	0.3607238531
1791.8620495605	0.3574576378
1793.7908569336	0.3562117815
1795.7196643066	0.3566240668
1797.6484716796	0.3570930958
1799.5772790527	0.3566871285
1801.5060864257	0.3564930558
1803.4348937988	0.3548758030
1805.3637011718	0.3533560932
1807.2925085449	0.3541241288
1809.2213159179	0.3549531102
1811.1501232910	0.3545639515
1813.0789306640	0.3517547250
1815.0077380371	0.3520244658
1816.9365454101	0.3505541980
1818.8653527832	0.3492267728
1820.7941601562	0.3507399857
1822.7229675293	0.3489529490
1824.6517749023	0.3502047658
1826.5805822753	0.3491215706
1828.5093896484	0.3482858241
1830.4381970214	0.3487187624
1832.3670043945	0.3450194001
1834.2958117675	0.3459171951
1836.2246191406	0.3467862904
1838.1534265136	0.3452424705
1840.0822338867	0.3447780907
1842.0110412597	0.3446968198
1843.9398486328	0.3431612849
1845.8686560058	0.3441408575
1847.7974633789	0.3443577290
1849.7262707519	0.3408729136
1851.6550781250	0.3432712853
1853.5838854980	0.3419888318
1855.5126928710	0.3400898874
1857.4415002441	0.3425515592
1859.3703076171	0.3401414156
1861.2991149902	0.3406807184
1863.2279223632	0.3410946429
1865.1567297363	0.3394376636
1867.0855371093	0.3393539488
1869.0143444824	0.3384576440
1870.9431518554	0.3386295736
1872.8719592285	0.3381701708
1874.8007666015	0.3378382623
1876.7295739746	0.3384391963
1878.6583813476	0.3375328779
1880.5871887207	0.3367174566
1882.5159960937	0.3367334008
1884.4448034667	0.3363680243
1886.3736108398	0.3363082111
1888.3024182128	0.3355693221
1890.2312255859	0.3358361423
1892.1600329589	0.3353522122
1894.0888403320	0.3340273499
1896.0176477050	0.3352893591
1897.9464550781	0.3341008723
1899.8752624511	0.3330393434
1901.8040698242	0.3336658776
1903.7328771972	0.3347223997
1905.6616845703	0.3344514668
1907.5904919433	0.3331801593
1909.5192993164	0.3333875239
1911.4481066894	0.3301231563
1913.3769140625	0.3313977420
1915.3057214355	0.3330006301
1917.2345288085	0.3307985663
1919.1633361816	0.3314856291
1921.0921435546	0.3304088414
1923.0209509277	0.3313986957
1924.9497583007	0.3299230337
1926.8785656738	0.3284817040
1928.8073730468	0.3305086792
1930.7361804199	0.3296744525
1932.6649877929	0.3292011321
1934.5937951660	0.3282707334
1936.5226025390	0.3289994299
1938.4514099121	0.3282458782
1940.3802172851	0.3275797367
1942.3090246582	0.3292428255
1944.2378320312	0.3284990788
1946.1666394042	0.3282901049
1948.0954467773	0.3260487616
1950.0242541503	0.3259523213
1951.9530615234	0.3271925151
1953.8818688964	0.3256165981
1955.8106762695	0.3258251846
1957.7394836425	0.3250538707
1959.6682910156	0.3245216310
1961.5970983886	0.3261890113
1963.5259057617	0.3265402317
1965.4547131347	0.3249923885
1967.3835205078	0.3245023191
1969.3123278808	0.3252302706
1971.2411352539	0.3247154653
1973.1699426269	0.3236586750
1975.0987499999	0.3239377737
1977.0275573730	0.3243067563
1978.9563647460	0.3231835365
1980.8851721191	0.3233910203
1982.8139794921	0.3227787912
1984.7427868652	0.3221252561
1986.6715942382	0.3241161108
1988.6004016113	0.3237223923
1990.5292089843	0.3229656219
1992.4580163574	0.3232455552
1994.3868237304	0.3226219714
1996.3156311035	0.3216527402
1998.2444384765	0.3199588954
2000.1732458496	0.3207792640
2002.1020532226	0.3225713670
2004.0308605956	0.3213783205
2005.9596679687	0.3207275271
2007.8884753417	0.3220352829
2009.8172827148	0.3216813505
2011.7460900878	0.3201021850
2013.6748974609	0.3211341202
2015.6037048339	0.3215311170
2017.5325122070	0.3195820749
2019.4613195800	0.3200277090
2021.3901269531	0.3202418089
2023.3189343261	0.3196417093
2025.2477416992	0.3201489449
2027.1765490722	0.3200990856
2029.1053564453	0.3201461434
2031.0341638183	0.3202894330
2032.9629711914	0.3207833767
2034.8917785644	0.3199706972
2036.8205859374	0.3195194900
2038.7493933105	0.3199842572
2040.6782006835	0.3191899657
2042.6070080566	0.3192139268
2044.5358154296	0.3184588253
2046.4646228027	0.3190402389
2048.3934301757	0.3199862540
2050.3222375488	0.3197825253
2052.2510449218	0.3209408224
2054.1798522949	0.3209006190
2056.1086596679	0.3205206394
2058.0374670410	0.3195381761
2059.9662744140	0.3195562363
2061.8950817871	0.3201166689
2063.8238891601	0.3201178610
2065.7526965331	0.3203845024
2067.6815039062	0.3192424178
2069.6103112792	0.3200195134
2071.5391186523	0.3184750378
2073.4679260253	0.3171611726
2075.3967333984	0.3187707663
2077.3255407714	0.3167172968
2079.2543481445	0.3172983825
2081.1831555175	0.3184473813
2083.1119628906	0.3174159527
2085.0407702636	0.3185510337
2086.9695776367	0.3177505136
2088.8983850097	0.3169433773
2090.8271923828	0.3177750707
2092.7559997558	0.3178680837
2094.6848071288	0.3189812005
2096.6136145019	0.3186908960
2098.5424218749	0.3180013895
2100.4712292480	0.3191625774
2102.4000366210	0.3184583187
2104.3288439941	0.3182435632
2106.2576513671	0.3171988130
2108.1864587402	0.3165562153
2110.1152661132	0.3195469677
2112.0440734863	0.3187606931
2113.9728808593	0.3177161813
2115.9016882324	0.3186699152
2117.8304956054	0.3174837232
2119.7593029785	0.3170496523
2121.6881103515	0.3178639412
2123.6169177245	0.3181056380
2125.5457250976	0.3167348504
2127.4745324706	0.3167458475
2129.4033398437	0.3180356026
2131.3321472167	0.3179895282
2133.2609545898	0.3172438145
2135.1897619628	0.3162861168
2137.1185693359	0.3172439039
2139.0473767089	0.3179398477
2140.9761840820	0.3164584339
2142.9049914550	0.3170611560
2144.8337988281	0.3184097409
2146.7626062011	0.3176752031
2148.6914135742	0.3186125159
2150.6202209472	0.3187866211
2152.5490283203	0.3169588149
2154.4778356933	0.3173563480
2156.4066430663	0.3171399534
2158.3354504394	0.3166718781
2160.2642578124	0.3172987103
2162.1930651855	0.3174700141
2164.1218725585	0.3168115020
2166.0506799316	0.3161486089
2167.9794873046	0.3161142468
2169.9082946777	0.3154684305
2171.8371020507	0.3169122040
2173.7659094238	0.3178330362
2175.6947167968	0.3165205419
2177.6235241699	0.3163350523
2179.5523315429	0.3164542019
2181.4811389160	0.3177884519
2183.4099462890	0.3181266189
2185.3387536620	0.3166339397
2187.2675610351	0.3173715174
2189.1963684081	0.3186329901
2191.1251757812	0.3170914054
2193.0539831542	0.3168254793
2194.9827905273	0.3170917928
2196.9115979003	0.3160748780
2198.8404052734	0.3175737262
2200.7692126464	0.3164089322
2202.6980200195	0.3159733117
2204.6268273925	0.3180840015
2206.5556347656	0.3161813021
2208.4844421386	0.3156337440
2210.4132495117	0.3174909055
2212.3420568847	0.3178597093
2214.2708642577	0.3156847954
2216.1996716308	0.3166440129
2218.1284790038	0.3179159760
2220.0572863769	0.3149694204
2221.9860937499	0.3157112300
2223.9149011230	0.3156089187
2225.8437084960	0.3154306412
2227.7725158691	0.3177226782
2229.7013232421	0.3166978359
2231.6301306152	0.3147374094
2233.5589379882	0.3150021732
2235.4877453613	0.3170039654
2237.4165527343	0.3158890605
2239.3453601074	0.3142401278
2241.2741674804	0.3142295182
2243.2029748534	0.3149549365
2245.1317822265	0.3151401281
2247.0605895995	0.3128764927
2248.9893969726	0.3151887357
2250.9182043456	0.3172864616
2252.8470117187	0.3158047199
2254.7758190917	0.3156569302
2256.7046264648	0.3148043752
2258.6334338378	0.3137952685
2260.5622412109	0.3131431341
2262.4910485839	0.3142819703
2264.4198559570	0.3151388168
2266.3486633300	0.3137987256
2268.2774707031	0.3134270608
2270.2062780761	0.3144047558
2272.1350854491	0.3143127263
2274.0638928222	0.3132158816
2275.9927001952	0.3134005368
2277.9215075683	0.3132676184
2279.8503149413	0.3137340248
2281.7791223144	0.3135553598
2283.7079296874	0.3130614161
2285.6367370605	0.3142522573
2287.5655444335	0.3137006164
2289.4943518066	0.3125326633
2291.4231591796	0.3107720613
2293.3519665527	0.3115540743
2295.2807739257	0.3133137822
2297.2095812988	0.3123532534
2299.1383886718	0.3130221665
2301.0671960449	0.3122333288
2302.9960034179	0.3128983080
2304.9248107909	0.3140571415
2306.8536181640	0.3101694882
2308.7824255370	0.3089851141
2310.7112329101	0.3107146919
2312.6400402831	0.3106381595
2314.5688476562	0.3088911474
2316.4976550292	0.3087664247
2318.4264624023	0.3086959720
2320.3552697753	0.3060433865
2322.2840771484	0.3071270287
2324.2128845214	0.3073082566
2326.1416918945	0.3040431738
2328.0704992675	0.3036491871
2329.9993066406	0.3037930131
2331.9281140136	0.3037619591
2333.8569213866	0.3023511767
2335.7857287597	0.3021529317
2337.7145361327	0.3032744825
2339.6433435058	0.3011064529
2341.5721508788	0.3011584580
2343.5009582519	0.3025315702
2345.4297656249	0.3038440347
2347.3585729980	0.3068336546
2349.2873803710	0.3081197441
2351.2161877441	0.3067308068
2353.1449951171	0.3044871986
2355.0738024902	0.3024858832
2357.0026098632	0.2977914512
2358.9314172363	0.2973215878
2360.8602246093	0.3001797497
2362.7890319823	0.2984423637
2364.7178393554	0.2985535860
2366.6466467284	0.2990690172
2368.5754541015	0.2990890741
2370.5042614745	0.3010421991
2372.4330688476	0.3034171164
2374.3618762206	0.3039851189
2376.2906835937	0.3039652407
2378.2194909667	0.3075256348
2380.1482983398	0.3084150553
2382.0771057128	0.3074793220
2384.0059130859	0.3085352182
2385.9347204589	0.3090498149
2387.8635278320	0.3095347583
2389.7923352050	0.3085552156
2391.7211425780	0.3086820543
2393.6499499511	0.3087977767
2395.5787573241	0.3073047101
2397.5075646972	0.3074426949
2399.4363720702	0.3074888289
2401.3651794433	0.3079752028
2403.2939868163	0.3072237074
2405.2227941894	0.3046184778
2407.1516015624	0.3052406907
2409.0804089355	0.3082041144
2411.0092163085	0.3086068630
2412.9380236816	0.3059524596
2414.8668310546	0.3053691387
2416.7956384277	0.3063664436
2418.7244458007	0.3066153824
2420.6532531738	0.3065270483
2422.5820605468	0.3047123253
2424.5108679198	0.3074532151
2426.4396752929	0.3094828427
2428.3684826659	0.3053212464
2430.2972900390	0.3059963286
2432.2260974120	0.3067784011
2434.1549047851	0.3064068556
2436.0837121581	0.3061990738
2438.0125195312	0.3041571677
2439.9413269042	0.3061899841
2441.8701342773	0.3054042459
2443.7989416503	0.3043903708
2445.7277490234	0.3053267300
2447.6565563964	0.3034785986
2449.5853637695	0.3045836091
2451.5141711425	0.3051092625
2453.4429785155	0.3039346039
2455.3717858886	0.3031386435
2457.3005932616	0.3033953309
2459.2294006347	0.3050535321
2461.1582080077	0.3044677377
2463.0870153808	0.3031130433
2465.0158227538	0.3037928045
2466.9446301269	0.3043889403
2468.8734374999	0.3019031584
2470.8022448730	0.3028144836
2472.7310522460	0.3057486713
2474.6598596191	0.3042802811
2476.5886669921	0.3028926849
2478.5174743652	0.3029382825
2480.4462817382	0.3040461242
2482.3750891112	0.3036507964
2484.3038964843	0.3036358654
2486.2327038573	0.3035205603
2488.1615112304	0.3017197549
2490.0903186034	0.3049174547
2492.0191259765	0.3051970005
2493.9479333495	0.3021354377
2495.8767407226	0.3028467298
2497.8055480956	0.3028065860
2499.7343554687	0.3032015562
2501.6631628417	0.3020751774
2503.5919702148	0.3013646901
2505.5207775878	0.3046721816
2507.4495849609	0.3036863506
2509.3783923339	0.3017702699
2511.3071997069	0.3032841086
2513.2360070800	0.3020018041
2515.1648144530	0.3019049168
2517.0936218261	0.3023722768
2519.0224291991	0.3003875315
2520.9512365722	0.3026106060
2522.8800439452	0.3031574190
2524.8088513183	0.3009656966
2526.7376586913	0.3022074997
2528.6664660644	0.3012993932
2530.5952734374	0.2996662855
2532.5240808105	0.3012920320
2534.4528881835	0.3030380905
2536.3816955566	0.3015457094
2538.3105029296	0.2998055518
2540.2393103027	0.3005403578
2542.1681176757	0.3011438549
2544.0969250487	0.3023866713
2546.0257324218	0.3013338447
2547.9545397948	0.2990461588
2549.8833471679	0.2986106277
2551.8121545409	0.2999322116
2553.7409619140	0.3015309572
2555.6697692870	0.2988371849
2557.5985766601	0.3002337217
2559.5273840331	0.3017137051
2561.4561914062	0.2982619703
2563.3849987792	0.3000459075
2565.3138061523	0.3000563383
2567.2426135253	0.2985358238
2569.1714208984	0.2996658087
2571.1002282714	0.2989077568
2573.0290356444	0.2974329591
2574.9578430175	0.2985728681
2576.8866503905	0.3020639122
2578.8154577636	0.3011020720
2580.7442651366	0.2996934056
2582.6730725097	0.2991476357
2584.6018798827	0.2967081070
2586.5306872558	0.2970475554
2588.4594946288	0.2968773842
2590.3883020019	0.2973749340
2592.3171093749	0.2985623777
2594.2459167480	0.2969431579
2596.1747241210	0.2963650823
2598.1035314941	0.2955430746
2600.0323388671	0.2945416272
2601.9611462401	0.2959503233
2603.8899536132	0.2972510159
2605.8187609862	0.2974446714
2607.7475683593	0.2961839736
2609.6763757323	0.2962166667
2611.6051831054	0.2969278693
2613.5339904784	0.2948997915
2615.4627978515	0.2948252261
2617.3916052245	0.2940855920
2619.3204125976	0.2936474979
2621.2492199706	0.2953648269
2623.1780273437	0.2945248187
2625.1068347167	0.2949301302
2627.0356420898	0.2944831848
2628.9644494628	0.2960486412
2630.8932568358	0.2973436415
2632.8220642089	0.2927555442
2634.7508715819	0.2929605544
2636.6796789550	0.2946519256
2638.6084863280	0.2922431529
2640.5372937011	0.2931670845
2642.4661010741	0.2959105372
2644.3949084472	0.2930295169
2646.3237158202	0.2921958864
2648.2525231933	0.2933348715
2650.1813305663	0.2923333347
2652.1101379394	0.2945295572
2654.0389453124	0.2931312621
2655.9677526855	0.2928617001
2657.8965600585	0.2937340438
2659.8253674315	0.2934822440
2661.7541748046	0.2943833768
2663.6829821776	0.2907396555
2665.6117895507	0.2913743556
2667.5405969237	0.2922171354
2669.4694042968	0.2907803059
2671.3982116698	0.2907982767
2673.3270190429	0.2918529212
2675.2558264159	0.2934214473
2677.1846337890	0.2901630700
2679.1134411620	0.2897433043
2681.0422485351	0.2904638350
2682.9710559081	0.2914804220
2684.8998632812	0.2917942703
2686.8286706542	0.2899443805
2688.7574780273	0.2903984487
2690.6862854003	0.2905777097
2692.6150927733	0.2919193804
2694.5439001464	0.2895464897
2696.4727075194	0.2901301086
2698.4015148925	0.2901639640
2700.3303222655	0.2883197069
2702.2591296386	0.2913596332
2704.1879370116	0.2875205576
2706.1167443847	0.2889269590
2708.0455517577	0.2910705507
2709.9743591308	0.2873995602
2711.9031665038	0.2877784967
2713.8319738769	0.2885869443
2715.7607812499	0.2894311547
2717.6895886230	0.2872094512
2719.6183959960	0.2902027667
2721.5472033690	0.2918590903
2723.4760107421	0.2868950665
2725.4048181151	0.2861848176
2727.3336254882	0.2867917120
2729.2624328612	0.2884883881
2731.1912402343	0.2869665623
2733.1200476073	0.2861467600
2735.0488549804	0.2880819440
2736.9776623534	0.2870475650
2738.9064697265	0.2867302001
2740.8352770995	0.2865066528
2742.7640844726	0.2854718268
2744.6928918456	0.2866686285
2746.6216992187	0.2896042168
2748.5505065917	0.2881537974
2750.4793139647	0.2862582207
2752.4081213378	0.2872655094
2754.3369287108	0.2878391147
2756.2657360839	0.2874043584
2758.1945434569	0.2863627076
2760.1233508300	0.2868432701
2762.0521582030	0.2853773534
2763.9809655761	0.2848449945
2765.9097729491	0.2841486037
2767.8385803222	0.2845519483
2769.7673876952	0.2881827354
2771.6961950683	0.2850277424
2773.6250024413	0.2841704488
2775.5538098144	0.2846463621
2777.4826171874	0.2817761600
2779.4114245604	0.2838769555
2781.3402319335	0.2833796442
2783.2690393065	0.2815358341
2785.1978466796	0.2814867795
2787.1266540526	0.2813112438
2789.0554614257	0.2829468250
2790.9842687987	0.2815956771
2792.9130761718	0.2811092436
2794.8418835448	0.2840490341
2796.7706909179	0.2835771441
2798.6994982909	0.2824627757
2800.6283056640	0.2828880847
2802.5571130370	0.2812376618
2804.4859204101	0.2802231014
2806.4147277831	0.2812422812
2808.3435351562	0.2795355320
2810.2723425292	0.2795431018
2812.2011499022	0.2825485766
2814.1299572753	0.2800010741
2816.0587646483	0.2790047526
2817.9875720214	0.2798022628
2819.9163793944	0.2775203288
2821.8451867675	0.2781093419
2823.7739941405	0.2776363194
2825.7028015136	0.2783958614
2827.6316088866	0.2789072096
2829.5604162597	0.2782769799
2831.4892236327	0.2805925310
2833.4180310058	0.2776828110
2835.3468383788	0.2761518061
2837.2756457519	0.2773357332
2839.2044531249	0.2764233947
2841.1332604979	0.2767781913
2843.0620678710	0.2772042155
2844.9908752440	0.2785346806
2846.9196826171	0.2764954567
2848.8484899901	0.2738967538
2850.7772973632	0.2743639052
2852.7061047362	0.2752381563
2854.6349121093	0.2755192220
2856.5637194823	0.2747591734
2858.4925268554	0.2760543525
2860.4213342284	0.2749909759
2862.3501416015	0.2742351890
2864.2789489745	0.2762731314
2866.2077563476	0.2761990428
2868.1365637206	0.2755109370
2870.0653710936	0.2750283480
2871.9941784667	0.2750590146
2873.9229858397	0.2739998400
2875.8517932128	0.2745157182
2877.7806005858	0.2736504078
2879.7094079589	0.2713893950
2881.6382153319	0.2719548345
2883.5670227050	0.2714536786
2885.4958300780	0.2723398209
2887.4246374511	0.2712501585
2889.3534448241	0.2712116241
2891.2822521972	0.2709157765
2893.2110595702	0.2692885101
2895.1398669433	0.2724108398
2897.0686743163	0.2695208490
2898.9974816893	0.2693652809
2900.9262890624	0.2705054879
2902.8550964354	0.2682879865
2904.7839038085	0.2712026536
2906.7127111815	0.2696560025
2908.6415185546	0.2682247162
2910.5703259276	0.2660340667
2912.4991333007	0.2660555840
2914.4279406737	0.2691323161
2916.3567480468	0.2660405934
2918.2855554198	0.2661560476
2920.2143627929	0.2655841410
2922.1431701659	0.2662968636
2924.0719775390	0.2672714591
2926.0007849120	0.2673625052
2927.9295922851	0.2714005113
2929.8583996581	0.2662307024
2931.7872070311	0.2635717690
2933.7160144042	0.2676786184
2935.6448217772	0.2655479014
2937.5736291503	0.2651513517
2939.5024365233	0.2670269608
2941.4312438964	0.2659734786
2943.3600512694	0.2657210827
2945.2888586425	0.2669599056
2947.2176660155	0.2652665377
2949.1464733886	0.2629878521
2951.0752807616	0.2638857663
2953.0040881347	0.2645809352
2954.9328955077	0.2627011240
2956.8617028808	0.2617756724
2958.7905102538	0.2630691826
2960.7193176268	0.2624910772
2962.6481249999	0.2616545260
2964.5769323729	0.2635190487
2966.5057397460	0.2643387020
2968.4345471190	0.2625490725
2970.3633544921	0.2628712654
2972.2921618651	0.2623607516
2974.2209692382	0.2590126693
2976.1497766112	0.2596613467
2978.0785839843	0.2613284886
2980.0073913573	0.2604177296
2981.9361987304	0.2593612969
2983.8650061034	0.2605093122
2985.7938134765	0.2625636160
2987.7226208495	0.2603061795
2989.6514282225	0.2573243082
2991.5802355956	0.2588751912
2993.5090429686	0.2599844337
2995.4378503417	0.2576559484
2997.3666577147	0.2561899424
2999.2954650878	0.2563411593
3001.2242724608	0.2575503886
3003.1530798339	0.2564456761
3005.0818872069	0.2551829815
3007.0106945800	0.2579903305
3008.9395019530	0.2560975254
3010.8683093261	0.2554096282
3012.7971166991	0.2567417026
3014.7259240722	0.2528764307
3016.6547314452	0.2546483278
3018.5835388182	0.2554259300
3020.5123461913	0.2522749603
3022.4411535643	0.2540950179
3024.3699609374	0.2546216846
3026.2987683104	0.2550425231
3028.2275756835	0.2547281384
3030.1563830565	0.2525282204
3032.0851904296	0.2540560365
3034.0139978026	0.2532159686
3035.9428051757	0.2525366843
3037.8716125487	0.2531456053
3039.8004199218	0.2492214739
3041.7292272948	0.2517088950
3043.6580346679	0.2544184029
3045.5868420409	0.2506900728
3047.5156494139	0.2513281405
3049.4444567870	0.2502217591
3051.3732641600	0.2488920838
3053.3020715331	0.2490479797
3055.2308789061	0.2488647103
3057.1596862792	0.2521028817
3059.0884936522	0.2483052909
3061.0173010253	0.2471772432
3062.9461083983	0.2506361902
3064.8749157714	0.2467706949
3066.8037231444	0.2467417717
3068.7325305175	0.2474949658
3070.6613378905	0.2490487397
3072.5901452636	0.2493980378
3074.5189526366	0.2467293590
3076.4477600097	0.2489313632
3078.3765673827	0.2456182539
3080.3053747557	0.2469214648
3082.2341821288	0.2489677519
3084.1629895018	0.2448795885
3086.0917968749	0.2478231788
3088.0206042479	0.2462969720
3089.9494116210	0.2465147078
3091.8782189940	0.2473025769
3093.8070263671	0.2430543751
3095.7358337401	0.2456815988
3097.6646411132	0.2473278791
3099.5934484862	0.2438192070
3101.5222558593	0.2404415905
3103.4510632323	0.2436983287
3105.3798706054	0.2457350343
3107.3086779784	0.2432302982
3109.2374853514	0.2431882024
3111.1662927245	0.2417700589
3113.0951000975	0.2433843613
3115.0239074706	0.2454568744
3116.9527148436	0.2441695929
3118.8815222167	0.2424748987
3120.8103295897	0.2415410727
3122.7391369628	0.2420369983
3124.6679443358	0.2420997918
3126.5967517089	0.2417676002
3128.5255590819	0.2404132485
3130.4543664550	0.2414293140
3132.3831738280	0.2425697595
3134.3119812011	0.2418418974
3136.2407885741	0.2420877665
3138.1695959471	0.2414005548
3140.0984033202	0.2389919311
3142.0272106932	0.2375217229
3143.9560180663	0.2387426049
3145.8848254393	0.2388803512
3147.8136328124	0.2406488061
3149.7424401854	0.2410439104
3151.6712475585	0.2392808497
3153.6000549315	0.2407629639
3155.5288623046	0.2397833169
3157.4576696776	0.2414637804
3159.3864770507	0.2457044721
3161.3152844237	0.2430643737
3163.2440917968	0.2407195121
3165.1728991698	0.2437453866
3167.1017065428	0.2423034906
3169.0305139159	0.2410399169
3170.9593212889	0.2435818315
3172.8881286620	0.2408033907
3174.8169360350	0.2407221645
3176.7457434081	0.2413841486
3178.6745507811	0.2412501127
3180.6033581542	0.2431491464
3182.5321655272	0.2447300702
3184.4609729003	0.2459703982
3186.3897802733	0.2404084206
3188.3185876464	0.2420823127
3190.2473950194	0.2459834516
3192.1762023925	0.2423393130
3194.1050097655	0.2425298840
3196.0338171386	0.2423538417
3197.9626245116	0.2454468310
3199.8914318846	0.2458578050
3201.8202392577	0.2455780506
3203.7490466307	0.2505334020
3205.6778540038	0.2476674765
3207.6066613768	0.2457726002
3209.5354687499	0.2484005988
3211.4642761229	0.2491800487
3213.3930834960	0.2486844510
3215.3218908690	0.2490881681
3217.2506982421	0.2519372106
3219.1795056151	0.2523162067
3221.1083129882	0.2509200275
3223.0371203612	0.2504644096
3224.9659277343	0.2529998720
3226.8947351073	0.2563674450
3228.8235424803	0.2542597055
3230.7523498534	0.2518608868
3232.6811572264	0.2542072833
3234.6099645995	0.2541392446
3236.5387719725	0.2529514134
3238.4675793456	0.2548466921
3240.3963867186	0.2563652396
3242.3251940917	0.2598108351
3244.2540014647	0.2593231797
3246.1828088378	0.2584287226
3248.1116162108	0.2611046135
3250.0404235839	0.2584979832
3251.9692309569	0.2617490888
3253.8980383300	0.2653221190
3255.8268457030	0.2646805048
3257.7556530760	0.2660354376
3259.6844604491	0.2640945017
3261.6132678221	0.2651900351
3263.5420751952	0.2634230852
3265.4708825682	0.2646842599
3267.3996899413	0.2677732706
3269.3284973143	0.2659320235
3271.2573046874	0.2694184184
3273.1861120604	0.2659398913
3275.1149194335	0.2694139183
3277.0437268065	0.2756786346
3278.9725341796	0.2691299915
3280.9013415526	0.2724815607
3282.8301489257	0.2773174942
3284.7589562987	0.2750264406
3286.6877636717	0.2737683058
3288.6165710448	0.2764224708
3290.5453784178	0.2759584486
3292.4741857909	0.2759870887
3294.4029931639	0.2802990377
3296.3318005370	0.2771055698
3298.2606079100	0.2786928415
3300.1894152831	0.2808856070
3302.1182226561	0.2792036831
3304.0470300292	0.2805419266
3305.9758374022	0.2820756137
3307.9046447753	0.2849698365
3309.8334521483	0.2850423753
3311.7622595214	0.2866828442
3313.6910668944	0.2852315009
3315.6198742675	0.2853487134
3317.5486816405	0.2869323194
3319.4774890135	0.2859387994
3321.4062963866	0.2913120687
3323.3351037596	0.2906748950
3325.2639111327	0.2921029627
3327.1927185057	0.2937372625
3329.1215258788	0.2906487584
3331.0503332518	0.2920135260
3332.9791406249	0.2898354828
3334.9079479979	0.2940043807
3336.8367553710	0.2999044061
3338.7655627440	0.3001184762
3340.6943701171	0.3003476262
3342.6231774901	0.2986500263
3344.5519848632	0.3009051085
3346.4807922362	0.3046323657
3348.4095996092	0.3040642440
3350.3384069823	0.3039002717
3352.2672143553	0.3075167835
3354.1960217284	0.3077382445
3356.1248291014	0.3061036468
3358.0536364745	0.3094355762
3359.9824438475	0.3104395866
3361.9112512206	0.3094490767
3363.8400585936	0.3112130165
3365.7688659667	0.3124688268
3367.6976733397	0.3160167634
3369.6264807128	0.3206329942
3371.5552880858	0.3196722865
3373.4840954589	0.3169839382
3375.4129028319	0.3202081025
3377.3417102049	0.3273545206
3379.2705175780	0.3239073455
3381.1993249510	0.3232017756
3383.1281323241	0.3314292431
3385.0569396971	0.3280963302
3386.9857470702	0.3288960457
3388.9145544432	0.3331619203
3390.8433618163	0.3356412947
3392.7721691893	0.3397825658
3394.7009765624	0.3375684619
3396.6297839354	0.3417128921
3398.5585913085	0.3426381946
3400.4873986815	0.3451212049
3402.4162060546	0.3530228734
3404.3450134276	0.3506538570
3406.2738208006	0.3533037305
3408.2026281737	0.3539833724
3410.1314355467	0.3542221189
3412.0602429198	0.3627607524
3413.9890502928	0.3634566367
3415.9178576659	0.3636788130
3417.8466650389	0.3639195561
3419.7754724120	0.3638435006
3421.7042797850	0.3701492250
3423.6330871581	0.3681934774
3425.5618945311	0.3679402173
3427.4907019042	0.3739748895
3429.4195092772	0.3746217191
3431.3483166503	0.3777965903
3433.2771240233	0.3777827322
3435.2059313963	0.3800759614
3437.1347387694	0.3837054074
3439.0635461424	0.3838551939
3440.9923535155	0.3888434470
3442.9211608885	0.3893680573
3444.8499682616	0.3951564729
3446.7787756346	0.3967690170
3448.7075830077	0.3948962390
3450.6363903807	0.4040950835
3452.5651977538	0.4031270742
3454.4940051268	0.4020887017
3456.4228124999	0.4045750499
3458.3516198729	0.4078089595
3460.2804272460	0.4120672345
3462.2092346190	0.4111353159
3464.1380419921	0.4157846868
3466.0668493651	0.4165801406
3467.9956567381	0.4153523147
3469.9244641112	0.4172092080
3471.8532714842	0.4191217124
3473.7820788573	0.4241838753
3475.7108862303	0.4282670617
3477.6396936034	0.4315687716
3479.5685009764	0.4293806255
3481.4973083495	0.4310557246
3483.4261157225	0.4332250357
3485.3549230956	0.4291021228
3487.2837304686	0.4370495677
3489.2125378417	0.4433910251
3491.1413452147	0.4415798187
3493.0701525878	0.4452647865
3494.9989599608	0.4464263618
3496.9277673338	0.4456825256
3498.8565747069	0.4477997720
3500.7853820799	0.4504459202
3502.7141894530	0.4530316889
3504.6429968260	0.4534346163
3506.5718041991	0.4558480680
3508.5006115721	0.4562169611
3510.4294189452	0.4542374611
3512.3582263182	0.4624078572
3514.2870336913	0.4642756581
3516.2158410643	0.4613105655
3518.1446484374	0.4666284621
3520.0734558104	0.4661111832
3522.0022631835	0.4696767330
3523.9310705565	0.4719392359
3525.8598779295	0.4699422717
3527.7886853026	0.4749983847
3529.7174926756	0.4758074284
3531.6463000487	0.4807965159
3533.5751074217	0.4810121059
3535.5039147948	0.4797143042
3537.4327221678	0.4881437123
3539.3615295409	0.4860785306
3541.2903369139	0.4826570749
3543.2191442870	0.4877421558
3545.1479516600	0.4948366582
3547.0767590331	0.4931527972
3549.0055664061	0.4931389391
3550.9343737792	0.4962260425
3552.8631811522	0.4920613468
3554.7919885252	0.4991044402
3556.7207958983	0.5014476776
3558.6496032713	0.4986445308
3560.5784106444	0.5015383959
3562.5072180174	0.5027704835
3564.4360253905	0.5069034696
3566.3648327635	0.5061986446
3568.2936401366	0.5072507858
3570.2224475096	0.5066806078
3572.1512548827	0.5099607706
3574.0800622557	0.5154033303
3576.0088696288	0.5095677972
3577.9376770018	0.5137661099
3579.8664843749	0.5183098912
3581.7952917479	0.5165721774
3583.7240991210	0.5176218748
3585.6529064940	0.5186725855
3587.5817138670	0.5205703974
3589.5105212401	0.5238818526
3591.4393286131	0.5242791772
3593.3681359862	0.5196284056
3595.2969433592	0.5259975791
3597.2257507323	0.5298238993
3599.1545581053	0.5256286263
3601.0833654784	0.5296073556
3603.0121728514	0.5306699872
3604.9409802245	0.5309582949
3606.8697875975	0.5304586291
3608.7985949706	0.5253996849
3610.7274023436	0.5287007093
3612.6562097167	0.5337074399
3614.5850170897	0.5326189399
3616.5138244627	0.5375300646
3618.4426318358	0.5377901196
3620.3714392088	0.5346084833
3622.3002465819	0.5398271680
3624.2290539549	0.5380183458
3626.1578613280	0.5420038104
3628.0866687010	0.5466661453
3630.0154760741	0.5449197292
3631.9442834471	0.5471324325
3633.8730908202	0.5439403653
3635.8018981932	0.5466075540
3637.7307055663	0.5509042144
3639.6595129393	0.5502544045
3641.5883203124	0.5557140708
3643.5171276854	0.5615071654
3645.4459350584	0.5591182709
3647.3747424315	0.5624936223
3649.3035498045	0.5653759241
3651.2323571776	0.5576335788
3653.1611645506	0.5619890690
3655.0899719237	0.5655384064
3657.0187792967	0.5710195899
3658.9475866698	0.5699040890
3660.8763940428	0.5651515722
3662.8052014159	0.5765724778
3664.7340087889	0.5755897760
3666.6628161620	0.5778104663
3668.5916235350	0.5815833211
3670.5204309081	0.5753816366
3672.4492382811	0.5831763744
3674.3780456541	0.5805934668
3676.3068530272	0.5782279372
3678.2356604002	0.5842332840
3680.1644677733	0.5810217261
3682.0932751463	0.5845251083
3684.0220825194	0.5858873725
3685.9508898924	0.5817967057
3687.8796972655	0.5864028931
3689.8085046385	0.5836498141
3691.7373120116	0.5780724883
3693.6661193846	0.5830186605
3695.5949267577	0.5822583437
3697.5237341307	0.5791010261
3699.4525415038	0.5764933825
3701.3813488768	0.5761036873
3703.3101562499	0.5786008835
3705.2389636229	0.5749834180
3707.1677709959	0.5705016851
3709.0965783690	0.5696920156
3711.0253857420	0.5682635903
3712.9541931151	0.5611994863
3714.8830004881	0.5654602647
3716.8118078612	0.5660458207
3718.7406152342	0.5576785207
3720.6694226073	0.5592014790
3722.5982299803	0.5609943271
3724.5270373534	0.5597068667
3726.4558447264	0.5472828746
3728.3846520995	0.5508728027
3730.3134594725	0.5581445694
3732.2422668456	0.5411115885
3734.1710742186	0.5453041792
3736.0998815916	0.5476160049
3738.0286889647	0.5378747582
3739.9574963377	0.5413515568
3741.8863037108	0.5394082665
3743.8151110838	0.5319231749
3745.7439184569	0.5328967571
3747.6727258299	0.5384626985
3749.6015332030	0.5285899043
3751.5303405760	0.5262611508
3753.4591479491	0.5300491452
3755.3879553221	0.5244103074
3757.3167626952	0.5294988751
3759.2455700682	0.5283551812
3761.1743774413	0.5251255035
3763.1031848143	0.5210075974
3765.0319921873	0.5142235756
3766.9607995604	0.5175253153
3768.8896069334	0.5165933967
3770.8184143065	0.5179831386
3772.7472216795	0.5163531899
3774.6760290526	0.5129016042
3776.6048364256	0.5186793208
3778.5336437987	0.5154982805
3780.4624511717	0.5096849203
3782.3912585448	0.5090738535
3784.3200659178	0.5099297166
3786.2488732909	0.5091159344
3788.1776806639	0.5013715029
3790.1064880370	0.5029634833
3792.0352954100	0.5054910183
3793.9641027830	0.5014484525
3795.8929101561	0.5025935769
3797.8217175291	0.5045524836
3799.7505249022	0.5010433197
3801.6793322752	0.4932996929
3803.6081396483	0.4964727759
3805.5369470213	0.4960646033
3807.4657543944	0.4976224303
3809.3945617674	0.4973971248
3811.3233691405	0.4849102497
3813.2521765135	0.4915634096
3815.1809838866	0.4916657507
3817.1097912596	0.4888290763
3819.0385986327	0.4915433824
3820.9674060057	0.4813242257
3822.8962133787	0.4860075712
3824.8250207518	0.4804016054
3826.7538281248	0.4807590544
3828.6826354979	0.4882179499
3830.6114428709	0.4807159901
3832.5402502440	0.4816076159
3834.4690576170	0.4750722945
3836.3978649901	0.4748221040
3838.3266723631	0.4785722196
3840.2554797362	0.4786800742
3842.1842871092	0.4803722501
3844.1130944823	0.4721657634
3846.0419018553	0.4729812145
3847.9707092284	0.4756436944
3849.8995166014	0.4752444923
3851.8283239745	0.4709036350
3853.7571313475	0.4636217058
3855.6859387205	0.4685113430
3857.6147460936	0.4719017446
3859.5435534666	0.4707373679
3861.4723608397	0.4671861529
3863.4011682127	0.4660726786
3865.3299755858	0.4637542665
3867.2587829588	0.4678515792
3869.1875903319	0.4677421749
3871.1163977049	0.4624189138
3873.0452050780	0.4615891576
3874.9740124510	0.4567798078
3876.9028198241	0.4646924734
3878.8316271971	0.4618446231
3880.7604345702	0.4585970640
3882.6892419432	0.4663833082
3884.6180493162	0.4575361311
3886.5468566893	0.4622280896
3888.4756640623	0.4650705457
3890.4044714354	0.4565317631
3892.3332788084	0.4572432637
3894.2620861815	0.4550861716
3896.1908935545	0.4539322257
3898.1197009276	0.4576794207
3900.0485083006	0.4585554898
3901.9773156737	0.4546479881
3903.9061230467	0.4560192227
3905.8349304198	0.4544955492
3907.7637377928	0.4489550591
3909.6925451659	0.4503990114
3911.6213525389	0.4522994459
3913.5501599119	0.4531212449
3915.4789672850	0.4488148987
3917.4077746580	0.4512764812
3919.3365820311	0.4607585073
3921.2653894041	0.4548163712
3923.1941967772	0.4453684390
3925.1230041502	0.4428409636
3927.0518115233	0.4426573813
3928.9806188963	0.4466558397
3930.9094262694	0.4493323267
3932.8382336424	0.4415766597
3934.7670410155	0.4412347078
3936.6958483885	0.4448126853
3938.6246557616	0.4406565428
3940.5534631346	0.4405915141
3942.4822705076	0.4417790771
3944.4110778807	0.4441289008
3946.3398852537	0.4414969981
3948.2686926268	0.4379983842
3950.1974999998	0.4380996525
3952.1263073729	0.4352797568
3954.0551147459	0.4395728111
3955.9839221190	0.4416014552
3957.9127294920	0.4402185082
3959.8415368651	0.4365580976
3961.7703442381	0.4319373965
3963.6991516112	0.4381689727
3965.6279589842	0.4409691691
3967.5567663573	0.4368868172
3969.4855737303	0.4351265728
3971.4143811034	0.4374694228
3973.3431884764	0.4345788360
3975.2719958494	0.4302892387
3977.2008032225	0.4382838011
3979.1296105955	0.4375254214
3981.0584179686	0.4268544912
3982.9872253416	0.4291341007
3984.9160327147	0.4323224127
3986.8448400877	0.4328539371
3988.7736474608	0.4369834661
3990.7024548338	0.4318346977
3992.6312622069	0.4261822104
3994.5600695799	0.4239459932
3996.4888769530	0.4246495366
3998.4176843260	0.4309032559
4000.3464916991	0.4301443994
4002.2752990721	0.4297340214
4004.2041064451	0.4308780432
4006.1329138182	0.4318374097
4008.0617211912	0.4299063087
4009.9905285643	0.4241537750
4011.9193359373	0.4264422357
4013.8481433104	0.4311682880
4015.7769506834	0.4314759374
4017.7057580565	0.4243480563
4019.6345654295	0.4262627065
4021.5633728026	0.4304903150
4023.4921801756	0.4251797795
4025.4209875487	0.4254551232
4027.3497949217	0.4211766720
4029.2786022948	0.4238005579
4031.2074096678	0.4266094565
4033.1362170408	0.4167214632
4035.0650244139	0.4214574993
4036.9938317869	0.4272664785
4038.9226391600	0.4201486111
4040.8514465330	0.4252311885
4042.7802539061	0.4282243252
4044.7090612791	0.4170362651
4046.6378686522	0.4235225916
4048.5666760252	0.4269679189
4050.4954833983	0.4210757017
4052.4242907713	0.4237993658
4054.3530981444	0.4202144146
4056.2819055174	0.4176128805
4058.2107128905	0.4169202745
4060.1395202635	0.4214359522
4062.0683276365	0.4245077670
4063.9971350096	0.4204963148
4065.9259423826	0.4180712998
4067.8547497557	0.4177579880
4069.7835571287	0.4177872837
4071.7123645018	0.4149420261
4073.6411718748	0.4183860421
4075.5699792479	0.4160615206
4077.4987866209	0.4193824232
4079.4275939940	0.4152384996
4081.3564013670	0.4055526257
4083.2852087401	0.4220421314
4085.2140161131	0.4180798531
4087.1428234862	0.4114757776
4089.0716308592	0.4083370566
4091.0004382323	0.4082534313
4092.9292456053	0.4237422049
4094.8580529783	0.4165735245
4096.7868603514	0.4168091118
4098.7156677244	0.4163642824
4100.6444750975	0.4131829143
4102.5732824705	0.4176880121
4104.5020898436	0.4126053452
4106.4308972166	0.4113991857
4108.3597045897	0.4040095210
4110.2885119627	0.4082443714
4112.2173193358	0.4120753706
4114.1461267088	0.4056001008
4116.0749340819	0.4104930162
4118.0037414549	0.4122892022
4119.9325488280	0.4083528519
4121.8613562010	0.4074904621
4123.7901635740	0.4145215750
4125.7189709471	0.4120034575
4127.6477783201	0.4044556022
4129.5765856932	0.4070440233
4131.5053930662	0.4138211906
4133.4342004393	0.4087557495
4135.3630078123	0.4037390947
4137.2918151854	0.4161299467
4139.2206225584	0.4112956226
4141.1494299315	0.4110079408
4143.0782373045	0.4093567729
4145.0070446776	0.3980747759
4146.9358520506	0.4080975056
4148.8646594237	0.4021281004
4150.7934667967	0.4057427645
4152.7222741697	0.4173651338
4154.6510815428	0.4081653059
4156.5798889158	0.4017572999
4158.5086962889	0.3954683542
4160.4375036619	0.4031294286
4162.3663110350	0.4039436579
4164.2951184080	0.3986428082
4166.2239257811	0.4064756632
4168.1527331541	0.4049771726
4170.0815405272	0.3999799788
4172.0103479002	0.3975566626
4173.9391552733	0.4029243290
4175.8679626463	0.4017700553
4177.7967700194	0.3936263621
4179.7255773924	0.3998543620
4181.6543847654	0.4078479409
4183.5831921385	0.4067584574
4185.5119995115	0.3974199891
4187.4408068846	0.3980270624
4189.3696142576	0.3986451626
4191.2984216307	0.3982426822
4193.2272290037	0.4062081873
4195.1560363768	0.3938958645
4197.0848437498	0.3920492828
4199.0136511229	0.4011056125
4200.9424584959	0.3958007693
4202.8712658690	0.3974451125
4204.8000732420	0.3998063803
4206.7288806151	0.4000260234
4208.6576879881	0.3940714002
4210.5864953611	0.3958188593
4212.5153027342	0.3992301822
4214.4441101072	0.3937350512
4216.3729174803	0.3996498585
4218.3017248533	0.3949267566
4220.2305322264	0.3955575526
4222.1593395994	0.4006503522
4224.0881469725	0.3986372352
4226.0169543455	0.4008113444
4227.9457617186	0.3876253963
4229.8745690916	0.3927680552
4231.8033764647	0.4015174508
4233.7321838377	0.3923387825
4235.6609912108	0.3935545385
4237.5897985838	0.3921571076
4239.5186059569	0.3907617033
4241.4474133299	0.3911466300
4243.3762207029	0.3940079808
4245.3050280760	0.3905068934
4247.2338354490	0.3867453337
4249.1626428221	0.3926478028
4251.0914501951	0.3887583017
4253.0202575682	0.3928458393
4254.9490649412	0.3975908458
4256.8778723143	0.3949206769
4258.8066796873	0.3913398385
4260.7354870604	0.3885919154
4262.6642944334	0.3908289969
4264.5931018065	0.3819786310
4266.5219091795	0.3867581785
4268.4507165526	0.3988406658
4270.3795239256	0.3926947415
4272.3083312986	0.3817215264
4274.2371386717	0.3773327470
4276.1659460447	0.3872705698
4278.0947534178	0.3932237625
4280.0235607908	0.3917693198
4281.9523681639	0.3870673776
4283.8811755369	0.3878447711
4285.8099829100	0.3913818598
4287.7387902830	0.3870508373
4289.6675976561	0.3877907693
4291.5964050291	0.3841327727
4293.5252124022	0.3849579394
4295.4540197752	0.3883440495
4297.3828271483	0.3908647001
4299.3116345213	0.3979061544
4301.2404418943	0.3866032362
4303.1692492674	0.3767138422
4305.0980566404	0.3852239251
4307.0268640135	0.3916125000
4308.9556713865	0.3887597024
4310.8844787596	0.3949233294
4312.8132861326	0.3947891295
4314.7420935057	0.3820334971
4316.6709008787	0.3861673176
4318.5997082518	0.3891459703
4320.5285156248	0.3873393834
4322.4573229979	0.3871772289
4324.3861303709	0.3862496316
4326.3149377440	0.3815172911
4328.2437451170	0.3830864727
4330.1725524900	0.3883051872
4332.1013598631	0.3772438467
4334.0301672361	0.3817172050
4335.9589746092	0.3824761510
4337.8877819822	0.3842517138
4339.8165893553	0.3917137682
4341.7453967283	0.3768890500
4343.6742041014	0.3840765059
4345.6030114744	0.3887351453
4347.5318188475	0.3847758472
4349.4606262205	0.3859426379
4351.3894335936	0.3815788925
4353.3182409666	0.3861097991
4355.2470483397	0.3837299347
4357.1758557127	0.3842538595
4359.1046630858	0.3810418844
4361.0334704588	0.3833135068
4362.9622778318	0.3900447488
4364.8910852049	0.3780037463
4366.8198925779	0.3785953522
4368.7486999510	0.3863426745
4370.6775073240	0.3817170858
4372.6063146971	0.3773229718
4374.5351220701	0.3835538030
4376.4639294432	0.3791171014
4378.3927368162	0.3749767840
4380.3215441893	0.3850665390
4382.2503515623	0.3847852349
4384.1791589354	0.3839084804
4386.1079663084	0.3786664009
4388.0367736815	0.3752593398
4389.9655810545	0.3733677566
4391.8943884275	0.3767932355
4393.8231958006	0.3849477470
4395.7520031736	0.3769957721
4397.6808105467	0.3850586116
4399.6096179197	0.3812744915
4401.5384252928	0.3705337048
4403.4672326658	0.3802181482
4405.3960400389	0.3793798089
4407.3248474119	0.3885924220
4409.2536547850	0.3809001148
4411.1824621580	0.3696500361
4413.1112695311	0.3813705742
4415.0400769041	0.3740722835
4416.9688842772	0.3693165183
4418.8976916502	0.3739071488
4420.8264990232	0.3844918013
4422.7553063963	0.3855876327
4424.6841137693	0.3731100559
4426.6129211424	0.3750209808
4428.5417285154	0.3764042854
4430.4705358885	0.3846761286
4432.3993432615	0.3811152875
4434.3281506346	0.3717018366
4436.2569580076	0.3749908209
4438.1857653807	0.3728635907
4440.1145727537	0.3774106801
4442.0433801268	0.3686995506
4443.9721874998	0.3757097721
4445.9009948729	0.3833739758
4447.8298022459	0.3732552826
4449.7586096189	0.3904129863
4451.6874169920	0.3862235844
4453.6162243650	0.3773742616
4455.5450317381	0.3780977428
4457.4738391111	0.3757649958
4459.4026464842	0.3793357611
4461.3314538572	0.3685322404
4463.2602612303	0.3707036376
4465.1890686033	0.3750916421
4467.1178759764	0.3719445467
4469.0466833494	0.3754085004
4470.9754907225	0.3877827823
4472.9042980955	0.3859364688
4474.8331054686	0.3763721287
4476.7619128416	0.3887495100
4478.6907202147	0.3786387444
4480.6195275877	0.3773468733
4482.5483349607	0.3799913228
4484.4771423338	0.3694832325
4486.4059497068	0.3832466900
4488.3347570799	0.3752270043
4490.2635644529	0.3678509295
4492.1923718260	0.3717582822
4494.1211791990	0.3624549806
4496.0499865721	0.3636988997
4497.9787939451	0.3645199537
4499.9076013182	0.3702180982
4501.8364086912	0.3819530606
4503.7652160643	0.3713659048
4505.6940234373	0.3675277233
4507.6228308104	0.3820361495
4509.5516381834	0.3722404242
4511.4804455564	0.3658886850
4513.4092529295	0.3796362579
4515.3380603025	0.3788079321
4517.2668676756	0.3708709180
4519.1956750486	0.3734669089
4521.1244824217	0.3736419380
4523.0532897947	0.3680058718
4524.9820971678	0.3678953350
4526.9109045408	0.3667090833
4528.8397119139	0.3695607185
4530.7685192869	0.3655308187
4532.6973266600	0.3669222593
4534.6261340330	0.3703719676
4536.5549414061	0.3688631654
4538.4837487791	0.3813008964
4540.4125561521	0.3730168641
4542.3413635252	0.3726995289
4544.2701708982	0.3692928255
4546.1989782713	0.3664355576
4548.1277856443	0.3845946193
4550.0565930174	0.3723272979
4551.9854003904	0.3703658283
4553.9142077635	0.3717975318
4555.8430151365	0.3713795841
4557.7718225096	0.3737446964
4559.7006298826	0.3695369363
4561.6294372557	0.3700148165
4563.5582446287	0.3714955151
4565.4870520018	0.3758952022
4567.4158593748	0.3617681861
4569.3446667478	0.3787329495
4571.2734741209	0.3765685856
4573.2022814939	0.3646522164
4575.1310888670	0.3820332587
4577.0598962400	0.3606033027
4578.9887036131	0.3679634333
4580.9175109861	0.3641410470
4582.8463183592	0.3570700884
4584.7751257322	0.3627697229
4586.7039331053	0.3510449827
4588.6327404783	0.3703486621
4590.5615478514	0.3646172285
4592.4903552244	0.3682383001
4594.4191625975	0.3702936172
4596.3479699705	0.3619954586
4598.2767773435	0.3739433289
4600.2055847166	0.3709961772
4602.1343920896	0.3748902678
4604.0631994627	0.3663523793
4605.9920068357	0.3670529127
4607.9208142088	0.3677048087
4609.8496215818	0.3583222628
4611.7784289549	0.3656353652
4613.7072363279	0.3723448217
4615.6360437010	0.3710860610
4617.5648510740	0.3605863452
4619.4936584471	0.3709011972
4621.4224658201	0.3652978837
4623.3512731932	0.3545050621
4625.2800805662	0.3605055809
4627.2088879393	0.3612764776
4629.1376953123	0.3686745465
4631.0665026853	0.3584797084
4632.9953100584	0.3685955703
4634.9241174314	0.3823521137
4636.8529248045	0.3660107851
4638.7817321775	0.3653731644
4640.7105395506	0.3638523221
4642.6393469236	0.3558172882
4644.5681542967	0.3577769399
4646.4969616697	0.3646284640
4648.4257690428	0.3732895553
4650.3545764158	0.3774698973
4652.2833837889	0.3697431684
4654.2121911619	0.3691963553
4656.1409985350	0.3721667826
4658.0698059080	0.3639850318
4659.9986132810	0.3579874039
4661.9274206541	0.3635412157
4663.8562280271	0.3727759421
4665.7850354002	0.3639926910
4667.7138427732	0.3620495200
4669.6426501463	0.3677216172
4671.5714575193	0.3637329042
4673.5002648924	0.3668329120
4675.4290722654	0.3635949492
4677.3578796385	0.3597615063
4679.2866870115	0.3569403291
4681.2154943846	0.3486334383
4683.1443017576	0.3583674729
4685.0731091307	0.3644322455
4687.0019165037	0.3605086207
4688.9307238767	0.3661203086
4690.8595312498	0.3487237394
4692.7883386228	0.3515274823
4694.7171459959	0.3727602661
4696.6459533689	0.3654046953
4698.5747607420	0.3744601607
4700.5035681150	0.3662969768
4702.4323754881	0.3687115908
4704.3611828611	0.3690742254
4706.2899902342	0.3410189450
4708.2187976072	0.3635596037
4710.1476049803	0.3643928468
4712.0764123533	0.3505050242
4714.0052197264	0.3589456379
4715.9340270994	0.3630051911
4717.8628344724	0.3706409931
4719.7916418455	0.3610210419
4721.7204492185	0.3608666360
4723.6492565916	0.3643108606
4725.5780639646	0.3615494370
4727.5068713377	0.3585793972
4729.4356787107	0.3616630733
4731.3644860838	0.3685493171
4733.2932934568	0.3699153364
4735.2221008299	0.3676919937
4737.1509082029	0.3592796624
4739.0797155760	0.3702984750
4741.0085229490	0.3620283008
4742.9373303221	0.3565739393
4744.8661376951	0.3600369096
4746.7949450682	0.3468057215
4748.7237524412	0.3586831391
4750.6525598142	0.3530976176
4752.5813671873	0.3546021283
4754.5101745603	0.3605543673
4756.4389819334	0.3590048552
4758.3677893064	0.3708838522
4760.2965966795	0.3651064932
4762.2254040525	0.3655145466
4764.1542114256	0.3562153578
4766.0830187986	0.3531202972
4768.0118261717	0.3533784449
4769.9406335447	0.3517823219
4771.8694409178	0.3627592921
4773.7982482908	0.3496083021
4775.7270556639	0.3577927947
4777.6558630369	0.3654197454
4779.5846704099	0.3516323864
4781.5134777830	0.3486826420
4783.4422851560	0.3473711014
4785.3710925291	0.3602816164
4787.2998999021	0.3715063334
4789.2287072752	0.3713671267
4791.1575146482	0.3652705550
4793.0863220213	0.3664330840
4795.0151293943	0.3684139550
4796.9439367674	0.3565023243
4798.8727441404	0.3555764556
4800.8015515135	0.3632462621
4802.7303588865	0.3649639785
4804.6591662596	0.3594889641
4806.5879736326	0.3533313572
4808.5167810056	0.3574571908
4810.4455883787	0.3602614701
4812.3743957517	0.3515196741
4814.3032031248	0.3564482033
4816.2320104978	0.3574146628
4818.1608178709	0.3540538847
4820.0896252439	0.3737669587
4822.0184326170	0.3610907197
4823.9472399900	0.3404517174
4825.8760473631	0.3538745642
4827.8048547361	0.3647025824
4829.7336621092	0.3563556671
4831.6624694822	0.3420490324
4833.5912768553	0.3571206927
4835.5200842283	0.3559503257
4837.4488916013	0.3471367359
4839.3776989744	0.3687631488
4841.3065063474	0.3579907715
4843.2353137205	0.3597116768
4845.1641210935	0.3718874156
4847.0929284666	0.3550457358
4849.0217358396	0.3598003685
4850.9505432127	0.3615994155
4852.8793505857	0.3586413860
4854.8081579588	0.3604976833
4856.7369653318	0.3551643491
4858.6657727049	0.3549211621
4860.5945800779	0.3489693999
4862.5233874510	0.3424114287
4864.4521948240	0.3415368199
4866.3810021971	0.3692449331
4868.3098095701	0.3759533167
4870.2386169431	0.3485534787
4872.1674243162	0.3623327911
4874.0962316892	0.3524162769
4876.0250390623	0.3493310511
4877.9538464353	0.3732276261
4879.8826538084	0.3578234911
4881.8114611814	0.3619261980
4883.7402685545	0.3506069481
4885.6690759275	0.3274058998
4887.5978833006	0.3457086980
4889.5266906736	0.3637376130
4891.4554980467	0.3577774167
4893.3843054197	0.3413326740
4895.3131127928	0.3552478254
4897.2419201658	0.3607409000
4899.1707275388	0.3496535718
4901.0995349119	0.3464246690
4903.0283422849	0.3354061246
4904.9571496580	0.3498849273
4906.8859570310	0.3604671061
4908.8147644041	0.3464452624
4910.7435717771	0.3439569473
4912.6723791502	0.3451136947
4914.6011865232	0.3422468305
4916.5299938963	0.3399062753
4918.4588012693	0.3439382613
4920.3876086424	0.3584322929
4922.3164160154	0.3612159789
4924.2452233885	0.3547016382
4926.1740307615	0.3538527191
4928.1028381345	0.3431847394
4930.0316455076	0.3490761817
4931.9604528806	0.3560504019
4933.8892602537	0.3448976874
4935.8180676267	0.3450248241
4937.7468749998	0.3421876729
4939.6756823728	0.3433675468
4941.6044897459	0.3451358378
4943.5332971189	0.3539688587
4945.4621044920	0.3589389622
4947.3909118650	0.3551554680
4949.3197192381	0.3571577072
4951.2485266111	0.3456111848
4953.1773339842	0.3647667766
4955.1061413572	0.3742700815
4957.0349487302	0.3536962271
4958.9637561033	0.3562309146
4960.8925634763	0.3669187427
4962.8213708494	0.3610864580
4964.7501782224	0.3384115398
4966.6789855955	0.3573993146
4968.6077929685	0.3432695866
4970.5366003416	0.3215068281
4972.4654077146	0.3567602932
4974.3942150877	0.3517703414
4976.3230224607	0.3638847470
4978.2518298338	0.3622220755
4980.1806372068	0.3391044438
4982.1094445799	0.3432713449
4984.0382519529	0.3354896009
4985.9670593259	0.3495621085
4987.8958666990	0.3416974545
4989.8246740720	0.3508217037
4991.7534814451	0.3625290692
4993.6822888181	0.3348733485
4995.6110961912	0.3511379957
4997.5399035642	0.3470978439
4999.4687109373	0.3359926045
5001.3975183103	0.3609220982
5003.3263256834	0.3539983928
5005.2551330564	0.3334762454
5007.1839404295	0.3479780257
5009.1127478025	0.3593146503
5011.0415551756	0.3356406093
5012.9703625486	0.3476761580
5014.8991699217	0.3604377508
5016.8279772947	0.3474124074
5018.7567846677	0.3771302104
5020.6855920408	0.3776886463
5022.6143994138	0.3401941657
5024.5432067869	0.3505523801
5026.4720141599	0.3604227602
5028.4008215330	0.3396166861
5030.3296289060	0.3327305019
5032.2584362791	0.3360340893
5034.1872436521	0.3388167024
5036.1160510252	0.3494273126
5038.0448583982	0.3641820252
5039.9736657713	0.3651885390
5041.9024731443	0.3489553630
5043.8312805174	0.3335685134
5045.7600878904	0.3390384912
5047.6888952634	0.3508798480
5049.6177026365	0.3388589621
5051.5465100095	0.3332014084
5053.4753173826	0.3509772420
5055.4041247556	0.3477218747
5057.3329321287	0.3315380216
5059.2617395017	0.3455066383
5061.1905468748	0.3473257422
5063.1193542478	0.3267926276
5065.0481616209	0.3498266339
5066.9769689939	0.3672947884
5068.9057763670	0.3470937312
5070.8345837400	0.3345727623
5072.7633911131	0.3282040358
5074.6921984861	0.3476620317
5076.6210058591	0.3619040251
5078.5498132322	0.3405615985
5080.4786206052	0.3335582614
5082.4074279783	0.3457634151
5084.3362353513	0.3571500778
5086.2650427244	0.3545787036
5088.1938500974	0.3419333100
5090.1226574705	0.3485040069
5092.0514648435	0.3476625681
5093.9802722166	0.3320663273
5095.9090795896	0.3304487169
5097.8378869627	0.3240398467
5099.7666943357	0.3495085239
5101.6955017088	0.3751786351
5103.6243090818	0.3573013544
5105.5531164548	0.3517463207
5107.4819238279	0.3360045552
5109.4107312009	0.3496519923
5111.3395385740	0.3493480980
5113.2683459470	0.3167642355
5115.1971533201	0.3630197048
5117.1259606931	0.3615334332
5119.0547680662	0.3349528015
5120.9835754392	0.3612945676
5122.9123828123	0.3567644358
5124.8411901853	0.3481099010
5126.7699975584	0.3295968175
5128.6988049314	0.3439207375
5130.6276123045	0.3496832252
5132.5564196775	0.3342270255
5134.4852270506	0.3656133115
5136.4140344236	0.3501751423
5138.3428417966	0.3423746228
5140.2716491697	0.3574120402
5142.2004565427	0.3516523838
5144.1292639158	0.3499713838
5146.0580712888	0.3323721886
5147.9868786619	0.3461278081
5149.9156860349	0.3555344343
5151.8444934080	0.3580407500
5153.7733007810	0.3542119563
5155.7021081541	0.3359604180
5157.6309155271	0.3497578502
5159.5597229002	0.3485400975
5161.4885302732	0.3434381783
5163.4173376463	0.3459394872
5165.3461450193	0.3566353917
5167.2749523923	0.3484761715
5169.2037597654	0.3376023769
5171.1325671384	0.3572924137
5173.0613745115	0.3393373191
5174.9901818845	0.3363609314
5176.9189892576	0.3431189954
5178.8477966306	0.3461373448
5180.7766040037	0.3612063527
5182.7054113767	0.3546048999
5184.6342187498	0.3385436833
5186.5630261228	0.3253788352
5188.4918334959	0.3586440682
5190.4206408689	0.3512961268
5192.3494482420	0.3375442326
5194.2782556150	0.3565008640
5196.2070629880	0.3319444954
5198.1358703611	0.3383865952
5200.0646777341	0.3478405178
5201.9934851072	0.3543390036
5203.9222924802	0.3663888872
5205.8510998533	0.3604763448
5207.7799072263	0.3380063772
5209.7087145994	0.3311804533
5211.6375219724	0.3506215811
5213.5663293455	0.3187975585
5215.4951367185	0.3583828509
5217.4239440916	0.3926556408
5219.3527514646	0.3231189549
5221.2815588377	0.3356900215
5223.2103662107	0.3505762517
5225.1391735837	0.3310773373
5227.0679809568	0.3333976865
5228.9967883298	0.3366020918
5230.9255957029	0.3438940942
5232.8544030759	0.3354070187
5234.7832104490	0.3345353007
5236.7120178220	0.3472093940
5238.6408251951	0.3654694557
5240.5696325681	0.3699631095
5242.4984399412	0.3549472392
5244.4272473142	0.3415037096
5246.3560546873	0.3310596943
5248.2848620603	0.3380821049
5250.2136694334	0.3332971632
5252.1424768064	0.3310436010
5254.0712841795	0.3549920022
5256.0000915525	0.3410017490
5257.9288989255	0.3390760422
5259.8577062986	0.3626092970
5261.7865136716	0.3322650492
5263.7153210447	0.3234214187
5265.6441284177	0.3414668739
5267.5729357908	0.3430447578
5269.5017431638	0.3454625309
5271.4305505369	0.3469593823
5273.3593579099	0.3555382490
5275.2881652830	0.3302696049
5277.2169726560	0.3383637965
5279.1457800291	0.3771234751
5281.0745874021	0.3564201295
5283.0033947752	0.3391481936
5284.9322021482	0.3615751565
5286.8610095212	0.3653936684
5288.7898168943	0.3204320967
5290.7186242673	0.3213306665
5292.6474316404	0.3441446126
5294.5762390134	0.3149892986
5296.5050463865	0.3301876485
5298.4338537595	0.3408000767
5300.3626611326	0.3241678178
5302.2914685056	0.3522232175
5304.2202758787	0.3565707207
5306.1490832517	0.3415347338
5308.0778906248	0.3521329165
5310.0066979978	0.3516051769
5311.9355053709	0.3568306565
5313.8643127439	0.3551652133
5315.7931201169	0.3418543935
5317.7219274900	0.3489568532
5319.6507348630	0.3319725096
5321.5795422361	0.3338937759
5323.5083496091	0.3568519950
5325.4371569822	0.3537106812
5327.3659643552	0.3583793640
5329.2947717283	0.3373583555
5331.2235791013	0.3318492174
5333.1523864744	0.3578080833
5335.0811938474	0.3276912868
5337.0100012205	0.3191289902
5338.9388085935	0.3390080333
5340.8676159666	0.3353458643
5342.7964233396	0.3551471829
5344.7252307126	0.3360730410
5346.6540380857	0.3455124497
5348.5828454587	0.3838712275
5350.5116528318	0.3473437726
5352.4404602048	0.3350477219
5354.3692675779	0.3264222741
5356.2980749509	0.3507835567
5358.2268823240	0.3466102481
5360.1556896970	0.3302619457
5362.0844970701	0.3732944131
5364.0133044431	0.3370538652
5365.9421118162	0.3607653677
5367.8709191892	0.3458098769
5369.7997265623	0.2999871373
5371.7285339353	0.3502043486
5373.6573413083	0.3367812037
5375.5861486814	0.3651758432
5377.5149560544	0.3487754464
5379.4437634275	0.3359671533
5381.3725708005	0.3761219978
5383.3013781736	0.3491303921
5385.2301855466	0.3530008495
5387.1589929197	0.3192210793
5389.0878002927	0.3225963414
5391.0166076658	0.3480009437
5392.9454150388	0.3243958354
5394.8742224119	0.3488179743
5396.8030297849	0.3707236946
5398.7318371580	0.3460490108
5400.6606445310	0.3284287453
5402.5894519041	0.3545466959
5404.5182592771	0.3430269957
5406.4470666501	0.3397647142
5408.3758740232	0.3586846590
5410.3046813962	0.3452190459
5412.2334887693	0.3310994506
5414.1622961423	0.3258802593
5416.0911035154	0.3577279449
5418.0199108884	0.3414413631
5419.9487182615	0.3017197847
5421.8775256345	0.3169259429
5423.8063330076	0.3517737389
5425.7351403806	0.3260175586
5427.6639477537	0.3247390389
5429.5927551267	0.3678238094
5431.5215624998	0.2966404557
5433.4503698728	0.3303094506
5435.3791772458	0.3693187535
5437.3079846189	0.3400470018
5439.2367919919	0.3809802830
5441.1655993650	0.3357928395
5443.0944067380	0.3840219080
5445.0232141111	0.3719429672
5446.9520214841	0.2950861156
5448.8808288572	0.3612979054
5450.8096362302	0.3243972361
5452.7384436033	0.3171724081
5454.6672509763	0.3319719434
5456.5960583494	0.2906952798
5458.5248657224	0.3163086772
5460.4536730955	0.3500473201
5462.3824804685	0.3306124508
5464.3112878415	0.2889971733
5466.2400952146	0.3465156257
5468.1689025876	0.3510059118
5470.0977099607	0.3173242807
5472.0265173337	0.3570592105
5473.9553247068	0.3175190389
5475.8841320798	0.3447115719
5477.8129394529	0.3996873498
5479.7417468259	0.3428012133
5481.6705541990	0.3260921538
5483.5993615720	0.3336351216
5485.5281689451	0.3286418915
5487.4569763181	0.3090949357
5489.3857836912	0.3332633972
5491.3145910642	0.3787948489
5493.2433984372	0.3535103500
5495.1722058103	0.3351883888
5497.1010131833	0.3278269172
5499.0298205564	0.3037967384
5500.9586279294	0.3198590577
5502.8874353025	0.3363924325
5504.8162426755	0.3304112554
5506.7450500486	0.3572368324
5508.6738574216	0.3457714915
5510.6026647947	0.3223456442
5512.5314721677	0.3468821049
5514.4602795408	0.3486637771
5516.3890869138	0.3406164944
5518.3178942869	0.3215441108
5520.2467016599	0.3149300218
5522.1755090330	0.3356825113
5524.1043164060	0.3394338787
5526.0331237790	0.3265474439
5527.9619311521	0.3300732076
5529.8907385251	0.3416360617
5531.8195458982	0.2871269882
5533.7483532712	0.3297506273
5535.6771606443	0.3903052509
5537.6059680173	0.2958552837
5539.5347753904	0.3239435852
5541.4635827634	0.3404929042
5543.3923901365	0.3080450594
5545.3211975095	0.3635362387
5547.2500048826	0.3636330068
5549.1788122556	0.3532831371
5551.1076196287	0.3581648171
5553.0364270017	0.3521960080
5554.9652343747	0.3332970440
5556.8940417478	0.3015803397
5558.8228491208	0.3033971488
5560.7516564939	0.3297044337
5562.6804638669	0.3513730168
5564.6092712400	0.3363395631
5566.5380786130	0.3354078829
5568.4668859861	0.3628970385
5570.3956933591	0.3760091364
5572.3245007322	0.3621233404
5574.2533081052	0.3349840939
5576.1821154783	0.3349777758
5578.1109228513	0.3279068768
5580.0397302244	0.3249421716
5581.9685375974	0.3132072985
5583.8973449704	0.2761771381
5585.8261523435	0.3099483252
5587.7549597165	0.3419751227
5589.6837670896	0.2999688685
5591.6125744626	0.3211305141
5593.5413818357	0.3448886275
5595.4701892087	0.2846857905
5597.3989965818	0.3128863275
5599.3278039548	0.3528881371
5601.2566113279	0.3101128638
5603.1854187009	0.3260744810
5605.1142260740	0.3197683394
5607.0430334470	0.3248646259
5608.9718408201	0.3498745561
5610.9006481931	0.3157048821
5612.8294555661	0.3363406956
5614.7582629392	0.3333646953
5616.6870703122	0.3207004666
5618.6158776853	0.3385251462
5620.5446850583	0.3432293534
5622.4734924314	0.3494620919
5624.4022998044	0.3293693960
5626.3311071775	0.3406350315
5628.2599145505	0.3365008831
5630.1887219236	0.3707499504
5632.1175292966	0.3792971373
5634.0463366697	0.3217951059
5635.9751440427	0.3648535311
5637.9039514158	0.3427686393
5639.8327587888	0.3483092487
5641.7615661619	0.3776890337
5643.6903735349	0.3323730230
5645.6191809079	0.3237749338
5647.5479882810	0.3137996793
5649.4767956540	0.3420238495
5651.4056030271	0.2899573445
5653.3344104001	0.2892984450
5655.2632177732	0.3455292284
5657.1920251462	0.3203291595
5659.1208325193	0.3544968665
5661.0496398923	0.3223361373
5662.9784472654	0.3341347575
5664.9072546384	0.3540361226
5666.8360620115	0.3178418577
5668.7648693845	0.3496584296
5670.6936767576	0.2990733385
5672.6224841306	0.3210741878
5674.5512915036	0.3701998591
5676.4800988767	0.3171823621
5678.4089062497	0.3188860714
5680.3377136228	0.3496908844
5682.2665209958	0.3724476695
5684.1953283689	0.3354218006
5686.1241357419	0.3296435177
5688.0529431150	0.3654342592
5689.9817504880	0.3173630238
5691.9105578611	0.3169838488
5693.8393652341	0.3528434634
5695.7681726072	0.3327757716
5697.6969799802	0.3596784770
5699.6257873533	0.3705138564
5701.5545947263	0.3564735353
5703.4834020993	0.3493060172
5705.4122094724	0.3598350286
5707.3410168454	0.3729462624
5709.2698242185	0.3276680410
5711.1986315915	0.3336513340
5713.1274389646	0.3584230542
5715.0562463376	0.3621430099
5716.9850537107	0.2981924713
5718.9138610837	0.2666385174
5720.8426684568	0.3346633613
5722.7714758298	0.3080890179
5724.7002832029	0.3451721072
5726.6290905759	0.3528743982
5728.5578979490	0.2862321138
5730.4867053220	0.2864418626
5732.4155126950	0.2737413347
5734.3443200681	0.3418211043
5736.2731274411	0.2953425050
5738.2019348142	0.2952688634
5740.1307421872	0.3668396473
5742.0595495603	0.3080956936
5743.9883569333	0.3250795007
5745.9171643064	0.3193285167
5747.8459716794	0.3645547032
5749.7747790525	0.3976837695
5751.7035864255	0.3601727784
5753.6323937986	0.3114511669
5755.5612011716	0.2898800373
5757.4900085447	0.3987974524
5759.4188159177	0.3242379427
5761.3476232907	0.2673403621
5763.2764306638	0.3728819489
5765.2052380368	0.3986044526
5767.1340454099	0.3470471501
5769.0628527829	0.3195848465
5770.9916601560	0.3556221724
5772.9204675290	0.3238451481
5774.8492749021	0.3230830133
5776.7780822751	0.3466287553
5778.7068896482	0.3169603348
5780.6356970212	0.3093379140
5782.5645043943	0.3022368848
5784.4933117673	0.3626657128
5786.4221191404	0.3564794660
5788.3509265134	0.3364993036
5790.2797338865	0.3616908789
5792.2085412595	0.3341009915
5794.1373486325	0.3257052600
5796.0661560056	0.3378602564
5797.9949633786	0.3785007596
5799.9237707517	0.3751492202
5801.8525781247	0.3537543416
5803.7813854978	0.3585328162
5805.7101928708	0.3494308591
5807.6390002439	0.3729777932
5809.5678076169	0.3251758218
5811.4966149900	0.3003531694
5813.4254223630	0.3582556844
5815.3542297361	0.3067687750
5817.2830371091	0.3019472659
5819.2118444822	0.3716924489
5821.1406518552	0.3039468825
5823.0694592282	0.2721085250
5824.9982666013	0.3477998078
5826.9270739743	0.3361535668
5828.8558813474	0.3316228390
5830.7846887204	0.3930315375
5832.7134960935	0.3690162599
5834.6423034665	0.3349341452
5836.5711108396	0.3581759632
5838.4999182126	0.3041918278
5840.4287255857	0.2626149952
5842.3575329587	0.2839562297
5844.2863403318	0.2875612080
5846.2151477048	0.3456753194
5848.1439550779	0.3635668457
5850.0727624509	0.3476689756
5852.0015698239	0.3379462063
5853.9303771970	0.2399763763
5855.8591845700	0.2633207142
5857.7879919431	0.2880954146
5859.7167993161	0.2612076402
5861.6456066892	0.3237641454
5863.5744140622	0.3375479281
5865.5032214353	0.3459925652
5867.4320288083	0.3358406126
5869.3608361814	0.3047154546
5871.2896435544	0.3548631668
5873.2184509275	0.3176444471
5875.1472583005	0.3102708459
5877.0760656736	0.2980140746
5879.0048730466	0.2662079632
5880.9336804196	0.3201389909
5882.8624877927	0.3059252203
5884.7912951657	0.3288698196
5886.7201025388	0.3310953975
5888.6489099118	0.3546943069
5890.5777172849	0.3404738903
5892.5065246579	0.2607528269
5894.4353320310	0.3407590687
5896.3641394040	0.3343552649
5898.2929467771	0.3590305150
5900.2217541501	0.3737759292
5902.1505615232	0.3035725057
5904.0793688962	0.3541183472
5906.0081762693	0.2631100714
5907.9369836423	0.3516952693
5909.8657910154	0.4115725160
5911.7945983884	0.2626410127
5913.7234057614	0.3795829415
5915.6522131345	0.3593656421
5917.5810205075	0.2586051226
5919.5098278806	0.3403264880
5921.4386352536	0.3730006218
5923.3674426267	0.3240188956
5925.2962499997	0.3190797567
5927.2250573728	0.3756695688
5929.1538647458	0.3478898704
5931.0826721189	0.2836705148
5933.0114794919	0.2827638388
5934.9402868650	0.3014110923
5936.8690942380	0.3035125434
5938.7979016111	0.3005999625
5940.7267089841	0.3069171011
5942.6555163571	0.3025304079
5944.5843237302	0.3037199676
5946.5131311032	0.2993949652
5948.4419384763	0.3198357522
5950.3707458493	0.2935217023
5952.2995532224	0.3026604652
5954.2283605954	0.3615966141
5956.1571679685	0.3169339001
5958.0859753415	0.3097015023
5960.0147827146	0.3082843721
5961.9435900876	0.3365596235
5963.8723974607	0.4085552990
5965.8012048337	0.4300762415
5967.7300122068	0.3793446124
5969.6588195798	0.3090374470
5971.5876269528	0.3502300084
5973.5164343259	0.3364334106
5975.4452416989	0.3416401148
5977.3740490720	0.3054683208
5979.3028564450	0.2503276169
5981.2316638181	0.2853482664
5983.1604711911	0.2457155138
5985.0892785642	0.3572210968
5987.0180859372	0.3811542094
5988.9468933103	0.3359164000
5990.8757006833	0.3727656901
5992.8045080564	0.3101891577
5994.7333154294	0.3912025690
5996.6621228025	0.3184865117
5998.5909301755	0.2806939185
6000.5197375485	0.3732285202
