399.2631262207	0.0010766813
401.1919335938	0.0008788829
403.1207409668	0.0007887469
405.0495483398	0.0008841526
406.9783557129	0.0008673350
408.9071630859	0.0011748957
410.8359704590	0.0013736200
412.7647778320	0.0012792288
414.6935852051	0.0013071788
416.6223925781	0.0007865639
418.5511999512	0.0008880309
420.4800073242	0.0014378851
422.4088146973	0.0013480696
424.3376220703	0.0014560627
426.2664294434	0.0014513163
428.1952368164	0.0012103625
430.1240441895	0.0011754473
432.0528515625	0.0015385462
433.9816589355	0.0014491889
435.9104663086	0.0008832127
437.8392736816	0.0007656418
439.7680810547	0.0012823746
441.6968884277	0.0017862853
443.6256958008	0.0009697914
445.5545031738	0.0009061653
447.4833105469	0.0016092754
449.4121179199	0.0014457754
451.3409252930	0.0012275644
453.2697326660	0.0007479473
455.1985400391	0.0010333150
457.1273474121	0.0011388989
459.0561547852	0.0007410250
460.9849621582	0.0006887714
462.9137695313	0.0005488593
464.8425769043	0.0009818543
466.7713842773	0.0004999267
468.7001916504	0.0002614514
470.6289990234	0.0003250877
472.5578063965	-0.0001057010
474.4866137695	0.0006176571
476.4154211426	0.0004572811
478.3442285156	0.0003287744
480.2730358887	0.0005238212
482.2018432617	0.0002226439
484.1306506348	0.0005512852
486.0594580078	0.0000037704
487.9882653809	0.0001120716
489.9170727539	0.0005424927
491.8458801270	0.0003373012
493.7746875000	0.0003210187
495.7034948730	-0.0002245703
497.6323022461	0.0000630883
499.5611096191	0.0002808397
501.4899169922	0.0003726862
503.4187243652	0.0004726119
505.3475317383	0.0000236466
507.2763391113	0.0003229137
509.2051464844	0.0003776044
511.1339538574	0.0005223014
513.0627612305	0.0005411487
514.9915686035	0.0000187556
516.9203759766	0.0001721386
518.8491833496	0.0004751325
520.7779907227	0.0003219635
522.7067980957	0.0002993338
524.6356054688	0.0005329810
526.5644128418	0.0002772901
528.4932202148	0.0005676800
530.4220275879	0.0005034034
532.3508349609	-0.0002756936
534.2796423340	0.0001109320
536.2084497070	0.0001082181
538.1372570801	0.0000283499
540.0660644531	0.0003470633
541.9948718262	0.0002672582
543.9236791992	0.0002931353
545.8524865723	-0.0000294071
547.7812939453	-0.0002303099
549.7101013184	0.0000816989
551.6389086914	0.0004305409
553.5677160645	-0.0000151946
555.4965234375	0.0000742709
557.4253308105	0.0006235631
559.3541381836	0.0001151042
561.2829455566	0.0003055610
563.2117529297	0.0004252106
565.1405603027	0.0003072226
567.0693676758	0.0004056584
568.9981750488	-0.0000452083
570.9269824219	0.0001077482
572.8557897949	0.0001712778
574.7845971680	0.0001181750
576.7134045410	0.0001106408
578.6422119141	-0.0000005042
580.5710192871	0.0001842738
582.4998266602	0.0002951156
584.4286340332	0.0002178147
586.3574414063	0.0000664784
588.2862487793	0.0004213375
590.2150561523	0.0004349310
592.1438635254	0.0004253218
594.0726708984	0.0006356526
596.0014782715	0.0000795951
597.9302856445	0.0001885977
599.8590930176	0.0008101928
601.7879003906	0.0003260324
603.7167077637	-0.0001727039
605.6455151367	0.0004309631
607.5743225098	0.0005545356
609.5031298828	0.0001822771
611.4319372559	0.0000381207
613.3607446289	0.0001983087
615.2895520020	0.0002396240
617.2183593750	0.0001208160
619.1471667480	0.0003319782
621.0759741211	-0.0000312521
623.0047814941	0.0000739889
624.9335888672	0.0001069094
626.8623962402	-0.0001149541
628.7912036133	-0.0003184846
630.7200109863	-0.0003623814
632.6488183594	0.0004716422
634.5776257324	0.0009166105
636.5064331055	0.0013054322
638.4352404785	0.0014061076
640.3640478516	0.0012443446
642.2928552246	0.0013416081
644.2216625977	0.0012636718
646.1504699707	0.0015329508
648.0792773438	0.0014679543
650.0080847168	0.0016615922
651.9368920898	0.0020641075
653.8656994629	0.0015264966
655.7945068359	0.0018305825
657.7233142090	0.0019220728
659.6521215820	0.0016458584
661.5809289551	0.0023992527
663.5097363281	0.0023181837
665.4385437012	0.0022416925
667.3673510742	0.0024331966
669.2961584473	0.0021867105
671.2249658203	0.0026022349
673.1537731934	0.0028096775
675.0825805664	0.0027971026
677.0113879395	0.0028867675
678.9401953125	0.0029401314
680.8690026855	0.0030503764
682.7978100586	0.0028274457
684.7266174316	0.0028302425
686.6554248047	0.0029614717
688.5842321777	0.0029451032
690.5130395508	0.0030500311
692.4418469238	0.0033467826
694.3706542969	0.0035889982
696.2994616699	0.0039461022
698.2282690430	0.0047022323
700.1570764160	0.0049709049
702.0858837891	0.0047974838
704.0146911621	0.0045142742
705.9434985352	0.0041018613
707.8723059082	0.0032533980
709.8011132813	0.0024475260
711.7299206543	0.0021892069
713.6587280273	0.0012043645
715.5875354004	0.0006693951
717.5163427734	0.0005588876
719.4451501465	0.0002383884
721.3739575195	0.0005217125
723.3027648926	0.0001815009
725.2315722656	0.0002168582
727.1603796387	0.0002803871
729.0891870117	-0.0002621808
731.0179943848	-0.0000850709
732.9468017578	-0.0000965284
734.8756091309	0.0000377651
736.8044165039	0.0001132200
738.7332238770	-0.0000934912
740.6620312500	-0.0000880455
742.5908386230	-0.0000749375
744.5196459961	-0.0000360518
746.4484533691	-0.0001681891
748.3772607422	0.0000845256
750.3060681152	0.0001267175
752.2348754883	0.0001158780
754.1636828613	0.0003256949
756.0924902344	0.0001384652
758.0212976074	0.0001972903
759.9501049805	0.0000075741
761.8789123535	-0.0001241089
763.8077197266	0.0001143974
765.7365270996	0.0002322481
767.6653344727	0.0001953022
769.5941418457	-0.0001670751
771.5229492188	0.0001957668
773.4517565918	0.0004673387
775.3805639648	0.0002928151
777.3093713379	0.0005101787
779.2381787109	0.0003186030
781.1669860840	0.0001416568
783.0957934570	0.0001955900
785.0246008301	0.0002563300
786.9534082031	0.0002299456
788.8822155762	0.0003905110
790.8110229492	0.0003777159
792.7398303223	0.0001415040
794.6686376953	0.0003821230
796.5974450684	0.0002984257
798.5262524414	0.0005650773
800.4550598145	0.0008534269
802.3838671875	0.0005505565
804.3126745605	0.0006014288
806.2414819336	0.0003558093
808.1702893066	0.0002272541
810.0990966797	0.0004177931
812.0279040527	0.0001319915
813.9567114258	-0.0000240864
815.8855187988	0.0002334786
817.8143261719	0.0004107591
819.7431335449	0.0004161787
821.6719409180	0.0002357189
823.6007482910	0.0002829142
825.5295556641	0.0004731000
827.4583630371	0.0005377249
829.3871704102	0.0008479503
831.3159777832	0.0007468335
833.2447851563	0.0009058178
835.1735925293	0.0011394154
837.1023999023	0.0009004900
839.0312072754	0.0010631008
840.9600146484	0.0009243110
842.8888220215	0.0010353604
844.8176293945	0.0009791194
846.7464367676	0.0007653113
848.6752441406	0.0010583913
850.6040515137	0.0008693226
852.5328588867	0.0008309269
854.4616662598	0.0007687401
856.3904736328	0.0007632177
858.3192810059	0.0006455817
860.2480883789	0.0003900959
862.1768957520	0.0006348811
864.1057031250	0.0002847679
866.0345104980	0.0000850373
867.9633178711	0.0004526488
869.8921252441	0.0001993440
871.8209326172	0.0000635064
873.7497399902	0.0004667937
875.6785473633	0.0003256008
877.6073547363	0.0003249624
879.5361621094	0.0004136199
881.4649694824	0.0002789740
883.3937768555	0.0002845284
885.3225842285	-0.0000699964
887.2513916016	0.0003894151
889.1801989746	0.0006517856
891.1090063477	0.0003699551
893.0378137207	0.0004541124
894.9666210938	0.0002354577
896.8954284668	0.0005239549
898.8242358398	0.0003508524
900.7530432129	0.0002344788
902.6818505859	0.0007346190
904.6106579590	0.0003693532
906.5394653320	0.0003045862
908.4682727051	0.0006394214
910.3970800781	0.0006636598
912.3258874512	0.0005447314
914.2546948242	0.0005995827
916.1835021973	0.0008599508
918.1123095703	0.0010005683
920.0411169434	0.0009711705
921.9699243164	0.0008917941
923.8987316895	0.0011431888
925.8275390625	0.0011845655
927.7563464355	0.0012755059
929.6851538086	0.0014951434
931.6139611816	0.0014949278
933.5427685547	0.0018074939
935.4715759277	0.0019452024
937.4003833008	0.0017629815
939.3291906738	0.0016406847
941.2579980469	0.0020748619
943.1868054199	0.0023014061
945.1156127930	0.0018281029
947.0444201660	0.0020336686
948.9732275391	0.0020415359
950.9020349121	0.0018387196
952.8308422852	0.0020954730
954.7596496582	0.0019342812
956.6884570313	0.0019908377
958.6172644043	0.0019705808
960.5460717773	0.0018479576
962.4748791504	0.0020015736
964.4036865234	0.0019175552
966.3324938965	0.0021356742
968.2613012695	0.0022185054
970.1901086426	0.0022759673
972.1189160156	0.0024952777
974.0477233887	0.0025147987
975.9765307617	0.0028086752
977.9053381348	0.0029753642
979.8341455078	0.0031921524
981.7629528809	0.0035257733
983.6917602539	0.0038763126
985.6205676270	0.0041847546
987.5493750000	0.0046548783
989.4781823730	0.0056175110
991.4069897461	0.0059627336
993.3357971191	0.0062726755
995.2646044922	0.0070530064
997.1934118652	0.0076394165
999.1222192383	0.0079997703
1001.0510266113	0.0087514389
1002.9798339844	0.0098368116
1004.9086413574	0.0102068875
1006.8374487305	0.0109829791
1008.7662561035	0.0116969608
1010.6950634766	0.0118895527
1012.6238708496	0.0127684753
1014.5526782227	0.0135190673
1016.4814855957	0.0141330510
1018.4102929688	0.0149708726
1020.3391003418	0.0157708153
1022.2679077148	0.0162185319
1024.1967150879	0.0168475639
1026.1255224609	0.0176302455
1028.0543298340	0.0179847255
1029.9831372070	0.0184571091
1031.9119445801	0.0189499184
1033.8407519531	0.0195943862
1035.7695593262	0.0199275948
1037.6983666992	0.0199517384
1039.6271740723	0.0200446881
1041.5559814453	0.0199940465
1043.4847888184	0.0200755708
1045.4135961914	0.0199905764
1047.3424035645	0.0198035389
1049.2712109375	0.0192965642
1051.2000183105	0.0188305527
1053.1288256836	0.0186538659
1055.0576330566	0.0183404591
1056.9864404297	0.0177868698
1058.9152478027	0.0171231031
1060.8440551758	0.0169095024
1062.7728625488	0.0162221566
1064.7016699219	0.0155729791
1066.6304772949	0.0151677802
1068.5592846680	0.0144060999
1070.4880920410	0.0139981564
1072.4168994141	0.0131901531
1074.3457067871	0.0126323365
1076.2745141602	0.0121686514
1078.2033215332	0.0113024982
1080.1321289062	0.0110761356
1082.0609362793	0.0105526894
1083.9897436523	0.0100295357
1085.9185510254	0.0098228548
1087.8473583984	0.0092588868
1089.7761657715	0.0088060638
1091.7049731445	0.0083834669
1093.6337805176	0.0080850897
1095.5625878906	0.0076764580
1097.4913952637	0.0072566518
1099.4202026367	0.0072486592
1101.3490100098	0.0068986905
1103.2778173828	0.0067372471
1105.2066247559	0.0068629552
1107.1354321289	0.0067236135
1109.0642395019	0.0065311305
1110.9930468750	0.0064487001
1112.9218542480	0.0064250431
1114.8506616211	0.0060080816
1116.7794689941	0.0061644847
1118.7082763672	0.0063556954
1120.6370837402	0.0063186418
1122.5658911133	0.0065417308
1124.4946984863	0.0061777811
1126.4235058594	0.0067084311
1128.3523132324	0.0070712585
1130.2811206055	0.0067600259
1132.2099279785	0.0070720566
1134.1387353516	0.0071704360
1136.0675427246	0.0076933624
1137.9963500977	0.0080880858
1139.9251574707	0.0083296262
1141.8539648437	0.0088690873
1143.7827722168	0.0093634874
1145.7115795898	0.0101457071
1147.6403869629	0.0106493887
1149.5691943359	0.0112608522
1151.4980017090	0.0119109591
1153.4268090820	0.0121200960
1155.3556164551	0.0128684398
1157.2844238281	0.0138963647
1159.2132312012	0.0140175987
1161.1420385742	0.0143974032
1163.0708459473	0.0151458103
1164.9996533203	0.0154658314
1166.9284606934	0.0163794570
1168.8572680664	0.0168973096
1170.7860754394	0.0174393952
1172.7148828125	0.0185430590
1174.6436901855	0.0189030319
1176.5724975586	0.0194917619
1178.5013049316	0.0202746354
1180.4301123047	0.0210131556
1182.3589196777	0.0221095271
1184.2877270508	0.0229690522
1186.2165344238	0.0238689110
1188.1453417969	0.0252281055
1190.0741491699	0.0263898354
1192.0029565430	0.0273206532
1193.9317639160	0.0286342241
1195.8605712891	0.0300939530
1197.7893786621	0.0315386020
1199.7181860351	0.0329532474
1201.6469934082	0.0342256874
1203.5758007812	0.0354917049
1205.5046081543	0.0369615331
1207.4334155273	0.0384179950
1209.3622229004	0.0396459773
1211.2910302734	0.0409243330
1213.2198376465	0.0421588346
1215.1486450195	0.0431087464
1217.0774523926	0.0438909791
1219.0062597656	0.0447149500
1220.9350671387	0.0454375632
1222.8638745117	0.0460745990
1224.7926818848	0.0465777144
1226.7214892578	0.0469524190
1228.6502966308	0.0471645035
1230.5791040039	0.0471994951
1232.5079113769	0.0474088416
1234.4367187500	0.0474397019
1236.3655261230	0.0473856255
1238.2943334961	0.0472100005
1240.2231408691	0.0471862555
1242.1519482422	0.0471083596
1244.0807556152	0.0467212722
1246.0095629883	0.0467467010
1247.9383703613	0.0462090299
1249.8671777344	0.0459427685
1251.7959851074	0.0458555184
1253.7247924805	0.0451406464
1255.6535998535	0.0447450317
1257.5824072266	0.0438585468
1259.5112145996	0.0429344922
1261.4400219726	0.0424756333
1263.3688293457	0.0420654006
1265.2976367187	0.0413982756
1267.2264440918	0.0409420654
1269.1552514648	0.0405276269
1271.0840588379	0.0395706855
1273.0128662109	0.0389775336
1274.9416735840	0.0382388048
1276.8704809570	0.0376347192
1278.7992883301	0.0369802266
1280.7280957031	0.0359822400
1282.6569030762	0.0352760218
1284.5857104492	0.0347714946
1286.5145178223	0.0343072191
1288.4433251953	0.0335601158
1290.3721325683	0.0331518389
1292.3009399414	0.0325123146
1294.2297473144	0.0323400013
1296.1585546875	0.0324121565
1298.0873620605	0.0320943594
1300.0161694336	0.0323993862
1301.9449768066	0.0323520079
1303.8737841797	0.0328229815
1305.8025915527	0.0333135873
1307.7313989258	0.0334988758
1309.6602062988	0.0341220200
1311.5890136719	0.0347204171
1313.5178210449	0.0354222469
1315.4466284180	0.0359833911
1317.3754357910	0.0369558223
1319.3042431640	0.0378304161
1321.2330505371	0.0391794443
1323.1618579101	0.0404437333
1325.0906652832	0.0413484909
1327.0194726562	0.0428237915
1328.9482800293	0.0437063053
1330.8770874023	0.0448772646
1332.8058947754	0.0458393022
1334.7347021484	0.0467746109
1336.6635095215	0.0475170799
1338.5923168945	0.0472465232
1340.5211242676	0.0480282977
1342.4499316406	0.0493319593
1344.3787390137	0.0496754237
1346.3075463867	0.0495989248
1348.2363537597	0.0496642366
1350.1651611328	0.0493175611
1352.0939685058	0.0490916446
1354.0227758789	0.0486401916
1355.9515832519	0.0481382161
1357.8803906250	0.0480628833
1359.8091979980	0.0473637208
1361.7380053711	0.0460166447
1363.6668127441	0.0451727509
1365.5956201172	0.0464471802
1367.5244274902	0.0459617861
1369.4532348633	0.0453235283
1371.3820422363	0.0459008813
1373.3108496094	0.0439348258
1375.2396569824	0.0440201499
1377.1684643555	0.0449267626
1379.0972717285	0.0449389666
1381.0260791015	0.0448150896
1382.9548864746	0.0445090383
1384.8836938476	0.0445966609
1386.8125012207	0.0429395251
1388.7413085937	0.0435997769
1390.6701159668	0.0463615172
1392.5989233398	0.0457853526
1394.5277307129	0.0434695110
1396.4565380859	0.0449706130
1398.3853454590	0.0454955548
1400.3141528320	0.0450339653
1402.2429602051	0.0479022637
1404.1717675781	0.0458523557
1406.1005749512	0.0458665490
1408.0293823242	0.0474260859
1409.9581896972	0.0459959954
1411.8869970703	0.0467259102
1413.8158044433	0.0451203734
1415.7446118164	0.0457410067
1417.6734191894	0.0422524810
1419.6022265625	0.0382679179
1421.5310339355	0.0424430445
1423.4598413086	0.0414970927
1425.3886486816	0.0402005985
1427.3174560547	0.0404630490
1429.2462634277	0.0379417613
1431.1750708008	0.0365528092
1433.1038781738	0.0367343202
1435.0326855469	0.0340023413
1436.9614929199	0.0295762029
1438.8903002929	0.0323277041
1440.8191076660	0.0330399722
1442.7479150390	0.0310796313
1444.6767224121	0.0320876911
1446.6055297851	0.0298646577
1448.5343371582	0.0300187804
1450.4631445312	0.0308757462
1452.3919519043	0.0313140564
1454.3207592773	0.0329610072
1456.2495666504	0.0285790414
1458.1783740234	0.0293389559
1460.1071813965	0.0377329588
1462.0359887695	0.0399455428
1463.9647961426	0.0401766598
1465.8936035156	0.0420967042
1467.8224108886	0.0471992046
1469.7512182617	0.0508455411
1471.6800256347	0.0466403030
1473.6088330078	0.0489512160
1475.5376403808	0.0551369376
1477.4664477539	0.0591452047
1479.3952551269	0.0642830282
1481.3240625000	0.0656772852
1483.2528698730	0.0693860799
1485.1816772461	0.0716450438
1487.1104846191	0.0716056675
1489.0392919922	0.0720976368
1490.9680993652	0.0726298392
1492.8969067383	0.0822330266
1494.8257141113	0.0813497752
1496.7545214843	0.0747166872
1498.6833288574	0.0831469148
1500.6121362304	0.0855781287
1502.5409436035	0.0906355530
1504.4697509765	0.0874803960
1506.3985583496	0.0677716136
1508.3273657226	0.0795110613
1510.2561730957	0.0910243317
1512.1849804687	0.0881324261
1514.1137878418	0.0947032273
1516.0425952148	0.0874260664
1517.9714025879	0.0906193629
1519.9002099609	0.0880961567
1521.8290173340	0.0781960413
1523.7578247070	0.0919889659
1525.6866320801	0.0909428596
1527.6154394531	0.0905226320
1529.5442468261	0.0979790613
1531.4730541992	0.0953671485
1533.4018615722	0.0890580714
1535.3306689453	0.0926610529
1537.2594763183	0.0984502286
1539.1882836914	0.0752143264
1541.1170910644	0.0771750510
1543.0458984375	0.0903289616
1544.9747058105	0.0868956000
1546.9035131836	0.0993349850
1548.8323205566	0.0943956673
1550.7611279297	0.0964625701
1552.6899353027	0.0961832851
1554.6187426758	0.0886101127
1556.5475500488	0.0940568894
1558.4763574218	0.0713411048
1560.4051647949	0.0743859932
1562.3339721679	0.0996959880
1564.2627795410	0.0955177471
1566.1915869140	0.0972481072
1568.1203942871	0.0968165696
1570.0492016601	0.0877016634
1571.9780090332	0.0977256075
1573.9068164062	0.0991217792
1575.8356237793	0.0818670243
1577.7644311523	0.0896447450
1579.6932385254	0.0996084139
1581.6220458984	0.0958244205
1583.5508532715	0.0979893282
1585.4796606445	0.0964975804
1587.4084680175	0.0969211087
1589.3372753906	0.0964062214
1591.2660827636	0.0959920287
1593.1948901367	0.0959352106
1595.1236975097	0.0946114957
1597.0525048828	0.0958836526
1598.9813122558	0.0949641615
1600.9101196289	0.0952054560
1602.8389270019	0.0937841535
1604.7677343750	0.0945584029
1606.6965417480	0.0932455882
1608.6253491211	0.0927643925
1610.5541564941	0.0926644430
1612.4829638672	0.0925243646
1614.4117712402	0.0937439501
1616.3405786132	0.0794985965
1618.2693859863	0.0837873518
1620.1981933593	0.0951198339
1622.1270007324	0.0860496610
1624.0558081054	0.0861838385
1625.9846154785	0.0892643481
1627.9134228515	0.0888726264
1629.8422302246	0.0881208107
1631.7710375976	0.0927652866
1633.6998449707	0.0872659534
1635.6286523437	0.0743862838
1637.5574597168	0.0836900622
1639.4862670898	0.0906183124
1641.4150744629	0.0889688432
1643.3438818359	0.0910195708
1645.2726892090	0.0838262960
1647.2014965820	0.0754272789
1649.1303039550	0.0901541263
1651.0591113281	0.0867871791
1652.9879187011	0.0605854169
1654.9167260742	0.0773418397
1656.8455334472	0.0938804150
1658.7743408203	0.0903266072
1660.7031481933	0.0931738764
1662.6319555664	0.0863872543
1664.5607629394	0.0900732428
1666.4895703125	0.0959014520
1668.4183776855	0.0865460336
1670.3471850586	0.0844638348
1672.2759924316	0.0936471969
1674.2047998047	0.0884198323
1676.1336071777	0.0852543861
1678.0624145507	0.0959060192
1679.9912219238	0.0933290720
1681.9200292968	0.0931317508
1683.8488366699	0.0789918602
1685.7776440429	0.0774048939
1687.7064514160	0.1015508622
1689.6352587890	0.0907718390
1691.5640661621	0.0973255932
1693.4928735351	0.1001566425
1695.4216809082	0.0773133039
1697.3504882812	0.0914276391
1699.2792956543	0.0836276188
1701.2081030273	0.0760109723
1703.1369104004	0.0981145054
1705.0657177734	0.0922664255
1706.9945251464	0.0922260582
1708.9233325195	0.0989648402
1710.8521398925	0.0955765694
1712.7809472656	0.0972810984
1714.7097546386	0.0921883285
1716.6385620117	0.0840005875
1718.5673693847	0.0825951397
1720.4961767578	0.0951809436
1722.4249841308	0.0983874798
1724.3537915039	0.0924896449
1726.2825988769	0.0988747030
1728.2114062500	0.0928309932
1730.1402136230	0.0937339514
1732.0690209961	0.0916751325
1733.9978283691	0.0735047236
1735.9266357421	0.0871461928
1737.8554431152	0.0952949971
1739.7842504882	0.0864798874
1741.7130578613	0.0926992148
1743.6418652343	0.0944090188
1745.5706726074	0.0943450630
1747.4994799804	0.0953928977
1749.4282873535	0.0922517031
1751.3570947265	0.0887739509
1753.2859020996	0.0963834524
1755.2147094726	0.1004282236
1757.1435168457	0.0933067948
1759.0723242187	0.1005783826
1761.0011315918	0.0961400867
1762.9299389648	0.0929847136
1764.8587463379	0.1037890539
1766.7875537109	0.0956974998
1768.7163610839	0.0960639715
1770.6451684570	0.0959536433
1772.5739758300	0.0879473537
1774.5027832031	0.0956462026
1776.4315905761	0.1003771424
1778.3603979492	0.0993539393
1780.2892053222	0.0982466340
1782.2180126953	0.0988511220
1784.1468200683	0.0988378376
1786.0756274414	0.0972215831
1788.0044348144	0.1012416109
1789.9332421875	0.0993501544
1791.8620495605	0.0917185396
1793.7908569336	0.0946028158
1795.7196643066	0.1002973244
1797.6484716796	0.0991296768
1799.5772790527	0.0978863761
1801.5060864257	0.0966527760
1803.4348937988	0.0989600271
1805.3637011718	0.1009442061
1807.2925085449	0.0998415351
1809.2213159179	0.1001606584
1811.1501232910	0.0979814678
1813.0789306640	0.1003743112
1815.0077380371	0.1007647440
1816.9365454101	0.0997364074
1818.8653527832	0.1006455868
1820.7941601562	0.0999799073
1822.7229675293	0.1013714969
1824.6517749023	0.0960640013
1826.5805822753	0.0984434560
1828.5093896484	0.0990498066
1830.4381970214	0.0940011218
1832.3670043945	0.1003865004
1834.2958117675	0.0998154879
1836.2246191406	0.0998242572
1838.1534265136	0.0996549278
1840.0822338867	0.0998964310
1842.0110412597	0.1002688557
1843.9398486328	0.0910305083
1845.8686560058	0.0954099447
1847.7974633789	0.0998952389
1849.7262707519	0.0980727077
1851.6550781250	0.1001629904
1853.5838854980	0.0987603068
1855.5126928710	0.0995332971
1857.4415002441	0.0987955183
1859.3703076171	0.0983438641
1861.2991149902	0.0989254937
1863.2279223632	0.0980932266
1865.1567297363	0.0990204811
1867.0855371093	0.0963296741
1869.0143444824	0.0930980593
1870.9431518554	0.0958985761
1872.8719592285	0.0987345278
1874.8007666015	0.0975436717
1876.7295739746	0.0979926139
1878.6583813476	0.0976262242
1880.5871887207	0.0971671641
1882.5159960937	0.0978785306
1884.4448034667	0.0964870900
1886.3736108398	0.0975827798
1888.3024182128	0.0960980728
1890.2312255859	0.0944057852
1892.1600329589	0.0970523804
1894.0888403320	0.0961695090
1896.0176477050	0.0956309885
1897.9464550781	0.0964692980
1899.8752624511	0.0961054564
1901.8040698242	0.0961266905
1903.7328771972	0.0956124142
1905.6616845703	0.0959929824
1907.5904919433	0.0952671766
1909.5192993164	0.0946951658
1911.4481066894	0.0952233076
1913.3769140625	0.0951830447
1915.3057214355	0.0958388597
1917.2345288085	0.0926091373
1919.1633361816	0.0925157592
1921.0921435546	0.0954278708
1923.0209509277	0.0929838791
1924.9497583007	0.0941986144
1926.8785656738	0.0950368941
1928.8073730468	0.0940929055
1930.7361804199	0.0950157344
1932.6649877929	0.0940878838
1934.5937951660	0.0946707651
1936.5226025390	0.0943063200
1938.4514099121	0.0946124643
1940.3802172851	0.0943597853
1942.3090246582	0.0920075327
1944.2378320312	0.0932308286
1946.1666394042	0.0937952101
1948.0954467773	0.0935576558
1950.0242541503	0.0939389169
1951.9530615234	0.0938115716
1953.8818688964	0.0938471481
1955.8106762695	0.0934655666
1957.7394836425	0.0935869291
1959.6682910156	0.0935965404
1961.5970983886	0.0934034437
1963.5259057617	0.0935852975
1965.4547131347	0.0931331217
1967.3835205078	0.0924177766
1969.3123278808	0.0929481760
1971.2411352539	0.0931850970
1973.1699426269	0.0929035097
1975.0987499999	0.0930842534
1977.0275573730	0.0927374959
1978.9563647460	0.0927980244
1980.8851721191	0.0926199928
1982.8139794921	0.0924876034
1984.7427868652	0.0926121175
1986.6715942382	0.0920330584
1988.6004016113	0.0920179635
1990.5292089843	0.0913732797
1992.4580163574	0.0906965733
1994.3868237304	0.0915106013
1996.3156311035	0.0915631726
1998.2444384765	0.0911297500
2000.1732458496	0.0913871005
2002.1020532226	0.0909435302
2004.0308605956	0.0906530023
2005.9596679687	0.0907681137
2007.8884753417	0.0904782861
2009.8172827148	0.0904705524
2011.7460900878	0.0902366415
2013.6748974609	0.0901585594
2015.6037048339	0.0896510780
2017.5325122070	0.0890056193
2019.4613195800	0.0893675238
2021.3901269531	0.0892353505
2023.3189343261	0.0890749395
2025.2477416992	0.0890422165
2027.1765490722	0.0886841640
2029.1053564453	0.0885832012
2031.0341638183	0.0884645730
2032.9629711914	0.0882094800
2034.8917785644	0.0879662335
2036.8205859374	0.0878784433
2038.7493933105	0.0877840146
2040.6782006835	0.0874008983
2042.6070080566	0.0871153846
2044.5358154296	0.0871803090
2046.4646228027	0.0870351195
2048.3934301757	0.0867585838
2050.3222375488	0.0866118744
2052.2510449218	0.0866663605
2054.1798522949	0.0864483267
2056.1086596679	0.0861488804
2058.0374670410	0.0862670094
2059.9662744140	0.0858910829
2061.8950817871	0.0858329758
2063.8238891601	0.0855899900
2065.7526965331	0.0851112008
2067.6815039062	0.0853442252
2069.6103112792	0.0849684924
2071.5391186523	0.0848220736
2073.4679260253	0.0847784132
2075.3967333984	0.0845712647
2077.3255407714	0.0845641196
2079.2543481445	0.0842049122
2081.1831555175	0.0841656029
2083.1119628906	0.0840731114
2085.0407702636	0.0839284360
2086.9695776367	0.0838575810
2088.8983850097	0.0835753456
2090.8271923828	0.0834074020
2092.7559997558	0.0832643062
2094.6848071288	0.0830963627
2096.6136145019	0.0830024332
2098.5424218749	0.0828482062
2100.4712292480	0.0827258080
2102.4000366210	0.0826952904
2104.3288439941	0.0824841857
2106.2576513671	0.0824814141
2108.1864587402	0.0823188648
2110.1152661132	0.0820999593
2112.0440734863	0.0821017176
2113.9728808593	0.0818437561
2115.9016882324	0.0817636773
2117.8304956054	0.0815848932
2119.7593029785	0.0815123096
2121.6881103515	0.0814480931
2123.6169177245	0.0811665356
2125.5457250976	0.0810760036
2127.4745324706	0.0809816420
2129.4033398437	0.0810006782
2131.3321472167	0.0808966085
2133.2609545898	0.0809183866
2135.1897619628	0.0807567686
2137.1185693359	0.0804017335
2139.0473767089	0.0804431438
2140.9761840820	0.0803084224
2142.9049914550	0.0802092776
2144.8337988281	0.0802147686
2146.7626062011	0.0800881609
2148.6914135742	0.0800091624
2150.6202209472	0.0799144059
2152.5490283203	0.0797637403
2154.4778356933	0.0797160268
2156.4066430663	0.0796709210
2158.3354504394	0.0795772895
2160.2642578124	0.0793517306
2162.1930651855	0.0791493803
2164.1218725585	0.0793510079
2166.0506799316	0.0792839825
2167.9794873046	0.0791258216
2169.9082946777	0.0789936781
2171.8371020507	0.0788072422
2173.7659094238	0.0788452923
2175.6947167968	0.0787449479
2177.6235241699	0.0787084177
2179.5523315429	0.0784523413
2181.4811389160	0.0783327222
2183.4099462890	0.0784724951
2185.3387536620	0.0783272386
2187.2675610351	0.0781749487
2189.1963684081	0.0781265646
2191.1251757812	0.0781698227
2193.0539831542	0.0780643001
2194.9827905273	0.0780382454
2196.9115979003	0.0778782442
2198.8404052734	0.0777539313
2200.7692126464	0.0777884573
2202.6980200195	0.0775019675
2204.6268273925	0.0773770884
2206.5556347656	0.0774176121
2208.4844421386	0.0773789585
2210.4132495117	0.0771693587
2212.3420568847	0.0772037208
2214.2708642577	0.0771756917
2216.1996716308	0.0770508349
2218.1284790038	0.0770964772
2220.0572863769	0.0767219514
2221.9860937499	0.0766660422
2223.9149011230	0.0766957402
2225.8437084960	0.0765733942
2227.7725158691	0.0765236020
2229.7013232421	0.0763149410
2231.6301306152	0.0762179941
2233.5589379882	0.0761722177
2235.4877453613	0.0761293694
2237.4165527343	0.0759026706
2239.3453601074	0.0757950246
2241.2741674804	0.0756922066
2243.2029748534	0.0755924284
2245.1317822265	0.0754934698
2247.0605895995	0.0752947628
2248.9893969726	0.0752715021
2250.9182043456	0.0751379207
2252.8470117187	0.0751715153
2254.7758190917	0.0748617798
2256.7046264648	0.0747128874
2258.6334338378	0.0748575926
2260.5622412109	0.0745519847
2262.4910485839	0.0746405721
2264.4198559570	0.0745838583
2266.3486633300	0.0743337944
2268.2774707031	0.0742572844
2270.2062780761	0.0742281601
2272.1350854491	0.0740933418
2274.0638928222	0.0738722384
2275.9927001952	0.0739309862
2277.9215075683	0.0738603622
2279.8503149413	0.0738608688
2281.7791223144	0.0737774149
2283.7079296874	0.0735859722
2285.6367370605	0.0735015571
2287.5655444335	0.0733786225
2289.4943518066	0.0732420534
2291.4231591796	0.0729996637
2293.3519665527	0.0728254467
2295.2807739257	0.0726355091
2297.2095812988	0.0724779889
2299.1383886718	0.0721026585
2301.0671960449	0.0717522651
2302.9960034179	0.0715262890
2304.9248107909	0.0711292624
2306.8536181640	0.0707420409
2308.7824255370	0.0701173991
2310.7112329101	0.0695315599
2312.6400402831	0.0688117743
2314.5688476562	0.0680634081
2316.4976550292	0.0672820807
2318.4264624023	0.0663268715
2320.3552697753	0.0654666573
2322.2840771484	0.0643183738
2324.2128845214	0.0635038465
2326.1416918945	0.0628017038
2328.0704992675	0.0618966147
2329.9993066406	0.0610968806
2331.9281140136	0.0605797172
2333.8569213866	0.0605356134
2335.7857287597	0.0601706728
2337.7145361327	0.0599787310
2339.6433435058	0.0600364655
2341.5721508788	0.0602881499
2343.5009582519	0.0612366423
2345.4297656249	0.0623892695
2347.3585729980	0.0651141703
2349.2873803710	0.0674174130
2351.2161877441	0.0651417822
2353.1449951171	0.0614601001
2355.0738024902	0.0592050999
2357.0026098632	0.0572762340
2358.9314172363	0.0560308471
2360.8602246093	0.0554557219
2362.7890319823	0.0554967821
2364.7178393554	0.0557669029
2366.6466467284	0.0563925728
2368.5754541015	0.0576171689
2370.5042614745	0.0589663051
2372.4330688476	0.0609485880
2374.3618762206	0.0626815408
2376.2906835937	0.0643729270
2378.2194909667	0.0661808103
2380.1482983398	0.0673409775
2382.0771057128	0.0683327764
2384.0059130859	0.0687334985
2385.9347204589	0.0689617991
2387.8635278320	0.0690760463
2389.7923352050	0.0690002739
2391.7211425780	0.0690370649
2393.6499499511	0.0690008029
2395.5787573241	0.0689481944
2397.5075646972	0.0686534345
2399.4363720702	0.0686377808
2401.3651794433	0.0685612410
2403.2939868163	0.0683698282
2405.2227941894	0.0683566779
2407.1516015624	0.0681995451
2409.0804089355	0.0682194009
2411.0092163085	0.0681447834
2412.9380236816	0.0681135952
2414.8668310546	0.0680591911
2416.7956384277	0.0677974969
2418.7244458007	0.0677740574
2420.6532531738	0.0677973181
2422.5820605468	0.0676364750
2424.5108679198	0.0675721765
2426.4396752929	0.0675818771
2428.3684826659	0.0674464703
2430.2972900390	0.0673837885
2432.2260974120	0.0672790706
2434.1549047851	0.0672343969
2436.0837121581	0.0671037659
2438.0125195312	0.0669679567
2439.9413269042	0.0669820905
2441.8701342773	0.0667699650
2443.7989416503	0.0668509305
2445.7277490234	0.0667510480
2447.6565563964	0.0665123910
2449.5853637695	0.0666224211
2451.5141711425	0.0664558113
2453.4429785155	0.0663123429
2455.3717858886	0.0662369579
2457.3005932616	0.0660945848
2459.2294006347	0.0660502985
2461.1582080077	0.0660726428
2463.0870153808	0.0659995824
2465.0158227538	0.0658805594
2466.9446301269	0.0658609346
2468.8734374999	0.0656869784
2470.8022448730	0.0655463189
2472.7310522460	0.0655335039
2474.6598596191	0.0654838234
2476.5886669921	0.0654025003
2478.5174743652	0.0652686805
2480.4462817382	0.0652268231
2482.3750891112	0.0652564391
2484.3038964843	0.0650768429
2486.2327038573	0.0648953840
2488.1615112304	0.0649015456
2490.0903186034	0.0648224577
2492.0191259765	0.0647484660
2493.9479333495	0.0647146106
2495.8767407226	0.0646415576
2497.8055480956	0.0644935295
2499.7343554687	0.0643875152
2501.6631628417	0.0643565580
2503.5919702148	0.0642292053
2505.5207775878	0.0641417950
2507.4495849609	0.0640345663
2509.3783923339	0.0639816374
2511.3071997069	0.0639519319
2513.2360070800	0.0639035329
2515.1648144530	0.0639518574
2517.0936218261	0.0639327914
2519.0224291991	0.0637806952
2520.9512365722	0.0635755360
2522.8800439452	0.0635130405
2524.8088513183	0.0634442568
2526.7376586913	0.0633275360
2528.6664660644	0.0632104874
2530.5952734374	0.0631973445
2532.5240808105	0.0631454289
2534.4528881835	0.0629648417
2536.3816955566	0.0630118549
2538.3105029296	0.0628697798
2540.2393103027	0.0627608821
2542.1681176757	0.0626311079
2544.0969250487	0.0624608025
2546.0257324218	0.0627007261
2547.9545397948	0.0625402480
2549.8833471679	0.0623030216
2551.8121545409	0.0623302981
2553.7409619140	0.0622642376
2555.6697692870	0.0621650517
2557.5985766601	0.0620208979
2559.5273840331	0.0620140992
2561.4561914062	0.0619787052
2563.3849987792	0.0618011951
2565.3138061523	0.0616933256
2567.2426135253	0.0617110059
2569.1714208984	0.0616224632
2571.1002282714	0.0615560114
2573.0290356444	0.0615187287
2574.9578430175	0.0613308363
2576.8866503905	0.0612774342
2578.8154577636	0.0612839311
2580.7442651366	0.0611162409
2582.6730725097	0.0609680936
2584.6018798827	0.0611077063
2586.5306872558	0.0609593168
2588.4594946288	0.0606835783
2590.3883020019	0.0607522354
2592.3171093749	0.0606787354
2594.2459167480	0.0605870225
2596.1747241210	0.0604382679
2598.1035314941	0.0603937879
2600.0323388671	0.0604587421
2601.9611462401	0.0602869168
2603.8899536132	0.0601111501
2605.8187609862	0.0600400344
2607.7475683593	0.0600736588
2609.6763757323	0.0599920452
2611.6051831054	0.0598726720
2613.5339904784	0.0597772822
2615.4627978515	0.0597323515
2617.3916052245	0.0597115569
2619.3204125976	0.0595800653
2621.2492199706	0.0595178120
2623.1780273437	0.0594057739
2625.1068347167	0.0592685565
2627.0356420898	0.0592434257
2628.9644494628	0.0592574328
2630.8932568358	0.0590847060
2632.8220642089	0.0589745007
2634.7508715819	0.0589477569
2636.6796789550	0.0588045716
2638.6084863280	0.0588053390
2640.5372937011	0.0586627237
2642.4661010741	0.0585834533
2644.3949084472	0.0585394278
2646.3237158202	0.0583215468
2648.2525231933	0.0582512319
2650.1813305663	0.0582988113
2652.1101379394	0.0582553372
2654.0389453124	0.0580371618
2655.9677526855	0.0580667667
2657.8965600585	0.0580207705
2659.8253674315	0.0578866936
2661.7541748046	0.0578237101
2663.6829821776	0.0577039048
2665.6117895507	0.0577911586
2667.5405969237	0.0576024726
2669.4694042968	0.0574822277
2671.3982116698	0.0575342700
2673.3270190429	0.0574227720
2675.2558264159	0.0573614873
2677.1846337890	0.0572018921
2679.1134411620	0.0571100712
2681.0422485351	0.0570831932
2682.9710559081	0.0570127107
2684.8998632812	0.0569450334
2686.8286706542	0.0569166467
2688.7574780273	0.0567225888
2690.6862854003	0.0566080920
2692.6150927733	0.0566482246
2694.5439001464	0.0564818755
2696.4727075194	0.0565011315
2698.4015148925	0.0563248806
2700.3303222655	0.0561686121
2702.2591296386	0.0562961362
2704.1879370116	0.0560984537
2706.1167443847	0.0560303256
2708.0455517577	0.0559864268
2709.9743591308	0.0558197424
2711.9031665038	0.0558150038
2713.8319738769	0.0557762757
2715.7607812499	0.0556688383
2717.6895886230	0.0555194728
2719.6183959960	0.0554550327
2721.5472033690	0.0554153398
2723.4760107421	0.0552118905
2725.4048181151	0.0551733226
2727.3336254882	0.0552345142
2729.2624328612	0.0550749488
2731.1912402343	0.0549566261
2733.1200476073	0.0547746196
2735.0488549804	0.0546780601
2736.9776623534	0.0547937602
2738.9064697265	0.0547191054
2740.8352770995	0.0545972511
2742.7640844726	0.0544563681
2744.6928918456	0.0543398112
2746.6216992187	0.0542790703
2748.5505065917	0.0541822165
2750.4793139647	0.0541402474
2752.4081213378	0.0540809855
2754.3369287108	0.0539901927
2756.2657360839	0.0538987219
2758.1945434569	0.0538057759
2760.1233508300	0.0536270477
2762.0521582030	0.0535058677
2763.9809655761	0.0535118505
2765.9097729491	0.0534911081
2767.8385803222	0.0534488857
2769.7673876952	0.0532452762
2771.6961950683	0.0531239770
2773.6250024413	0.0532358103
2775.5538098144	0.0531186312
2777.4826171874	0.0529700294
2779.4114245604	0.0529147014
2781.3402319335	0.0526945367
2783.2690393065	0.0526581407
2785.1978466796	0.0525850430
2787.1266540526	0.0524073541
2789.0554614257	0.0523662493
2790.9842687987	0.0522403494
2792.9130761718	0.0522172228
2794.8418835448	0.0520718172
2796.7706909179	0.0518981665
2798.6994982909	0.0518645868
2800.6283056640	0.0517883375
2802.5571130370	0.0517884530
2804.4859204101	0.0516222715
2806.4147277831	0.0514968336
2808.3435351562	0.0514183827
2810.2723425292	0.0512711108
2812.2011499022	0.0512076318
2814.1299572753	0.0511559099
2816.0587646483	0.0510383733
2817.9875720214	0.0508285910
2819.9163793944	0.0508438051
2821.8451867675	0.0507926196
2823.7739941405	0.0506082177
2825.7028015136	0.0505379066
2827.6316088866	0.0504328012
2829.5604162597	0.0503643602
2831.4892236327	0.0502405167
2833.4180310058	0.0501146913
2835.3468383788	0.0499912538
2837.2756457519	0.0498761348
2839.2044531249	0.0497689173
2841.1332604979	0.0495823249
2843.0620678710	0.0493547469
2844.9908752440	0.0490830988
2846.9196826171	0.0488247499
2848.8484899901	0.0485637709
2850.7772973632	0.0484053642
2852.7061047362	0.0483120382
2854.6349121093	0.0483407751
2856.5637194823	0.0483950973
2858.4925268554	0.0482904278
2860.4213342284	0.0482130721
2862.3501416015	0.0481290072
2864.2789489745	0.0480447151
2866.2077563476	0.0479009114
2868.1365637206	0.0478594080
2870.0653710936	0.0478764176
2871.9941784667	0.0477400348
2873.9229858397	0.0475831144
2875.8517932128	0.0474559814
2877.7806005858	0.0475787148
2879.7094079589	0.0475679338
2881.6382153319	0.0473693945
2883.5670227050	0.0473785475
2885.4958300780	0.0472713113
2887.4246374511	0.0471149012
2889.3534448241	0.0470306240
2891.2822521972	0.0468983985
2893.2110595702	0.0468046814
2895.1398669433	0.0466139168
2897.0686743163	0.0464563370
2898.9974816893	0.0464560613
2900.9262890624	0.0462846979
2902.8550964354	0.0461535826
2904.7839038085	0.0460852608
2906.7127111815	0.0459725037
2908.6415185546	0.0458073989
2910.5703259276	0.0454090014
2912.4991333007	0.0452176668
2914.4279406737	0.0450237244
2916.3567480468	0.0447573587
2918.2855554198	0.0447113216
2920.2143627929	0.0446104258
2922.1431701659	0.0445053875
2924.0719775390	0.0443702601
2926.0007849120	0.0442867950
2927.9295922851	0.0442254692
2929.8583996581	0.0442933440
2931.7872070311	0.0443988591
2933.7160144042	0.0442550369
2935.6448217772	0.0442247055
2937.5736291503	0.0442128964
2939.5024365233	0.0441908538
2941.4312438964	0.0441907942
2943.3600512694	0.0440851077
2945.2888586425	0.0440212563
2947.2176660155	0.0440027788
2949.1464733886	0.0438896827
2951.0752807616	0.0437573120
2953.0040881347	0.0436773673
2954.9328955077	0.0434468091
2956.8617028808	0.0433430076
2958.7905102538	0.0432628542
2960.7193176268	0.0430701822
2962.6481249999	0.0430448130
2964.5769323729	0.0430071354
2966.5057397460	0.0429211855
2968.4345471190	0.0428035408
2970.3633544921	0.0429173112
2972.2921618651	0.0430665761
2974.2209692382	0.0429232866
2976.1497766112	0.0429161154
2978.0785839843	0.0429388955
2980.0073913573	0.0428532250
2981.9361987304	0.0427895263
2983.8650061034	0.0426807404
2985.7938134765	0.0426594131
2987.7226208495	0.0426359810
2989.6514282225	0.0425152183
2991.5802355956	0.0424967557
2993.5090429686	0.0423528999
2995.4378503417	0.0422517508
2997.3666577147	0.0423396938
2999.2954650878	0.0422360115
3001.2242724608	0.0420671701
3003.1530798339	0.0419003293
3005.0818872069	0.0417905599
3007.0106945800	0.0417126715
3008.9395019530	0.0416995361
3010.8683093261	0.0415508449
3012.7971166991	0.0412830263
3014.7259240722	0.0412416309
3016.6547314452	0.0410620719
3018.5835388182	0.0411170945
3020.5123461913	0.0410857834
3022.4411535643	0.0408384576
3024.3699609374	0.0408833325
3026.2987683104	0.0406993181
3028.2275756835	0.0406311005
3030.1563830565	0.0404441804
3032.0851904296	0.0401528142
3034.0139978026	0.0401269272
3035.9428051757	0.0399669670
3037.8716125487	0.0399045721
3039.8004199218	0.0398131050
3041.7292272948	0.0397040732
3043.6580346679	0.0396186858
3045.5868420409	0.0394842215
3047.5156494139	0.0393956304
3049.4444567870	0.0393267348
3051.3732641600	0.0393171087
3053.3020715331	0.0391929559
3055.2308789061	0.0389589295
3057.1596862792	0.0388109572
3059.0884936522	0.0387724191
3061.0173010253	0.0386138745
3062.9461083983	0.0385570228
3064.8749157714	0.0384789705
3066.8037231444	0.0382164046
3068.7325305175	0.0381923951
3070.6613378905	0.0381031632
3072.5901452636	0.0379496142
3074.5189526366	0.0378354713
3076.4477600097	0.0377402380
3078.3765673827	0.0376349837
3080.3053747557	0.0374180600
3082.2341821288	0.0373653769
3084.1629895018	0.0372969955
3086.0917968749	0.0371589586
3088.0206042479	0.0370135829
3089.9494116210	0.0369234085
3091.8782189940	0.0368695855
3093.8070263671	0.0367085673
3095.7358337401	0.0365978293
3097.6646411132	0.0364236943
3099.5934484862	0.0362641439
3101.5222558593	0.0362066552
3103.4510632323	0.0361255854
3105.3798706054	0.0359813198
3107.3086779784	0.0357878059
3109.2374853514	0.0356394760
3111.1662927245	0.0355636105
3113.0951000975	0.0355227999
3115.0239074706	0.0352963060
3116.9527148436	0.0350715443
3118.8815222167	0.0349443555
3120.8103295897	0.0346961543
3122.7391369628	0.0346161276
3124.6679443358	0.0345796011
3126.5967517089	0.0343718529
3128.5255590819	0.0342417471
3130.4543664550	0.0341478288
3132.3831738280	0.0340305194
3134.3119812011	0.0338403322
3136.2407885741	0.0336782858
3138.1695959471	0.0336267389
3140.0984033202	0.0334774628
3142.0272106932	0.0333399251
3143.9560180663	0.0332189947
3145.8848254393	0.0330151245
3147.8136328124	0.0327696390
3149.7424401854	0.0326250456
3151.6712475585	0.0325390175
3153.6000549315	0.0323242284
3155.5288623046	0.0322025344
3157.4576696776	0.0321296901
3159.3864770507	0.0319951251
3161.3152844237	0.0317808166
3163.2440917968	0.0316944718
3165.1728991698	0.0316234231
3167.1017065428	0.0313654728
3169.0305139159	0.0313218497
3170.9593212889	0.0311205741
3172.8881286620	0.0309112780
3174.8169360350	0.0307522714
3176.7457434081	0.0305773504
3178.6745507811	0.0306178257
3180.6033581542	0.0303868018
3182.5321655272	0.0302985236
3184.4609729003	0.0301470272
3186.3897802733	0.0299184807
3188.3185876464	0.0298906192
3190.2473950194	0.0296961851
3192.1762023925	0.0296000727
3194.1050097655	0.0294362679
3196.0338171386	0.0293405578
3197.9626245116	0.0292321928
3199.8914318846	0.0291051306
3201.8202392577	0.0290127899
3203.7490466307	0.0288193598
3205.6778540038	0.0287874453
3207.6066613768	0.0286318827
3209.5354687499	0.0285266414
3211.4642761229	0.0283688195
3213.3930834960	0.0282688774
3215.3218908690	0.0283363722
3217.2506982421	0.0281096380
3219.1795056151	0.0279372074
3221.1083129882	0.0278844517
3223.0371203612	0.0278002732
3224.9659277343	0.0277140290
3226.8947351073	0.0276836380
3228.8235424803	0.0275099501
3230.7523498534	0.0273361448
3232.6811572264	0.0273196921
3234.6099645995	0.0273293369
3236.5387719725	0.0273164567
3238.4675793456	0.0270765126
3240.3963867186	0.0270915478
3242.3251940917	0.0270682834
3244.2540014647	0.0269092768
3246.1828088378	0.0269173104
3248.1116162108	0.0268118009
3250.0404235839	0.0267827176
3251.9692309569	0.0267000496
3253.8980383300	0.0266586449
3255.8268457030	0.0265310034
3257.7556530760	0.0264373794
3259.6844604491	0.0264844131
3261.6132678221	0.0263659880
3263.5420751952	0.0263782796
3265.4708825682	0.0263457969
3267.3996899413	0.0262609236
3269.3284973143	0.0262020193
3271.2573046874	0.0261780489
3273.1861120604	0.0261902548
3275.1149194335	0.0260853395
3277.0437268065	0.0259502660
3278.9725341796	0.0259937067
3280.9013415526	0.0259742029
3282.8301489257	0.0257528126
3284.7589562987	0.0258837081
3286.6877636717	0.0258652456
3288.6165710448	0.0258152373
3290.5453784178	0.0258559957
3292.4741857909	0.0256008431
3294.4029931639	0.0255804677
3296.3318005370	0.0255482420
3298.2606079100	0.0256236997
3300.1894152831	0.0256016608
3302.1182226561	0.0254151896
3304.0470300292	0.0254354421
3305.9758374022	0.0253294185
3307.9046447753	0.0252587106
3309.8334521483	0.0252471976
3311.7622595214	0.0252603106
3313.6910668944	0.0251397621
3315.6198742675	0.0250502564
3317.5486816405	0.0250637382
3319.4774890135	0.0250482000
3321.4062963866	0.0250263885
3323.3351037596	0.0249043126
3325.2639111327	0.0249425247
3327.1927185057	0.0248469971
3329.1215258788	0.0247675814
3331.0503332518	0.0247905888
3332.9791406249	0.0247325469
3334.9079479979	0.0246507861
3336.8367553710	0.0244785622
3338.7655627440	0.0245455615
3340.6943701171	0.0245399214
3342.6231774901	0.0244382694
3344.5519848632	0.0244364664
3346.4807922362	0.0244098045
3348.4095996092	0.0243428927
3350.3384069823	0.0243038349
3352.2672143553	0.0242966339
3354.1960217284	0.0241734963
3356.1248291014	0.0241791382
3358.0536364745	0.0241180919
3359.9824438475	0.0239898041
3361.9112512206	0.0239506885
3363.8400585936	0.0239623152
3365.7688659667	0.0238911808
3367.6976733397	0.0237533525
3369.6264807128	0.0238268785
3371.5552880858	0.0237844102
3373.4840954589	0.0238422919
3375.4129028319	0.0238445383
3377.3417102049	0.0237050205
3379.2705175780	0.0237140432
3381.1993249510	0.0236417167
3383.1281323241	0.0236128122
3385.0569396971	0.0234952737
3386.9857470702	0.0234162752
3388.9145544432	0.0234293826
3390.8433618163	0.0234454721
3392.7721691893	0.0233198069
3394.7009765624	0.0232591126
3396.6297839354	0.0234210715
3398.5585913085	0.0232989527
3400.4873986815	0.0233122334
3402.4162060546	0.0233451352
3404.3450134276	0.0232397132
3406.2738208006	0.0232219081
3408.2026281737	0.0232357346
3410.1314355467	0.0233310349
3412.0602429198	0.0233056769
3413.9890502928	0.0232736990
3415.9178576659	0.0231962278
3417.8466650389	0.0232194345
3419.7754724120	0.0232121572
3421.7042797850	0.0230849199
3423.6330871581	0.0231789798
3425.5618945311	0.0232539475
3427.4907019042	0.0231987089
3429.4195092772	0.0231841356
3431.3483166503	0.0232318249
3433.2771240233	0.0231662150
3435.2059313963	0.0231678113
3437.1347387694	0.0231456999
3439.0635461424	0.0231679734
3440.9923535155	0.0232147202
3442.9211608885	0.0231240746
3444.8499682616	0.0231776722
3446.7787756346	0.0229915008
3448.7075830077	0.0230094511
3450.6363903807	0.0232064296
3452.5651977538	0.0231651906
3454.4940051268	0.0232245438
3456.4228124999	0.0232086480
3458.3516198729	0.0232210532
3460.2804272460	0.0232559666
3462.2092346190	0.0232626051
3464.1380419921	0.0232209358
3466.0668493651	0.0232555605
3467.9956567381	0.0231362619
3469.9244641112	0.0231113508
3471.8532714842	0.0234187860
3473.7820788573	0.0232131910
3475.7108862303	0.0231967717
3477.6396936034	0.0233998317
3479.5685009764	0.0232453365
3481.4973083495	0.0232095532
3483.4261157225	0.0233072415
3485.3549230956	0.0233830810
3487.2837304686	0.0233499594
3489.2125378417	0.0233676322
3491.1413452147	0.0234962124
3493.0701525878	0.0236095134
3494.9989599608	0.0234710872
3496.9277673338	0.0234417394
3498.8565747069	0.0235830788
3500.7853820799	0.0235659294
3502.7141894530	0.0233721025
3504.6429968260	0.0232885070
3506.5718041991	0.0237362273
3508.5006115721	0.0236907192
3510.4294189452	0.0235638320
3512.3582263182	0.0238224901
3514.2870336913	0.0238369741
3516.2158410643	0.0238823891
3518.1446484374	0.0237210561
3520.0734558104	0.0238457583
3522.0022631835	0.0238448903
3523.9310705565	0.0235909373
3525.8598779295	0.0237644669
3527.7886853026	0.0237496030
3529.7174926756	0.0238067061
3531.6463000487	0.0240333900
3533.5751074217	0.0241331160
3535.5039147948	0.0240745321
3537.4327221678	0.0240290798
3539.3615295409	0.0242196396
3541.2903369139	0.0242594257
3543.2191442870	0.0241158046
3545.1479516600	0.0237803422
3547.0767590331	0.0235320292
3549.0055664061	0.0241259113
3550.9343737792	0.0243219323
3552.8631811522	0.0239266176
3554.7919885252	0.0243036039
3556.7207958983	0.0243929625
3558.6496032713	0.0243425295
3560.5784106444	0.0242573023
3562.5072180174	0.0241884403
3564.4360253905	0.0243461598
3566.3648327635	0.0231296793
3568.2936401366	0.0228489861
3570.2224475096	0.0241627768
3572.1512548827	0.0245534852
3574.0800622557	0.0245609246
3576.0088696288	0.0245705154
3577.9376770018	0.0244612209
3579.8664843749	0.0245743021
3581.7952917479	0.0245710500
3583.7240991210	0.0246507209
3585.6529064940	0.0243013576
3587.5817138670	0.0228367150
3589.5105212401	0.0233568996
3591.4393286131	0.0248805527
3593.3681359862	0.0244717766
3595.2969433592	0.0242216010
3597.2257507323	0.0243849047
3599.1545581053	0.0245375782
3601.0833654784	0.0244651996
3603.0121728514	0.0246810243
3604.9409802245	0.0251371115
3606.8697875975	0.0243928842
3608.7985949706	0.0232324190
3610.7274023436	0.0236862283
3612.6562097167	0.0241942890
3614.5850170897	0.0236752592
3616.5138244627	0.0250076577
3618.4426318358	0.0235766880
3620.3714392088	0.0228643641
3622.3002465819	0.0253375396
3624.2290539549	0.0247657634
3626.1578613280	0.0255614333
3628.0866687010	0.0225920193
3630.0154760741	0.0208955090
3631.9442834471	0.0251370966
3633.8730908202	0.0246536359
3635.8018981932	0.0249711908
3637.7307055663	0.0254539885
3639.6595129393	0.0250371397
3641.5883203124	0.0253878683
3643.5171276854	0.0251301434
3645.4459350584	0.0253925137
3647.3747424315	0.0233183764
3649.3035498045	0.0218407325
3651.2323571776	0.0221939385
3653.1611645506	0.0252101887
3655.0899719237	0.0250698961
3657.0187792967	0.0229963046
3658.9475866698	0.0256147403
3660.8763940428	0.0252820216
3662.8052014159	0.0256403759
3664.7340087889	0.0256140865
3666.6628161620	0.0253847688
3668.5916235350	0.0249271616
3670.5204309081	0.0211983137
3672.4492382811	0.0245973468
3674.3780456541	0.0238680318
3676.3068530272	0.0204708800
3678.2356604002	0.0244034044
3680.1644677733	0.0250647049
3682.0932751463	0.0251868665
3684.0220825194	0.0257224515
3685.9508898924	0.0253771208
3687.8796972655	0.0232948512
3689.8085046385	0.0217733216
3691.7373120116	0.0243293792
3693.6661193846	0.0247813817
3695.5949267577	0.0252206121
3697.5237341307	0.0253039487
3699.4525415038	0.0250306651
3701.3813488768	0.0245860629
3703.3101562499	0.0237851385
3705.2389636229	0.0256430656
3707.1677709959	0.0246769451
3709.0965783690	0.0242280997
3711.0253857420	0.0231459737
3712.9541931151	0.0219254103
3714.8830004881	0.0249171387
3716.8118078612	0.0246246625
3718.7406152342	0.0247523524
3720.6694226073	0.0244015045
3722.5982299803	0.0237219892
3724.5270373534	0.0243284721
3726.4558447264	0.0228580292
3728.3846520995	0.0244388729
3730.3134594725	0.0241515562
3732.2422668456	0.0225840472
3734.1710742186	0.0222602189
3736.0998815916	0.0214142464
3738.0286889647	0.0222783349
3739.9574963377	0.0237077773
3741.8863037108	0.0247739255
3743.8151110838	0.0201201905
3745.7439184569	0.0191681050
3747.6727258299	0.0236926973
3749.6015332030	0.0209890176
3751.5303405760	0.0197236333
3753.4591479491	0.0219671074
3755.3879553221	0.0231888741
3757.3167626952	0.0238993373
3759.2455700682	0.0225962456
3761.1743774413	0.0231941435
3763.1031848143	0.0241999291
3765.0319921873	0.0230094846
3766.9607995604	0.0233894847
3768.8896069334	0.0230712034
3770.8184143065	0.0222629569
3772.7472216795	0.0237615220
3774.6760290526	0.0237475168
3776.6048364256	0.0237175561
3778.5336437987	0.0232292786
3780.4624511717	0.0225171894
3782.3912585448	0.0236056075
3784.3200659178	0.0231132675
3786.2488732909	0.0231064409
3788.1776806639	0.0234994758
3790.1064880370	0.0233931616
3792.0352954100	0.0232429318
3793.9641027830	0.0235127974
3795.8929101561	0.0224801712
3797.8217175291	0.0222368501
3799.7505249022	0.0231125634
3801.6793322752	0.0191877466
3803.6081396483	0.0216605589
3805.5369470213	0.0232141800
3807.4657543944	0.0197938327
3809.3945617674	0.0229784139
3811.3233691405	0.0226423405
3813.2521765135	0.0232031830
3815.1809838866	0.0213467367
3817.1097912596	0.0192864649
3819.0385986327	0.0232003964
3820.9674060057	0.0197390895
3822.8962133787	0.0204163194
3824.8250207518	0.0230970364
3826.7538281248	0.0213824995
3828.6826354979	0.0225902721
3830.6114428709	0.0218885615
3832.5402502440	0.0212355219
3834.4690576170	0.0216489173
3836.3978649901	0.0207088683
3838.3266723631	0.0191335194
3840.2554797362	0.0203940012
3842.1842871092	0.0215905979
3844.1130944823	0.0208935589
3846.0419018553	0.0222107694
3847.9707092284	0.0219485890
3849.8995166014	0.0218511224
3851.8283239745	0.0201162137
3853.7571313475	0.0160210561
3855.6859387205	0.0181432627
3857.6147460936	0.0220379978
3859.5435534666	0.0214714687
3861.4723608397	0.0212852228
3863.4011682127	0.0208754223
3865.3299755858	0.0196373463
3867.2587829588	0.0214637145
3869.1875903319	0.0199776962
3871.1163977049	0.0189053938
3873.0452050780	0.0215097852
3874.9740124510	0.0202013589
3876.9028198241	0.0213569608
3878.8316271971	0.0216590650
3880.7604345702	0.0192282945
3882.6892419432	0.0213152431
3884.6180493162	0.0202655643
3886.5468566893	0.0189526528
3888.4756640623	0.0214621015
3890.4044714354	0.0204680450
3892.3332788084	0.0195244141
3894.2620861815	0.0209107753
3896.1908935545	0.0211165361
3898.1197009276	0.0204204917
3900.0485083006	0.0194645077
3901.9773156737	0.0193993505
3903.9061230467	0.0192604139
3905.8349304198	0.0194971636
3907.7637377928	0.0208348092
3909.6925451659	0.0207307748
3911.6213525389	0.0206288621
3913.5501599119	0.0208881311
3915.4789672850	0.0203843005
3917.4077746580	0.0199119523
3919.3365820311	0.0198995359
3921.2653894041	0.0204309076
3923.1941967772	0.0202213004
3925.1230041502	0.0199052133
3927.0518115233	0.0201957673
3928.9806188963	0.0203959160
3930.9094262694	0.0200578272
3932.8382336424	0.0195639748
3934.7670410155	0.0200416893
3936.6958483885	0.0202072933
3938.6246557616	0.0199797358
3940.5534631346	0.0200530440
3942.4822705076	0.0195741542
3944.4110778807	0.0196744036
3946.3398852537	0.0200551040
3948.2686926268	0.0195401888
3950.1974999998	0.0196107589
3952.1263073729	0.0199126061
3954.0551147459	0.0197912194
3955.9839221190	0.0198496357
3957.9127294920	0.0197307244
3959.8415368651	0.0197472908
3961.7703442381	0.0196354687
3963.6991516112	0.0195730627
3965.6279589842	0.0197259542
3967.5567663573	0.0195394792
3969.4855737303	0.0194732267
3971.4143811034	0.0194210149
3973.3431884764	0.0194206201
3975.2719958494	0.0193462502
3977.2008032225	0.0193563662
3979.1296105955	0.0193754528
3981.0584179686	0.0192422196
3982.9872253416	0.0194376409
3984.9160327147	0.0192699954
3986.8448400877	0.0191150047
3988.7736474608	0.0191398524
3990.7024548338	0.0190685913
3992.6312622069	0.0191200748
3994.5600695799	0.0190086327
3996.4888769530	0.0189966708
3998.4176843260	0.0189790260
4000.3464916991	0.0189731605
4002.2752990721	0.0189409778
4004.2041064451	0.0188622698
4006.1329138182	0.0188680999
4008.0617211912	0.0187323131
4009.9905285643	0.0187613945
4011.9193359373	0.0187852830
4013.8481433104	0.0186076108
4015.7769506834	0.0186059158
4017.7057580565	0.0186238885
4019.6345654295	0.0184833743
4021.5633728026	0.0185106955
4023.4921801756	0.0185067989
4025.4209875487	0.0183948558
4027.3497949217	0.0184061676
4029.2786022948	0.0182918943
4031.2074096678	0.0182795543
4033.1362170408	0.0183159616
4035.0650244139	0.0181966741
4036.9938317869	0.0182582680
4038.9226391600	0.0182412416
4040.8514465330	0.0181213990
4042.7802539061	0.0182313882
4044.7090612791	0.0181358904
4046.6378686522	0.0179957449
4048.5666760252	0.0179833211
4050.4954833983	0.0178782903
4052.4242907713	0.0179699119
4054.3530981444	0.0178528149
4056.2819055174	0.0178277344
4058.2107128905	0.0179018751
4060.1395202635	0.0177088678
4062.0683276365	0.0177907087
4063.9971350096	0.0177538805
4065.9259423826	0.0177343152
4067.8547497557	0.0177158080
4069.7835571287	0.0176094808
4071.7123645018	0.0176338963
4073.6411718748	0.0175244231
4075.5699792479	0.0175667889
4077.4987866209	0.0175123662
4079.4275939940	0.0174005628
4081.3564013670	0.0174036901
4083.2852087401	0.0173704643
4085.2140161131	0.0173311532
4087.1428234862	0.0172603000
4089.0716308592	0.0172550045
4091.0004382323	0.0171991121
4092.9292456053	0.0172073320
4094.8580529783	0.0171813294
4096.7868603514	0.0170701593
4098.7156677244	0.0170681942
4100.6444750975	0.0171227381
4102.5732824705	0.0170719363
4104.5020898436	0.0169700868
4106.4308972166	0.0169685297
4108.3597045897	0.0169454534
4110.2885119627	0.0169488117
4112.2173193358	0.0168488696
4114.1461267088	0.0167378262
4116.0749340819	0.0166948363
4118.0037414549	0.0167194232
4119.9325488280	0.0167160165
4121.8613562010	0.0166157819
4123.7901635740	0.0166505072
4125.7189709471	0.0165582262
4127.6477783201	0.0165938027
4129.5765856932	0.0165213905
4131.5053930662	0.0163794793
4133.4342004393	0.0164770652
4135.3630078123	0.0163827986
4137.2918151854	0.0163973924
4139.2206225584	0.0163255576
4141.1494299315	0.0162904244
4143.0782373045	0.0163130704
4145.0070446776	0.0162343048
4146.9358520506	0.0162384976
4148.8646594237	0.0161441304
4150.7934667967	0.0161256418
4152.7222741697	0.0161072500
4154.6510815428	0.0161474627
4156.5798889158	0.0160511956
4158.5086962889	0.0159768704
4160.4375036619	0.0160149317
4162.3663110350	0.0159300994
4164.2951184080	0.0159675889
4166.2239257811	0.0159132630
4168.1527331541	0.0158821512
4170.0815405272	0.0158186257
4172.0103479002	0.0158182438
4173.9391552733	0.0157897286
4175.8679626463	0.0157659762
4177.7967700194	0.0158096571
4179.7255773924	0.0155897662
4181.6543847654	0.0156433657
4183.5831921385	0.0155877098
4185.5119995115	0.0155671835
4187.4408068846	0.0156131908
4189.3696142576	0.0154340575
4191.2984216307	0.0155340414
4193.2272290037	0.0154653005
4195.1560363768	0.0153922345
4197.0848437498	0.0153450780
4199.0136511229	0.0152649321
4200.9424584959	0.0152972657
4202.8712658690	0.0152871823
4204.8000732420	0.0152720734
4206.7288806151	0.0151922405
4208.6576879881	0.0151759814
4210.5864953611	0.0150847072
4212.5153027342	0.0150418840
4214.4441101072	0.0150498189
4216.3729174803	0.0150545733
4218.3017248533	0.0150588769
4220.2305322264	0.0150023717
4222.1593395994	0.0149528850
4224.0881469725	0.0148437927
4226.0169543455	0.0148744956
4227.9457617186	0.0148933055
4229.8745690916	0.0148927057
4231.8033764647	0.0147929098
4233.7321838377	0.0147851165
4235.6609912108	0.0148168039
4237.5897985838	0.0146564562
4239.5186059569	0.0147414692
4241.4474133299	0.0146527346
4243.3762207029	0.0146226278
4245.3050280760	0.0145970266
4247.2338354490	0.0145074269
4249.1626428221	0.0146357613
4251.0914501951	0.0145244524
4253.0202575682	0.0145393098
4254.9490649412	0.0144470325
4256.8778723143	0.0143267429
4258.8066796873	0.0143968854
4260.7354870604	0.0143652353
4262.6642944334	0.0143314246
4264.5931018065	0.0142478906
4266.5219091795	0.0142865386
4268.4507165526	0.0142096588
4270.3795239256	0.0140983891
4272.3083312986	0.0141515397
4274.2371386717	0.0141466456
4276.1659460447	0.0140497871
4278.0947534178	0.0140536055
4280.0235607908	0.0141046597
4281.9523681639	0.0140126664
4283.8811755369	0.0140629057
4285.8099829100	0.0140145738
4287.7387902830	0.0138939451
4289.6675976561	0.0138653796
4291.5964050291	0.0138676930
4293.5252124022	0.0139400307
4295.4540197752	0.0138396211
4297.3828271483	0.0137717333
4299.3116345213	0.0137564335
4301.2404418943	0.0136959236
4303.1692492674	0.0136869494
4305.0980566404	0.0136670433
4307.0268640135	0.0135706421
4308.9556713865	0.0135955345
4310.8844787596	0.0136356922
4312.8132861326	0.0135591729
4314.7420935057	0.0135571323
4316.6709008787	0.0134190228
4318.5997082518	0.0134600792
4320.5285156248	0.0134908557
4322.4573229979	0.0133598857
4324.3861303709	0.0133901481
4326.3149377440	0.0133288503
4328.2437451170	0.0133369360
4330.1725524900	0.0133070499
4332.1013598631	0.0132970680
4334.0301672361	0.0132641364
4335.9589746092	0.0132088829
4337.8877819822	0.0132058160
4339.8165893553	0.0130793732
4341.7453967283	0.0131741343
4343.6742041014	0.0131756552
4345.6030114744	0.0130990436
4347.5318188475	0.0130599858
4349.4606262205	0.0129798194
4351.3894335936	0.0130159874
4353.3182409666	0.0129596759
4355.2470483397	0.0129317995
4357.1758557127	0.0129015204
4359.1046630858	0.0128058214
4361.0334704588	0.0127384923
4362.9622778318	0.0127944723
4364.8910852049	0.0127945971
4366.8198925779	0.0127495546
4368.7486999510	0.0127588846
4370.6775073240	0.0126671381
4372.6063146971	0.0127364807
4374.5351220701	0.0126762018
4376.4639294432	0.0125543065
4378.3927368162	0.0125773586
4380.3215441893	0.0125524644
4382.2503515623	0.0125954766
4384.1791589354	0.0125589352
4386.1079663084	0.0125020053
4388.0367736815	0.0124626560
4389.9655810545	0.0124125276
4391.8943884275	0.0123243537
4393.8231958006	0.0123243034
4395.7520031736	0.0123929754
4397.6808105467	0.0123285558
4399.6096179197	0.0122387074
4401.5384252928	0.0122367460
4403.4672326658	0.0123186801
4405.3960400389	0.0121674296
4407.3248474119	0.0121979155
4409.2536547850	0.0122435074
4411.1824621580	0.0120635424
4413.1112695311	0.0121296914
4415.0400769041	0.0120137669
4416.9688842772	0.0120266434
4418.8976916502	0.0120273381
4420.8264990232	0.0119319204
4422.7553063963	0.0120991413
4424.6841137693	0.0120281000
4426.6129211424	0.0119407848
4428.5417285154	0.0118805012
4430.4705358885	0.0118797980
4432.3993432615	0.0118381595
4434.3281506346	0.0117379669
4436.2569580076	0.0118076615
4438.1857653807	0.0117448475
4440.1145727537	0.0117715970
4442.0433801268	0.0117340852
4443.9721874998	0.0116434433
4445.9009948729	0.0116944760
4447.8298022459	0.0116502317
4449.7586096189	0.0116347428
4451.6874169920	0.0116146207
4453.6162243650	0.0115988171
4455.5450317381	0.0114953937
4457.4738391111	0.0114536565
4459.4026464842	0.0115620848
4461.3314538572	0.0114645157
4463.2602612303	0.0114052212
4465.1890686033	0.0114000477
4467.1178759764	0.0113019608
4469.0466833494	0.0113393143
4470.9754907225	0.0113186948
4472.9042980955	0.0112362383
4474.8331054686	0.0113356560
4476.7619128416	0.0112901237
4478.6907202147	0.0111589376
4480.6195275877	0.0111999847
4482.5483349607	0.0111921411
4484.4771423338	0.0111921867
4486.4059497068	0.0111342091
4488.3347570799	0.0110511612
4490.2635644529	0.0110751167
4492.1923718260	0.0110450918
4494.1211791990	0.0110343490
4496.0499865721	0.0109665794
4497.9787939451	0.0109291757
4499.9076013182	0.0109453537
4501.8364086912	0.0109035941
4503.7652160643	0.0109033547
4505.6940234373	0.0107871965
4507.6228308104	0.0108053014
4509.5516381834	0.0108460560
4511.4804455564	0.0106964372
4513.4092529295	0.0107578831
4515.3380603025	0.0107718613
4517.2668676756	0.0107125323
4519.1956750486	0.0107194688
4521.1244824217	0.0106546432
4523.0532897947	0.0106964726
4524.9820971678	0.0106471032
4526.9109045408	0.0105456803
4528.8397119139	0.0105989762
4530.7685192869	0.0105377268
4532.6973266600	0.0105205942
4534.6261340330	0.0105181318
4536.5549414061	0.0104220603
4538.4837487791	0.0104759261
4540.4125561521	0.0104015255
4542.3413635252	0.0103796273
4544.2701708982	0.0104303714
4546.1989782713	0.0103160627
4548.1277856443	0.0103743225
4550.0565930174	0.0103221238
4551.9854003904	0.0102851521
4553.9142077635	0.0103273904
4555.8430151365	0.0102260355
4557.7718225096	0.0102752596
4559.7006298826	0.0102410894
4561.6294372557	0.0101546533
4563.5582446287	0.0101252850
4565.4870520018	0.0100838691
4567.4158593748	0.0100487713
4569.3446667478	0.0100455135
4571.2734741209	0.0100648524
4573.2022814939	0.0099738017
4575.1310888670	0.0100094182
4577.0598962400	0.0099794129
4578.9887036131	0.0099259056
4580.9175109861	0.0100152213
4582.8463183592	0.0099723525
4584.7751257322	0.0099092796
4586.7039331053	0.0097918548
4588.6327404783	0.0097939493
4590.5615478514	0.0098053180
4592.4903552244	0.0096869189
4594.4191625975	0.0097383196
4596.3479699705	0.0097335316
4598.2767773435	0.0097098406
4600.2055847166	0.0097085023
4602.1343920896	0.0096763093
4604.0631994627	0.0097360462
4605.9920068357	0.0096683893
4607.9208142088	0.0096335523
4609.8496215818	0.0096481312
4611.7784289549	0.0095404461
4613.7072363279	0.0095819347
4615.6360437010	0.0095314011
4617.5648510740	0.0094453990
4619.4936584471	0.0094791241
4621.4224658201	0.0094231218
4623.3512731932	0.0094734952
4625.2800805662	0.0093979388
4627.2088879393	0.0093748644
4629.1376953123	0.0094347820
4631.0665026853	0.0093000643
4632.9953100584	0.0093505085
4634.9241174314	0.0093322881
4636.8529248045	0.0092577599
4638.7817321775	0.0092592584
4640.7105395506	0.0092399502
4642.6393469236	0.0092631243
4644.5681542967	0.0092118848
4646.4969616697	0.0091722496
4648.4257690428	0.0090872087
4650.3545764158	0.0091148149
4652.2833837889	0.0091444738
4654.2121911619	0.0090232603
4656.1409985350	0.0090871230
4658.0698059080	0.0091597289
4659.9986132810	0.0090809865
4661.9274206541	0.0090012737
4663.8562280271	0.0090318844
4665.7850354002	0.0090629868
4667.7138427732	0.0089954063
4669.6426501463	0.0089668185
4671.5714575193	0.0089820307
4673.5002648924	0.0089288587
4675.4290722654	0.0088670347
4677.3578796385	0.0088715442
4679.2866870115	0.0088668466
4681.2154943846	0.0088307578
4683.1443017576	0.0087751085
4685.0731091307	0.0087885037
4687.0019165037	0.0088139167
4688.9307238767	0.0087613724
4690.8595312498	0.0087043289
4692.7883386228	0.0087384209
4694.7171459959	0.0087113511
4696.6459533689	0.0086356970
4698.5747607420	0.0087426817
4700.5035681150	0.0086355079
4702.4323754881	0.0085486900
4704.3611828611	0.0086437706
4706.2899902342	0.0085912347
4708.2187976072	0.0085444730
4710.1476049803	0.0084800012
4712.0764123533	0.0085382052
4714.0052197264	0.0084734876
4715.9340270994	0.0084441146
4717.8628344724	0.0085072275
4719.7916418455	0.0083983820
4721.7204492185	0.0084534828
4723.6492565916	0.0084062070
4725.5780639646	0.0084230751
4727.5068713377	0.0084083453
4729.4356787107	0.0083022090
4731.3644860838	0.0083367890
4733.2932934568	0.0082458556
4735.2221008299	0.0082410583
4737.1509082029	0.0082260557
4739.0797155760	0.0082787490
4741.0085229490	0.0083053764
4742.9373303221	0.0082495334
4744.8661376951	0.0082329083
4746.7949450682	0.0081069870
4748.7237524412	0.0081152208
4750.6525598142	0.0081356913
4752.5813671873	0.0081500160
4754.5101745603	0.0081128012
4756.4389819334	0.0081231166
4758.3677893064	0.0081087556
4760.2965966795	0.0079741497
4762.2254040525	0.0080706999
4764.1542114256	0.0080271345
4766.0830187986	0.0079574343
4768.0118261717	0.0079832403
4769.9406335447	0.0079772677
4771.8694409178	0.0080051608
4773.7982482908	0.0079293344
4775.7270556639	0.0078837629
4777.6558630369	0.0078582726
4779.5846704099	0.0078268945
4781.5134777830	0.0077993078
4783.4422851560	0.0078234654
4785.3710925291	0.0077597983
4787.2998999021	0.0077608507
4789.2287072752	0.0078507252
4791.1575146482	0.0077194637
4793.0863220213	0.0077410201
4795.0151293943	0.0077675628
4796.9439367674	0.0077313548
4798.8727441404	0.0076789856
4800.8015515135	0.0076024113
4802.7303588865	0.0076818420
4804.6591662596	0.0075933049
4806.5879736326	0.0076051489
4808.5167810056	0.0076318514
4810.4455883787	0.0074969660
4812.3743957517	0.0075478517
4814.3032031248	0.0075353449
4816.2320104978	0.0074934978
4818.1608178709	0.0075146039
4820.0896252439	0.0074601355
4822.0184326170	0.0074700913
4823.9472399900	0.0075173341
4825.8760473631	0.0074619884
4827.8048547361	0.0074300040
4829.7336621092	0.0074771214
4831.6624694822	0.0074252319
4833.5912768553	0.0073089558
4835.5200842283	0.0072982092
4837.4488916013	0.0073119327
4839.3776989744	0.0073098522
4841.3065063474	0.0073029869
4843.2353137205	0.0072708782
4845.1641210935	0.0072805798
4847.0929284666	0.0072116284
4849.0217358396	0.0072033918
4850.9505432127	0.0072435536
4852.8793505857	0.0071604825
4854.8081579588	0.0071693603
4856.7369653318	0.0071663535
4858.6657727049	0.0071903635
4860.5945800779	0.0071754153
4862.5233874510	0.0070577664
4864.4521948240	0.0070916368
4866.3810021971	0.0070345695
4868.3098095701	0.0069657955
4870.2386169431	0.0070822779
4872.1674243162	0.0070891446
4874.0962316892	0.0070027364
4876.0250390623	0.0069920886
4877.9538464353	0.0069504930
4879.8826538084	0.0069468357
4881.8114611814	0.0069806650
4883.7402685545	0.0069429316
4885.6690759275	0.0069466457
4887.5978833006	0.0068718097
4889.5266906736	0.0068523954
4891.4554980467	0.0069421567
4893.3843054197	0.0068536336
4895.3131127928	0.0068009468
4897.2419201658	0.0068198889
4899.1707275388	0.0067666797
4901.0995349119	0.0068005123
4903.0283422849	0.0067769834
4904.9571496580	0.0066747097
4906.8859570310	0.0067699044
4908.8147644041	0.0067880144
4910.7435717771	0.0066945734
4912.6723791502	0.0067040585
4914.6011865232	0.0066612945
4916.5299938963	0.0066526448
4918.4588012693	0.0066595534
4920.3876086424	0.0066274200
4922.3164160154	0.0066021611
4924.2452233885	0.0065364586
4926.1740307615	0.0065110587
4928.1028381345	0.0065750396
4930.0316455076	0.0066133924
4931.9604528806	0.0065293089
4933.8892602537	0.0064567039
4935.8180676267	0.0064465501
4937.7468749998	0.0064648837
4939.6756823728	0.0064855972
4941.6044897459	0.0064978460
4943.5332971189	0.0064630783
4945.4621044920	0.0063854461
4947.3909118650	0.0063959155
4949.3197192381	0.0063806348
4951.2485266111	0.0063825999
4953.1773339842	0.0063970201
4955.1061413572	0.0063147563
4957.0349487302	0.0063039400
4958.9637561033	0.0063030403
4960.8925634763	0.0062412815
4962.8213708494	0.0062311189
4964.7501782224	0.0062574139
4966.6789855955	0.0062558819
4968.6077929685	0.0062334146
4970.5366003416	0.0061830254
4972.4654077146	0.0062129004
4974.3942150877	0.0062428932
4976.3230224607	0.0061509190
4978.2518298338	0.0061281966
4980.1806372068	0.0061572758
4982.1094445799	0.0061387355
4984.0382519529	0.0060618194
4985.9670593259	0.0060366597
4987.8958666990	0.0060580997
4989.8246740720	0.0061209709
4991.7534814451	0.0061589526
4993.6822888181	0.0060525653
4995.6110961912	0.0060308492
4997.5399035642	0.0060110912
4999.4687109373	0.0060427394
5001.3975183103	0.0060059428
5003.3263256834	0.0058791554
5005.2551330564	0.0059769992
5007.1839404295	0.0059539033
5009.1127478025	0.0058799135
5011.0415551756	0.0058859084
5012.9703625486	0.0058757700
5014.8991699217	0.0058447169
5016.8279772947	0.0058405250
5018.7567846677	0.0058764182
5020.6855920408	0.0058455495
5022.6143994138	0.0058699124
5024.5432067869	0.0058526937
5026.4720141599	0.0059025581
5028.4008215330	0.0057960949
5030.3296289060	0.0056858063
5032.2584362791	0.0058401199
5034.1872436521	0.0057443827
5036.1160510252	0.0057111355
5038.0448583982	0.0056485320
5039.9736657713	0.0056131957
5041.9024731443	0.0057281838
5043.8312805174	0.0056460942
5045.7600878904	0.0056791976
5047.6888952634	0.0056732511
5049.6177026365	0.0056360248
5051.5465100095	0.0055821156
5053.4753173826	0.0055178208
5055.4041247556	0.0055986196
5057.3329321287	0.0055704527
5059.2617395017	0.0054978849
5061.1905468748	0.0055207955
5063.1193542478	0.0056385826
5065.0481616209	0.0055759028
5066.9769689939	0.0054717138
5068.9057763670	0.0055260379
5070.8345837400	0.0054758387
5072.7633911131	0.0054333117
5074.6921984861	0.0054828152
5076.6210058591	0.0054935785
5078.5498132322	0.0054344735
5080.4786206052	0.0054713897
5082.4074279783	0.0054189675
5084.3362353513	0.0053227674
5086.2650427244	0.0053989519
5088.1938500974	0.0053222664
5090.1226574705	0.0052953791
5092.0514648435	0.0053576562
5093.9802722166	0.0053124847
5095.9090795896	0.0053192498
5097.8378869627	0.0053503499
5099.7666943357	0.0053394949
5101.6955017088	0.0052902531
5103.6243090818	0.0052743256
5105.5531164548	0.0051709488
5107.4819238279	0.0051602442
5109.4107312009	0.0052976506
5111.3395385740	0.0051808418
5113.2683459470	0.0051433071
5115.1971533201	0.0052189827
5117.1259606931	0.0051550907
5119.0547680662	0.0051393849
5120.9835754392	0.0051062326
5122.9123828123	0.0051256856
5124.8411901853	0.0051433253
5126.7699975584	0.0051151020
5128.6988049314	0.0051178373
5130.6276123045	0.0051105944
5132.5564196775	0.0051289219
5134.4852270506	0.0050490750
5136.4140344236	0.0050552227
5138.3428417966	0.0050400370
5140.2716491697	0.0049543688
5142.2004565427	0.0049999463
5144.1292639158	0.0049634818
5146.0580712888	0.0050008008
5147.9868786619	0.0049775937
5149.9156860349	0.0049254261
5151.8444934080	0.0049322341
5153.7733007810	0.0048556630
5155.7021081541	0.0049193911
5157.6309155271	0.0048981202
5159.5597229002	0.0049220114
5161.4885302732	0.0049594911
5163.4173376463	0.0048688860
5165.3461450193	0.0049274964
5167.2749523923	0.0048788674
5169.2037597654	0.0048077903
5171.1325671384	0.0048469245
5173.0613745115	0.0048038550
5174.9901818845	0.0047497256
5176.9189892576	0.0048014731
5178.8477966306	0.0048482632
5180.7766040037	0.0048367637
5182.7054113767	0.0048320116
5184.6342187498	0.0047516422
5186.5630261228	0.0047079329
5188.4918334959	0.0047493083
5190.4206408689	0.0047698552
5192.3494482420	0.0047528623
5194.2782556150	0.0047271559
5196.2070629880	0.0046933554
5198.1358703611	0.0046938546
5200.0646777341	0.0047290637
5201.9934851072	0.0046708602
5203.9222924802	0.0046435157
5205.8510998533	0.0046067024
5207.7799072263	0.0045297458
5209.7087145994	0.0045618732
5211.6375219724	0.0046120947
5213.5663293455	0.0046336832
5215.4951367185	0.0046102409
5217.4239440916	0.0045641372
5219.3527514646	0.0045631803
5221.2815588377	0.0045528868
5223.2103662107	0.0044875252
5225.1391735837	0.0044189198
5227.0679809568	0.0043795854
5228.9967883298	0.0045056809
5230.9255957029	0.0045400746
5232.8544030759	0.0044026142
5234.7832104490	0.0044955784
5236.7120178220	0.0044853371
5238.6408251951	0.0044096331
5240.5696325681	0.0044185552
5242.4984399412	0.0043873400
5244.4272473142	0.0044310940
5246.3560546873	0.0043606842
5248.2848620603	0.0043277605
5250.2136694334	0.0043583475
5252.1424768064	0.0043374281
5254.0712841795	0.0042536641
5256.0000915525	0.0042646760
5257.9288989255	0.0043748687
5259.8577062986	0.0042779474
5261.7865136716	0.0042940080
5263.7153210447	0.0042947363
5265.6441284177	0.0042159692
5267.5729357908	0.0042713867
5269.5017431638	0.0042785159
5271.4305505369	0.0042838487
5273.3593579099	0.0042468235
5275.2881652830	0.0042379885
5277.2169726560	0.0042861253
5279.1457800291	0.0043018842
5281.0745874021	0.0042493897
5283.0033947752	0.0041824169
5284.9322021482	0.0041446025
5286.8610095212	0.0041678045
5288.7898168943	0.0042177998
5290.7186242673	0.0041297190
5292.6474316404	0.0041209776
5294.5762390134	0.0041536815
5296.5050463865	0.0041620247
5298.4338537595	0.0041163871
5300.3626611326	0.0040548956
5302.2914685056	0.0041262135
5304.2202758787	0.0041097882
5306.1490832517	0.0041053989
5308.0778906248	0.0040467964
5310.0066979978	0.0040449370
5311.9355053709	0.0040949490
5313.8643127439	0.0040146150
5315.7931201169	0.0040651648
5317.7219274900	0.0040776501
5319.6507348630	0.0040674591
5321.5795422361	0.0040370207
5323.5083496091	0.0039977189
5325.4371569822	0.0039893053
5327.3659643552	0.0039296448
5329.2947717283	0.0039336300
5331.2235791013	0.0039444277
5333.1523864744	0.0039900155
5335.0811938474	0.0039269212
5337.0100012205	0.0038407496
5338.9388085935	0.0037935027
5340.8676159666	0.0038411911
5342.7964233396	0.0039437814
5344.7252307126	0.0037736327
5346.6540380857	0.0038275137
5348.5828454587	0.0039427131
5350.5116528318	0.0038463557
5352.4404602048	0.0037952671
5354.3692675779	0.0037280377
5356.2980749509	0.0038894075
5358.2268823240	0.0039303517
5360.1556896970	0.0038010466
5362.0844970701	0.0038583521
5364.0133044431	0.0038538978
5365.9421118162	0.0038396344
5367.8709191892	0.0037989761
5369.7997265623	0.0037578349
5371.7285339353	0.0037977945
5373.6573413083	0.0037781114
5375.5861486814	0.0037607935
5377.5149560544	0.0036803859
5379.4437634275	0.0036588651
5381.3725708005	0.0037249052
5383.3013781736	0.0036775591
5385.2301855466	0.0036651897
5387.1589929197	0.0036580858
5389.0878002927	0.0036885464
5391.0166076658	0.0037092685
5392.9454150388	0.0036044649
5394.8742224119	0.0035993611
5396.8030297849	0.0036444527
5398.7318371580	0.0036435334
5400.6606445310	0.0036366507
5402.5894519041	0.0036209552
5404.5182592771	0.0036009206
5406.4470666501	0.0036347157
5408.3758740232	0.0035916567
5410.3046813962	0.0035250732
5412.2334887693	0.0035176063
5414.1622961423	0.0033674070
5416.0911035154	0.0034636122
5418.0199108884	0.0036087227
5419.9487182615	0.0035019752
5421.8775256345	0.0034648981
5423.8063330076	0.0034405668
5425.7351403806	0.0034850948
5427.6639477537	0.0034252247
5429.5927551267	0.0033601976
5431.5215624998	0.0034398078
5433.4503698728	0.0034301258
5435.3791772458	0.0033593082
5437.3079846189	0.0033726436
5439.2367919919	0.0034597148
5441.1655993650	0.0033784073
5443.0944067380	0.0033807415
5445.0232141111	0.0033542309
5446.9520214841	0.0033012074
5448.8808288572	0.0033846784
5450.8096362302	0.0032796166
5452.7384436033	0.0033636042
5454.6672509763	0.0034190235
5456.5960583494	0.0033407488
5458.5248657224	0.0033739265
5460.4536730955	0.0033136683
5462.3824804685	0.0033213396
5464.3112878415	0.0032969003
5466.2400952146	0.0033160548
5468.1689025876	0.0033397051
5470.0977099607	0.0033554714
5472.0265173337	0.0034264983
5473.9553247068	0.0032362989
5475.8841320798	0.0031207539
5477.8129394529	0.0032117153
5479.7417468259	0.0032598772
5481.6705541990	0.0032775265
5483.5993615720	0.0032731383
5485.5281689451	0.0032417609
5487.4569763181	0.0031959068
5489.3857836912	0.0032256730
5491.3145910642	0.0032021287
5493.2433984372	0.0031069524
5495.1722058103	0.0031513670
5497.1010131833	0.0032077059
5499.0298205564	0.0032099350
5500.9586279294	0.0031912629
5502.8874353025	0.0030911020
5504.8162426755	0.0031375082
5506.7450500486	0.0032115835
5508.6738574216	0.0031191460
5510.6026647947	0.0031334069
5512.5314721677	0.0031576226
5514.4602795408	0.0031325398
5516.3890869138	0.0031400640
5518.3178942869	0.0031090935
5520.2467016599	0.0031276774
5522.1755090330	0.0031079710
5524.1043164060	0.0030721566
5526.0331237790	0.0031214529
5527.9619311521	0.0030896256
5529.8907385251	0.0030861481
5531.8195458982	0.0031105438
5533.7483532712	0.0030101431
5535.6771606443	0.0029992773
5537.6059680173	0.0030272305
5539.5347753904	0.0029930593
5541.4635827634	0.0030018375
5543.3923901365	0.0029796348
5545.3211975095	0.0029251792
5547.2500048826	0.0029598218
5549.1788122556	0.0030092015
5551.1076196287	0.0029092771
5553.0364270017	0.0029172641
5554.9652343747	0.0030121300
5556.8940417478	0.0029275168
5558.8228491208	0.0029022577
5560.7516564939	0.0029464753
5562.6804638669	0.0029331690
5564.6092712400	0.0029408559
5566.5380786130	0.0029735796
5568.4668859861	0.0029433756
5570.3956933591	0.0028954598
5572.3245007322	0.0028975359
5574.2533081052	0.0028974060
5576.1821154783	0.0028837810
5578.1109228513	0.0028622784
5580.0397302244	0.0029197247
5581.9685375974	0.0028724642
5583.8973449704	0.0027825048
5585.8261523435	0.0028921526
5587.7549597165	0.0029190248
5589.6837670896	0.0028444468
5591.6125744626	0.0028242783
5593.5413818357	0.0028513644
5595.4701892087	0.0028269205
5597.3989965818	0.0027861386
5599.3278039548	0.0028345548
5601.2566113279	0.0028242555
5603.1854187009	0.0027864529
5605.1142260740	0.0028089187
5607.0430334470	0.0027785874
5608.9718408201	0.0027135997
5610.9006481931	0.0027518491
5612.8294555661	0.0027435292
5614.7582629392	0.0027520240
5616.6870703122	0.0027883828
5618.6158776853	0.0026902927
5620.5446850583	0.0027488628
5622.4734924314	0.0027636674
5624.4022998044	0.0026992478
5626.3311071775	0.0027466172
5628.2599145505	0.0027095773
5630.1887219236	0.0027128847
5632.1175292966	0.0026799352
5634.0463366697	0.0026405582
5635.9751440427	0.0026849522
5637.9039514158	0.0026533823
5639.8327587888	0.0026284331
5641.7615661619	0.0026267651
5643.6903735349	0.0026276961
5645.6191809079	0.0026342492
5647.5479882810	0.0026337861
5649.4767956540	0.0026667253
5651.4056030271	0.0026497822
5653.3344104001	0.0026349465
5655.2632177732	0.0026612915
5657.1920251462	0.0025958628
5659.1208325193	0.0026280726
5661.0496398923	0.0026032780
5662.9784472654	0.0025089402
5664.9072546384	0.0025927178
5666.8360620115	0.0025344398
5668.7648693845	0.0025474005
5670.6936767576	0.0025706305
5672.6224841306	0.0024938805
5674.5512915036	0.0025606290
5676.4800988767	0.0025201761
5678.4089062497	0.0025016558
5680.3377136228	0.0024814780
5682.2665209958	0.0025163724
5684.1953283689	0.0025675669
5686.1241357419	0.0024820187
5688.0529431150	0.0025080969
5689.9817504880	0.0024739341
5691.9105578611	0.0024406924
5693.8393652341	0.0024248715
5695.7681726072	0.0024309682
5697.6969799802	0.0024659699
5699.6257873533	0.0024565393
5701.5545947263	0.0025178082
5703.4834020993	0.0024202392
5705.4122094724	0.0024128500
5707.3410168454	0.0024546096
5709.2698242185	0.0023507364
5711.1986315915	0.0023870869
5713.1274389646	0.0023890762
5715.0562463376	0.0023894052
5716.9850537107	0.0024245623
5718.9138610837	0.0023907169
5720.8426684568	0.0023715682
5722.7714758298	0.0023964751
5724.7002832029	0.0023997382
5726.6290905759	0.0023395191
5728.5578979490	0.0023420730
5730.4867053220	0.0023497774
5732.4155126950	0.0023252876
5734.3443200681	0.0023226948
5736.2731274411	0.0023587453
5738.2019348142	0.0023857115
5740.1307421872	0.0023030688
5742.0595495603	0.0022848651
5743.9883569333	0.0023371694
5745.9171643064	0.0023032026
5747.8459716794	0.0023072443
5749.7747790525	0.0023123960
5751.7035864255	0.0022306903
5753.6323937986	0.0022298065
5755.5612011716	0.0022316366
5757.4900085447	0.0022045756
5759.4188159177	0.0022225217
5761.3476232907	0.0022222050
5763.2764306638	0.0022506267
5765.2052380368	0.0021659313
5767.1340454099	0.0021656933
5769.0628527829	0.0022773608
5770.9916601560	0.0021766927
5772.9204675290	0.0021867466
5774.8492749021	0.0022055996
5776.7780822751	0.0021596821
5778.7068896482	0.0022426210
5780.6356970212	0.0022183419
5782.5645043943	0.0021717071
5784.4933117673	0.0021456904
5786.4221191404	0.0021421467
5788.3509265134	0.0021541910
5790.2797338865	0.0021359711
5792.2085412595	0.0021832930
5794.1373486325	0.0021757069
5796.0661560056	0.0021363704
5797.9949633786	0.0021218250
5799.9237707517	0.0021103101
5801.8525781247	0.0021073883
5803.7813854978	0.0021197367
5805.7101928708	0.0021095444
5807.6390002439	0.0020721727
5809.5678076169	0.0021463293
5811.4966149900	0.0021169814
5813.4254223630	0.0020563127
5815.3542297361	0.0021289575
5817.2830371091	0.0020832275
5819.2118444822	0.0020846333
5821.1406518552	0.0020782766
5823.0694592282	0.0019868640
5824.9982666013	0.0020509344
5826.9270739743	0.0020494373
5828.8558813474	0.0020030625
5830.7846887204	0.0020006793
5832.7134960935	0.0019347026
5834.6423034665	0.0020206347
5836.5711108396	0.0020273982
5838.4999182126	0.0019551583
5840.4287255857	0.0020649196
5842.3575329587	0.0019963402
5844.2863403318	0.0019517966
5846.2151477048	0.0019794223
5848.1439550779	0.0018748818
5850.0727624509	0.0019382234
5852.0015698239	0.0019771606
5853.9303771970	0.0019236607
5855.8591845700	0.0019513170
5857.7879919431	0.0019618394
5859.7167993161	0.0019427333
5861.6456066892	0.0019417687
5863.5744140622	0.0019258440
5865.5032214353	0.0019142723
5867.4320288083	0.0019259717
5869.3608361814	0.0019066092
5871.2896435544	0.0018891961
5873.2184509275	0.0018287941
5875.1472583005	0.0018773838
5877.0760656736	0.0018890604
5879.0048730466	0.0018309369
5880.9336804196	0.0019638946
5882.8624877927	0.0019126849
5884.7912951657	0.0018739512
5886.7201025388	0.0018812441
5888.6489099118	0.0017857389
5890.5777172849	0.0018595643
5892.5065246579	0.0018629701
5894.4353320310	0.0018278412
5896.3641394040	0.0018325689
5898.2929467771	0.0018501224
5900.2217541501	0.0018186739
5902.1505615232	0.0018132393
5904.0793688962	0.0018726189
5906.0081762693	0.0017998950
5907.9369836423	0.0017891636
5909.8657910154	0.0018020754
5911.7945983884	0.0018128783
5913.7234057614	0.0017787231
5915.6522131345	0.0017999245
5917.5810205075	0.0017952914
5919.5098278806	0.0016442556
5921.4386352536	0.0018012603
5923.3674426267	0.0018182459
5925.2962499997	0.0017414256
5927.2250573728	0.0017992071
5929.1538647458	0.0017122296
5931.0826721189	0.0017852180
5933.0114794919	0.0018028965
5934.9402868650	0.0017586565
5936.8690942380	0.0017715935
5938.7979016111	0.0017655919
5940.7267089841	0.0017886425
5942.6555163571	0.0017653748
5944.5843237302	0.0017278960
5946.5131311032	0.0016815746
5948.4419384763	0.0017492147
5950.3707458493	0.0017009361
5952.2995532224	0.0016442130
5954.2283605954	0.0017779131
5956.1571679685	0.0017442510
5958.0859753415	0.0017320139
5960.0147827146	0.0017136654
5961.9435900876	0.0016367631
5963.8723974607	0.0016757452
5965.8012048337	0.0016747583
5967.7300122068	0.0016746749
5969.6588195798	0.0016263190
5971.5876269528	0.0016254724
5973.5164343259	0.0017062003
5975.4452416989	0.0016291918
5977.3740490720	0.0016231267
5979.3028564450	0.0016566406
5981.2316638181	0.0016113302
5983.1604711911	0.0016559255
5985.0892785642	0.0016458529
5987.0180859372	0.0016229504
5988.9468933103	0.0016336110
5990.8757006833	0.0015939015
5992.8045080564	0.0015804104
5994.7333154294	0.0015797054
5996.6621228025	0.0015979931
5998.5909301755	0.0016297617
6000.5197375485	0.0015903207
