399.2631262207	0.5091698766
401.1919335938	0.8125852942
403.1207409668	0.7683396935
405.0495483398	0.3306569755
406.9783557129	0.5241929889
408.9071630859	0.5763565898
410.8359704590	0.6826834083
412.7647778320	0.7764162421
414.6935852051	0.5946751237
416.6223925781	0.9258309007
418.5511999512	0.5714972615
420.4800073242	0.4251255989
422.4088146973	0.5935054421
424.3376220703	0.4626206756
426.2664294434	0.5451513529
428.1952368164	0.4058407843
430.1240441895	0.4829402268
432.0528515625	0.8178094029
433.9816589355	0.6061270833
435.9104663086	0.4185284376
437.8392736816	0.4155794382
439.7680810547	0.4848524928
441.6968884277	0.4859292805
443.6256958008	0.5561862588
445.5545031738	0.4507352710
447.4833105469	0.3493062854
449.4121179199	0.4989955425
451.3409252930	0.6657087803
453.2697326660	0.7565102577
455.1985400391	0.4386327863
457.1273474121	0.7779961228
459.0561547852	0.7593435645
460.9849621582	0.1782996356
462.9137695313	0.4020176530
464.8425769043	0.3653046489
466.7713842773	0.3435903192
468.7001916504	0.4535439014
470.6289990234	0.4953817129
472.5578063965	0.3016408980
474.4866137695	0.1472455710
476.4154211426	0.4206494391
478.3442285156	0.5981108546
480.2730358887	0.6304636598
482.2018432617	0.5051981807
484.1306506348	0.2866134346
486.0594580078	0.2673017085
487.9882653809	0.2648957074
489.9170727539	0.4349282682
491.8458801270	0.6337818503
493.7746875000	0.3170592189
495.7034948730	-0.0555270053
497.6323022461	0.0637123957
499.5611096191	0.2931955457
501.4899169922	0.1008688882
503.4187243652	0.2816340327
505.3475317383	0.7836109996
507.2763391113	0.2062501460
509.2051464844	0.0886580497
511.1339538574	0.0140833035
513.0627612305	0.1136410758
514.9915686035	0.4201825261
516.9203759766	0.3998994827
518.8491833496	0.0904870629
520.7779907227	0.3396627307
522.7067980957	0.6219361424
524.6356054688	0.8687054515
526.5644128418	0.1346688122
528.4932202148	-0.2215472311
530.4220275879	0.3568949401
532.3508349609	0.3849163353
534.2796423340	0.0163340289
536.2084497070	-0.0856836587
538.1372570801	0.3840515018
540.0660644531	0.4133631885
541.9948718262	0.1637637317
543.9236791992	0.7582946420
545.8524865723	0.3291266561
547.7812939453	0.1687890589
549.7101013184	0.7815117240
551.6389086914	0.6517964602
553.5677160645	0.3577840626
555.4965234375	0.2207810581
557.4253308105	0.2502948046
559.3541381836	0.0983029157
561.2829455566	0.1188093722
563.2117529297	0.2930507958
565.1405603027	0.2082913369
567.0693676758	0.0632285997
568.9981750488	-0.0238765385
570.9269824219	1.8523465395
572.8557897949	0.1457636654
574.7845971680	-0.0495119989
576.7134045410	0.6069099307
578.6422119141	0.4587558508
580.5710192871	0.9332833886
582.4998266602	0.7506304979
584.4286340332	0.0643947795
586.3574414063	0.3102545738
588.2862487793	0.4169763327
590.2150561523	0.6710577011
592.1438635254	0.4055442810
594.0726708984	0.3303425908
596.0014782715	0.2642074823
597.9302856445	-0.0155435381
599.8590930176	0.5716781020
601.7879003906	0.0287366062
603.7167077637	-0.1345015615
605.6455151367	0.5083854795
607.5743225098	0.0328715220
609.5031298828	0.2567891777
611.4319372559	0.2746402919
613.3607446289	0.1905698925
615.2895520020	0.6108483672
617.2183593750	0.3367799222
619.1471667480	0.5311163068
621.0759741211	0.4819900990
623.0047814941	0.2055113614
624.9335888672	0.1959376037
626.8623962402	-0.0079673016
628.7912036133	-0.0737261102
630.7200109863	0.2640440464
632.6488183594	0.9554940462
634.5776257324	0.7807152271
636.5064331055	0.4584198594
638.4352404785	0.7108439207
640.3640478516	0.7148196101
642.2928552246	0.5436245203
644.2216625977	0.7766240239
646.1504699707	0.7121034861
648.0792773438	0.5827209353
650.0080847168	0.6255552173
651.9368920898	0.6473711729
653.8656994629	0.6900321245
655.7945068359	0.6188837290
657.7233142090	0.6041432619
659.6521215820	0.6654636264
661.5809289551	0.6937918663
663.5097363281	0.7239828110
665.4385437012	0.6538584232
667.3673510742	0.6217361689
669.2961584473	0.7135038376
671.2249658203	0.6639829874
673.1537731934	0.6095339060
675.0825805664	0.6419950724
677.0113879395	0.6803717017
678.9401953125	0.7249361873
680.8690026855	0.6538732648
682.7978100586	0.6676634550
684.7266174316	0.7166048288
686.6554248047	0.6491824389
688.5842321777	0.7385498881
690.5130395508	0.7306401730
692.4418469238	0.6730139256
694.3706542969	0.7234821320
696.2994616699	0.7260202765
698.2282690430	0.7395211458
700.1570764160	0.7312331796
702.0858837891	0.7600340247
704.0146911621	0.7643702626
705.9434985352	0.7383652329
707.8723059082	0.7735601664
709.8011132813	0.7234177589
711.7299206543	0.7283908725
713.6587280273	0.6671048999
715.5875354004	0.7060899734
717.5163427734	0.9720382094
719.4451501465	0.1397282332
721.3739575195	0.8060128689
723.3027648926	0.9149494767
725.2315722656	0.0327009931
727.1603796387	0.8542792797
729.0891870117	0.0143820057
731.0179943848	-0.1055753604
732.9468017578	0.7124913335
734.8756091309	0.1871876270
736.8044165039	0.3397866488
738.7332238770	0.1046565101
740.6620312500	-0.1014991254
742.5908386230	0.0735151321
744.5196459961	0.0952420682
746.4484533691	0.2761982679
748.3772607422	0.2603511512
750.3060681152	0.2763254046
752.2348754883	0.0610394031
754.1636828613	0.3297171295
756.0924902344	0.3305495381
758.0212976074	0.1469277889
759.9501049805	0.7612093091
761.8789123535	0.5915865898
763.8077197266	-0.0531616025
765.7365270996	0.0698515996
767.6653344727	0.8035131097
769.5941418457	0.5219842792
771.5229492188	0.4956598580
773.4517565918	0.7737980485
775.3805639648	0.0069786892
777.3093713379	0.1197589487
779.2381787109	0.4083728492
781.1669860840	0.3038953543
783.0957934570	0.2258518636
785.0246008301	1.6072654724
786.9534082031	1.5681409836
788.8822155762	0.2713169754
790.8110229492	0.6791480184
792.7398303223	0.6125025749
794.6686376953	0.1438201219
796.5974450684	0.5964465141
798.5262524414	0.7524695396
800.4550598145	0.6762591600
802.3838671875	0.7789554596
804.3126745605	0.3543837368
806.2414819336	0.1354128569
808.1702893066	0.5033728480
810.0990966797	0.7578999400
812.0279040527	0.9538381100
813.9567114258	0.4903800786
815.8855187988	0.6614754796
817.8143261719	0.2896396220
819.7431335449	0.3580018282
821.6719409180	0.7960275412
823.6007482910	0.3762876093
825.5295556641	0.4803979099
827.4583630371	0.3376314342
829.3871704102	0.5387040973
831.3159777832	0.8774238229
833.2447851563	0.8424160480
835.1735925293	1.0562608242
837.1023999023	0.9655279517
839.0312072754	0.8853179812
840.9600146484	0.8152841926
842.8888220215	0.7835813761
844.8176293945	1.0472472906
846.7464367676	0.9976923466
848.6752441406	0.8348841071
850.6040515137	0.9053556919
852.5328588867	0.8861956596
854.4616662598	0.8304925561
856.3904736328	0.9182574153
858.3192810059	0.6259760857
860.2480883789	0.5132961869
862.1768957520	1.0146032572
864.1057031250	1.4240452051
866.0345104980	0.9996619225
867.9633178711	0.6401674151
869.8921252441	0.7558925748
871.8209326172	0.3291296661
873.7497399902	0.0251809731
875.6785473633	0.4059533775
877.6073547363	0.5322925448
879.5361621094	0.7247357965
881.4649694824	0.7414997220
883.3937768555	0.5635029674
885.3225842285	0.6970049739
887.2513916016	0.2622793913
889.1801989746	0.2701284587
891.1090063477	0.7176881433
893.0378137207	0.4683437943
894.9666210938	0.5313043594
896.8954284668	0.4831659794
898.8242358398	0.2925785184
900.7530432129	0.5496469736
902.6818505859	0.7010716200
904.6106579590	0.8130910993
906.5394653320	0.5069149137
908.4682727051	0.9601520300
910.3970800781	1.4334948063
912.3258874512	1.5276786089
914.2546948242	1.9886928797
916.1835021973	0.9093939662
918.1123095703	0.9943494201
920.0411169434	0.8894053102
921.9699243164	0.7358883023
923.8987316895	0.9020966291
925.8275390625	1.0106506348
927.7563464355	1.1159139872
929.6851538086	0.9955391884
931.6139611816	1.0514985323
933.5427685547	1.0180988312
935.4715759277	1.0265396833
937.4003833008	1.0214180946
939.3291906738	0.8534187078
941.2579980469	1.0261482000
943.1868054199	1.0453091860
945.1156127930	0.9334903359
947.0444201660	0.9556983709
948.9732275391	0.9403260350
950.9020349121	0.9418858886
952.8308422852	0.9102226496
954.7596496582	1.0492715836
956.6884570313	1.3422908783
958.6172644043	1.0651310682
960.5460717773	0.8430410624
962.4748791504	0.9315931797
964.4036865234	0.9248111248
966.3324938965	1.0091789961
968.2613012695	0.9508503675
970.1901086426	0.8819926381
972.1189160156	1.1069532633
974.0477233887	1.0154241323
975.9765307617	0.9655553699
977.9053381348	1.0255383253
979.8341455078	0.9919915199
981.7629528809	0.9966805577
983.6917602539	0.9793948531
985.6205676270	1.0311729908
987.5493750000	1.0251660347
989.4781823730	1.0036202669
991.4069897461	1.0221620798
993.3357971191	1.0080225468
995.2646044922	0.9975311160
997.1934118652	0.9721018672
999.1222192383	0.9805785418
1001.0510266113	1.0187735558
1002.9798339844	1.0229891539
1004.9086413574	0.9826627374
1006.8374487305	0.9817382097
1008.7662561035	1.0110477209
1010.6950634766	0.9917492270
1012.6238708496	0.9780836701
1014.5526782227	0.9956825376
1016.4814855957	1.0127847195
1018.4102929688	1.0010741949
1020.3391003418	1.0065174103
1022.2679077148	1.0315309763
1024.1967150879	1.0194629431
1026.1255224609	1.0113133192
1028.0543298340	1.0070482492
1029.9831372070	1.0088421106
1031.9119445801	1.0091613531
1033.8407519531	1.0017210245
1035.7695593262	1.0123354197
1037.6983666992	1.0042916536
1039.6271740723	0.9968596697
1041.5559814453	1.0015786886
1043.4847888184	1.0012469292
1045.4135961914	0.9977771044
1047.3424035645	0.9987200499
1049.2712109375	1.0118058920
1051.2000183105	1.0083514452
1053.1288256836	1.0140392780
1055.0576330566	1.0065032244
1056.9864404297	0.9909593463
1058.9152478027	1.0146535635
1060.8440551758	1.0176768303
1062.7728625488	1.0105004311
1064.7016699219	1.0070365667
1066.6304772949	0.9988241196
1068.5592846680	1.0105532408
1070.4880920410	1.0198512077
1072.4168994141	1.0015835762
1074.3457067871	1.0064628124
1076.2745141602	1.0330004692
1078.2033215332	1.0122672319
1080.1321289062	1.0155434608
1082.0609362793	1.0068968534
1083.9897436523	0.9980546832
1085.9185510254	1.0332531929
1087.8473583984	1.0071687698
1089.7761657715	1.0070400238
1091.7049731445	1.0210373402
1093.6337805176	1.0276203156
1095.5625878906	1.0273009539
1097.4913952637	1.0022661686
1099.4202026367	1.0099236965
1101.3490100098	1.0107738972
1103.2778173828	1.0114921331
1105.2066247559	0.9944565892
1107.1354321289	1.0239984989
1109.0642395019	1.0345057249
1110.9930468750	1.0253022909
1112.9218542480	1.0260186195
1114.8506616211	0.9693282247
1116.7794689941	0.9991070628
1118.7082763672	1.0057438612
1120.6370837402	1.0106070042
1122.5658911133	1.0065608025
1124.4946984863	0.9909424186
1126.4235058594	1.0477422476
1128.3523132324	0.9860146046
1130.2811206055	0.9741674066
1132.2099279785	1.0180952549
1134.1387353516	1.0181621313
1136.0675427246	1.0253199339
1137.9963500977	1.0229434967
1139.9251574707	1.0390170813
1141.8539648437	1.0000391006
1143.7827722168	0.9752790928
1145.7115795898	1.0000746250
1147.6403869629	1.0079263449
1149.5691943359	1.0136226416
1151.4980017090	1.0084557533
1153.4268090820	0.9874327779
1155.3556164551	1.0122152567
1157.2844238281	1.0291000605
1159.2132312012	1.0036256313
1161.1420385742	1.0196158886
1163.0708459473	1.0163859129
1164.9996533203	1.0115822554
1166.9284606934	1.0179688931
1168.8572680664	1.0055501461
1170.7860754394	1.0152987242
1172.7148828125	1.0049822330
1174.6436901855	0.9975351691
1176.5724975586	1.0045344830
1178.5013049316	1.0118674040
1180.4301123047	1.0039521456
1182.3589196777	1.0017920732
1184.2877270508	1.0205768347
1186.2165344238	1.0100187063
1188.1453417969	1.0216639042
1190.0741491699	1.0224407911
1192.0029565430	1.0069817305
1193.9317639160	1.0210901499
1195.8605712891	1.0130165815
1197.7893786621	1.0111413002
1199.7181860351	1.0131958723
1201.6469934082	1.0053088665
1203.5758007812	1.0073502064
1205.5046081543	1.0038492680
1207.4334155273	1.0045577288
1209.3622229004	1.0106834173
1211.2910302734	1.0141196251
1213.2198376465	1.0112494230
1215.1486450195	1.0061523914
1217.0774523926	1.0099918842
1219.0062597656	1.0088878870
1220.9350671387	1.0042580366
1222.8638745117	1.0099244118
1224.7926818848	1.0140229464
1226.7214892578	1.0131052732
1228.6502966308	1.0100040436
1230.5791040039	1.0076584816
1232.5079113769	1.0084743500
1234.4367187500	1.0092576742
1236.3655261230	1.0167695284
1238.2943334961	1.0159400702
1240.2231408691	1.0072786808
1242.1519482422	1.0102152824
1244.0807556152	1.0104938745
1246.0095629883	1.0079216957
1247.9383703613	1.0085738897
1249.8671777344	1.0057959557
1251.7959851074	1.0078957081
1253.7247924805	1.0097377300
1255.6535998535	1.0037583113
1257.5824072266	1.0068224669
1259.5112145996	1.0086460114
1261.4400219726	1.0068277121
1263.3688293457	1.0134227276
1265.2976367187	1.0107574463
1267.2264440918	1.0104265213
1269.1552514648	1.0123622417
1271.0840588379	1.0101636648
1273.0128662109	1.0145152807
1274.9416735840	1.0106636286
1276.8704809570	1.0062283278
1278.7992883301	1.0146360397
1280.7280957031	1.0137763023
1282.6569030762	1.0043507814
1284.5857104492	1.0110402107
1286.5145178223	1.0112414360
1288.4433251953	1.0131399632
1290.3721325683	1.0186098814
1292.3009399414	1.0135743618
1294.2297473144	1.0202177763
1296.1585546875	1.0079675913
1298.0873620605	1.0071812868
1300.0161694336	1.0169426203
1301.9449768066	1.0153410435
1303.8737841797	1.0193247795
1305.8025915527	1.0071296692
1307.7313989258	1.0171194077
1309.6602062988	1.0165734291
1311.5890136719	1.0095604658
1313.5178210449	1.0194977522
1315.4466284180	1.0094139576
1317.3754357910	1.0120927095
1319.3042431640	1.0102213621
1321.2330505371	1.0108772516
1323.1618579101	1.0150226355
1325.0906652832	1.0115845203
1327.0194726562	1.0138233900
1328.9482800293	1.0107142925
1330.8770874023	1.0185593367
1332.8058947754	1.0144970417
1334.7347021484	1.0087201595
1336.6635095215	1.0153399706
1338.5923168945	1.0132991076
1340.5211242676	1.0140945911
1342.4499316406	1.0139887333
1344.3787390137	1.0143430233
1346.3075463867	1.0118405819
1348.2363537597	1.0095461607
1350.1651611328	1.0080744028
1352.0939685058	1.0097564459
1354.0227758789	1.0165129900
1355.9515832519	1.0100926161
1357.8803906250	1.0085811615
1359.8091979980	1.0115460157
1361.7380053711	1.0125068426
1363.6668127441	1.0150870085
1365.5956201172	1.0143712759
1367.5244274902	1.0129588842
1369.4532348633	1.0115718842
1371.3820422363	1.0164643526
1373.3108496094	1.0133398771
1375.2396569824	1.0143845081
1377.1684643555	1.0160528421
1379.0972717285	1.0111865997
1381.0260791015	1.0135893822
1382.9548864746	1.0064727068
1384.8836938476	1.0110094547
1386.8125012207	1.0154252052
1388.7413085937	1.0109529495
1390.6701159668	1.0132162571
1392.5989233398	1.0119836330
1394.5277307129	1.0181381702
1396.4565380859	1.0133851767
1398.3853454590	1.0118063688
1400.3141528320	1.0135798454
1402.2429602051	1.0098994970
1404.1717675781	1.0184693336
1406.1005749512	1.0113232136
1408.0293823242	1.0087360144
1409.9581896972	1.0193470716
1411.8869970703	1.0161769390
1413.8158044433	1.0097763538
1415.7446118164	1.0112984180
1417.6734191894	1.0159845352
1419.6022265625	1.0070005655
1421.5310339355	1.0060507059
1423.4598413086	1.0132832527
1425.3886486816	1.0115895271
1427.3174560547	1.0138595104
1429.2462634277	1.0180516243
1431.1750708008	1.0144088268
1433.1038781738	1.0100214481
1435.0326855469	1.0142900944
1436.9614929199	1.0188858509
1438.8903002929	1.0138649940
1440.8191076660	1.0088090897
1442.7479150390	1.0084170103
1444.6767224121	1.0093398094
1446.6055297851	1.0152599812
1448.5343371582	1.0193917751
1450.4631445312	1.0122272968
1452.3919519043	1.0154979229
1454.3207592773	1.0126112700
1456.2495666504	1.0122249126
1458.1783740234	1.0192290545
1460.1071813965	1.0131980181
1462.0359887695	1.0181467533
1463.9647961426	1.0170786381
1465.8936035156	1.0119236708
1467.8224108886	1.0101865530
1469.7512182617	1.0075227022
1471.6800256347	1.0113593340
1473.6088330078	1.0119105577
1475.5376403808	1.0097979307
1477.4664477539	1.0095548630
1479.3952551269	1.0130597353
1481.3240625000	1.0123049021
1483.2528698730	1.0084370375
1485.1816772461	1.0109304190
1487.1104846191	1.0097761154
1489.0392919922	1.0071754456
1490.9680993652	1.0083627701
1492.8969067383	1.0088132620
1494.8257141113	1.0079659224
1496.7545214843	1.0085706711
1498.6833288574	1.0089955330
1500.6121362304	1.0080484152
1502.5409436035	1.0064991713
1504.4697509765	1.0056362152
1506.3985583496	1.0099656582
1508.3273657226	1.0084363222
1510.2561730957	1.0059231520
1512.1849804687	1.0077669621
1514.1137878418	1.0057662725
1516.0425952148	1.0048780441
1517.9714025879	1.0067034960
1519.9002099609	1.0075509548
1521.8290173340	1.0064915419
1523.7578247070	1.0047121048
1525.6866320801	1.0029603243
1527.6154394531	1.0024622679
1529.5442468261	1.0041872263
1531.4730541992	1.0030488968
1533.4018615722	1.0028254986
1535.3306689453	1.0028579235
1537.2594763183	1.0029977560
1539.1882836914	1.0043748617
1541.1170910644	1.0032893419
1543.0458984375	1.0021990538
1544.9747058105	0.9985568523
1546.9035131836	0.9986184835
1548.8323205566	0.9972655773
1550.7611279297	0.9961952567
1552.6899353027	0.9996048212
1554.6187426758	0.9963831306
1556.5475500488	0.9972647429
1558.4763574218	0.9988118410
1560.4051647949	0.9959787726
1562.3339721679	0.9977646470
1564.2627795410	0.9947326183
1566.1915869140	0.9927270412
1568.1203942871	0.9922572970
1570.0492016601	0.9918430448
1571.9780090332	0.9917589426
1573.9068164062	0.9900534749
1575.8356237793	0.9889619350
1577.7644311523	0.9859390259
1579.6932385254	0.9870546460
1581.6220458984	0.9850465059
1583.5508532715	0.9823079705
1585.4796606445	0.9831995964
1587.4084680175	0.9805178642
1589.3372753906	0.9792916179
1591.2660827636	0.9762793779
1593.1948901367	0.9751951098
1595.1236975097	0.9744676352
1597.0525048828	0.9699850082
1598.9813122558	0.9672167897
1600.9101196289	0.9649719596
1602.8389270019	0.9617558718
1604.7677343750	0.9577613473
1606.6965417480	0.9558679461
1608.6253491211	0.9520398378
1610.5541564941	0.9509680271
1612.4829638672	0.9482347369
1614.4117712402	0.9429215193
1616.3405786132	0.9419946671
1618.2693859863	0.9357376695
1620.1981933593	0.9326664209
1622.1270007324	0.9287321568
1624.0558081054	0.9243114591
1625.9846154785	0.9229342937
1627.9134228515	0.9195941091
1629.8422302246	0.9194130898
1631.7710375976	0.9169997573
1633.6998449707	0.9152902365
1635.6286523437	0.9139035344
1637.5574597168	0.9115258455
1639.4862670898	0.9115561843
1641.4150744629	0.9111149907
1643.3438818359	0.9131498337
1645.2726892090	0.9143293500
1647.2014965820	0.9145819545
1649.1303039550	0.9153427482
1651.0591113281	0.9181339145
1652.9879187011	0.9237064719
1654.9167260742	0.9219039679
1656.8455334472	0.9235813022
1658.7743408203	0.9266976118
1660.7031481933	0.9298834205
1662.6319555664	0.9353206754
1664.5607629394	0.9378824234
1666.4895703125	0.9393798709
1668.4183776855	0.9421072006
1670.3471850586	0.9466854930
1672.2759924316	0.9480435252
1674.2047998047	0.9507394433
1676.1336071777	0.9535729289
1678.0624145507	0.9564315677
1679.9912219238	0.9635736942
1681.9200292968	0.9642769694
1683.8488366699	0.9661534429
1685.7776440429	0.9686452746
1687.7064514160	0.9714109302
1689.6352587890	0.9776650667
1691.5640661621	0.9775822163
1693.4928735351	0.9805742502
1695.4216809082	0.9843310714
1697.3504882812	0.9862079024
1699.2792956543	0.9912860990
1701.2081030273	0.9921274781
1703.1369104004	0.9938417077
1705.0657177734	0.9977722168
1706.9945251464	0.9970718622
1708.9233325195	0.9977515936
1710.8521398925	1.0017709732
1712.7809472656	1.0023741722
1714.7097546386	1.0046166182
1716.6385620117	1.0083842278
1718.5673693847	1.0090310574
1720.4961767578	1.0091894865
1722.4249841308	1.0097116232
1724.3537915039	1.0128422976
1726.2825988769	1.0142034292
1728.2114062500	1.0134969950
1730.1402136230	1.0136768818
1732.0690209961	1.0148096085
1733.9978283691	1.0146509409
1735.9266357421	1.0155586004
1737.8554431152	1.0174272060
1739.7842504882	1.0181450844
1741.7130578613	1.0189372301
1743.6418652343	1.0183759928
1745.5706726074	1.0209496021
1747.4994799804	1.0216295719
1749.4282873535	1.0196020603
1751.3570947265	1.0214791298
1753.2859020996	1.0231084824
1755.2147094726	1.0232548714
1757.1435168457	1.0219651461
1759.0723242187	1.0245090723
1761.0011315918	1.0255775452
1762.9299389648	1.0255390406
1764.8587463379	1.0271803141
1766.7875537109	1.0250486135
1768.7163610839	1.0260769129
1770.6451684570	1.0275621414
1772.5739758300	1.0279517174
1774.5027832031	1.0283930302
1776.4315905761	1.0294197798
1778.3603979492	1.0303179026
1780.2892053222	1.0279222727
1782.2180126953	1.0289570093
1784.1468200683	1.0299561024
1786.0756274414	1.0297542810
1788.0044348144	1.0292346478
1789.9332421875	1.0296685696
1791.8620495605	1.0307005644
1793.7908569336	1.0292125940
1795.7196643066	1.0316333771
1797.6484716796	1.0321159363
1799.5772790527	1.0311751366
1801.5060864257	1.0303050280
1803.4348937988	1.0292251110
1805.3637011718	1.0317931175
1807.2925085449	1.0319254398
1809.2213159179	1.0321214199
1811.1501232910	1.0307214260
1813.0789306640	1.0303218365
1815.0077380371	1.0323381424
1816.9365454101	1.0289262533
1818.8653527832	1.0290548801
1820.7941601562	1.0320564508
1822.7229675293	1.0324240923
1824.6517749023	1.0321640968
1826.5805822753	1.0313764811
1828.5093896484	1.0313588381
1830.4381970214	1.0315731764
1832.3670043945	1.0329983234
1834.2958117675	1.0321356058
1836.2246191406	1.0312691927
1838.1534265136	1.0323979855
1840.0822338867	1.0319703817
1842.0110412597	1.0321972370
1843.9398486328	1.0329399109
1845.8686560058	1.0344078541
1847.7974633789	1.0316468477
1849.7262707519	1.0306680202
1851.6550781250	1.0347249508
1853.5838854980	1.0322616100
1855.5126928710	1.0319358110
1857.4415002441	1.0331071615
1859.3703076171	1.0312019587
1861.2991149902	1.0326607227
1863.2279223632	1.0334708691
1865.1567297363	1.0321786404
1867.0855371093	1.0311015844
1869.0143444824	1.0320060253
1870.9431518554	1.0317212343
1872.8719592285	1.0324095488
1874.8007666015	1.0330964327
1876.7295739746	1.0321007967
1878.6583813476	1.0335578918
1880.5871887207	1.0319781303
1882.5159960937	1.0321670771
1884.4448034667	1.0324347019
1886.3736108398	1.0323539972
1888.3024182128	1.0357230902
1890.2312255859	1.0329506397
1892.1600329589	1.0317189693
1894.0888403320	1.0328899622
1896.0176477050	1.0332797766
1897.9464550781	1.0344427824
1899.8752624511	1.0317072868
1901.8040698242	1.0314987898
1903.7328771972	1.0319278240
1905.6616845703	1.0310606956
1907.5904919433	1.0324454308
1909.5192993164	1.0325951576
1911.4481066894	1.0327852964
1913.3769140625	1.0325257778
1915.3057214355	1.0323536396
1917.2345288085	1.0323030949
1919.1633361816	1.0308505297
1921.0921435546	1.0320881605
1923.0209509277	1.0326541662
1924.9497583007	1.0325248241
1926.8785656738	1.0332161188
1928.8073730468	1.0311955214
1930.7361804199	1.0306437016
1932.6649877929	1.0313222408
1934.5937951660	1.0316089392
1936.5226025390	1.0327582359
1938.4514099121	1.0335359573
1940.3802172851	1.0334938765
1942.3090246582	1.0332862139
1944.2378320312	1.0320744514
1946.1666394042	1.0303360224
1948.0954467773	1.0320718288
1950.0242541503	1.0329682827
1951.9530615234	1.0321679115
1953.8818688964	1.0316237211
1955.8106762695	1.0303343534
1957.7394836425	1.0297446251
1959.6682910156	1.0292533636
1961.5970983886	1.0315222740
1963.5259057617	1.0316257477
1965.4547131347	1.0305362940
1967.3835205078	1.0308945179
1969.3123278808	1.0300867558
1971.2411352539	1.0299128294
1973.1699426269	1.0290595293
1975.0987499999	1.0312200785
1977.0275573730	1.0304558277
1978.9563647460	1.0285391808
1980.8851721191	1.0298842192
1982.8139794921	1.0303970575
1984.7427868652	1.0309484005
1986.6715942382	1.0288130045
1988.6004016113	1.0294822454
1990.5292089843	1.0284730196
1992.4580163574	1.0280095339
1994.3868237304	1.0289096832
1996.3156311035	1.0276999474
1998.2444384765	1.0316653252
2000.1732458496	1.0295462608
2002.1020532226	1.0287035704
2004.0308605956	1.0304185152
2005.9596679687	1.0273563862
2007.8884753417	1.0272107124
2009.8172827148	1.0277583599
2011.7460900878	1.0288757086
2013.6748974609	1.0272693634
2015.6037048339	1.0281281471
2017.5325122070	1.0294038057
2019.4613195800	1.0279651880
2021.3901269531	1.0291811228
2023.3189343261	1.0277880430
2025.2477416992	1.0273984671
2027.1765490722	1.0277888775
2029.1053564453	1.0276688337
2031.0341638183	1.0275759697
2032.9629711914	1.0269247293
2034.8917785644	1.0275160074
2036.8205859374	1.0277796984
2038.7493933105	1.0263814926
2040.6782006835	1.0245546103
2042.6070080566	1.0258339643
2044.5358154296	1.0263519287
2046.4646228027	1.0261365175
2048.3934301757	1.0251624584
2050.3222375488	1.0244135857
2052.2510449218	1.0279102325
2054.1798522949	1.0287145376
2056.1086596679	1.0251660347
2058.0374670410	1.0240521431
2059.9662744140	1.0269483328
2061.8950817871	1.0265899897
2063.8238891601	1.0250356197
2065.7526965331	1.0256114006
2067.6815039062	1.0258809328
2069.6103112792	1.0259453058
2071.5391186523	1.0243763924
2073.4679260253	1.0247830153
2075.3967333984	1.0256763697
2077.3255407714	1.0254154205
2079.2543481445	1.0254927874
2081.1831555175	1.0259873867
2083.1119628906	1.0244461298
2085.0407702636	1.0237601995
2086.9695776367	1.0255471468
2088.8983850097	1.0247615576
2090.8271923828	1.0280036926
2092.7559997558	1.0260955095
2094.6848071288	1.0219165087
2096.6136145019	1.0250251293
2098.5424218749	1.0243405104
2100.4712292480	1.0239058733
2102.4000366210	1.0237365961
2104.3288439941	1.0240564346
2106.2576513671	1.0244117975
2108.1864587402	1.0256160498
2110.1152661132	1.0249565840
2112.0440734863	1.0208622217
2113.9728808593	1.0250086784
2115.9016882324	1.0252350569
2117.8304956054	1.0231119394
2119.7593029785	1.0242259502
2121.6881103515	1.0230696201
2123.6169177245	1.0236949921
2125.5457250976	1.0235363245
2127.4745324706	1.0249854326
2129.4033398437	1.0240215063
2131.3321472167	1.0225868225
2133.2609545898	1.0243096352
2135.1897619628	1.0249601603
2137.1185693359	1.0249948502
2139.0473767089	1.0235038996
2140.9761840820	1.0246468782
2142.9049914550	1.0243060589
2144.8337988281	1.0221725702
2146.7626062011	1.0244915485
2148.6914135742	1.0253012180
2150.6202209472	1.0238709450
2152.5490283203	1.0243442059
2154.4778356933	1.0229315758
2156.4066430663	1.0235645771
2158.3354504394	1.0263450146
2160.2642578124	1.0234465599
2162.1930651855	1.0236514807
2164.1218725585	1.0241744518
2166.0506799316	1.0227502584
2167.9794873046	1.0245757103
2169.9082946777	1.0242060423
2171.8371020507	1.0252453089
2173.7659094238	1.0250041485
2175.6947167968	1.0245100260
2177.6235241699	1.0259819031
2179.5523315429	1.0241118670
2181.4811389160	1.0239912271
2183.4099462890	1.0249413252
2185.3387536620	1.0237195492
2187.2675610351	1.0239127874
2189.1963684081	1.0260516405
2191.1251757812	1.0253987312
2193.0539831542	1.0244024992
2194.9827905273	1.0249150991
2196.9115979003	1.0229204893
2198.8404052734	1.0241019726
2200.7692126464	1.0275908709
2202.6980200195	1.0255783796
2204.6268273925	1.0252790451
2206.5556347656	1.0280033350
2208.4844421386	1.0253945589
2210.4132495117	1.0246170759
2212.3420568847	1.0265380144
2214.2708642577	1.0269550085
2216.1996716308	1.0264695883
2218.1284790038	1.0246415138
2220.0572863769	1.0272991657
2221.9860937499	1.0278186798
2223.9149011230	1.0263513327
2225.8437084960	1.0269134045
2227.7725158691	1.0260295868
2229.7013232421	1.0277334452
2231.6301306152	1.0266753435
2233.5589379882	1.0262857676
2235.4877453613	1.0274734497
2237.4165527343	1.0258518457
2239.3453601074	1.0271457434
2241.2741674804	1.0269240141
2243.2029748534	1.0268514156
2245.1317822265	1.0283013582
2247.0605895995	1.0284963846
2248.9893969726	1.0284813643
2250.9182043456	1.0271184444
2252.8470117187	1.0282580853
2254.7758190917	1.0285018682
2256.7046264648	1.0271266699
2258.6334338378	1.0278891325
2260.5622412109	1.0268058777
2262.4910485839	1.0280195475
2264.4198559570	1.0299030542
2266.3486633300	1.0290464163
2268.2774707031	1.0293986797
2270.2062780761	1.0275374651
2272.1350854491	1.0281568766
2274.0638928222	1.0299316645
2275.9927001952	1.0278545618
2277.9215075683	1.0294322968
2279.8503149413	1.0290927887
2281.7791223144	1.0264912844
2283.7079296874	1.0285766125
2285.6367370605	1.0292441845
2287.5655444335	1.0280220509
2289.4943518066	1.0283793211
2291.4231591796	1.0289139748
2293.3519665527	1.0290461779
2295.2807739257	1.0274105072
2297.2095812988	1.0255002975
2299.1383886718	1.0265213251
2301.0671960449	1.0274988413
2302.9960034179	1.0272314548
2304.9248107909	1.0254851580
2306.8536181640	1.0243021250
2308.7824255370	1.0248450041
2310.7112329101	1.0212730169
2312.6400402831	1.0191143751
2314.5688476562	1.0210597515
2316.4976550292	1.0206959248
2318.4264624023	1.0174572468
2320.3552697753	1.0132452250
2322.2840771484	1.0133490562
2324.2128845214	1.0124502182
2326.1416918945	1.0076472759
2328.0704992675	1.0081310272
2329.9993066406	1.0074235201
2331.9281140136	1.0049008131
2333.8569213866	1.0068131685
2335.7857287597	1.0051572323
2337.7145361327	1.0044620037
2339.6433435058	1.0057550669
2341.5721508788	1.0048211813
2343.5009582519	1.0068982840
2345.4297656249	1.0090183020
2347.3585729980	1.0156811476
2349.2873803710	1.0219928026
2351.2161877441	1.0172923803
2353.1449951171	1.0089409351
2355.0738024902	1.0047042370
2357.0026098632	1.0029842854
2358.9314172363	0.9990604520
2360.8602246093	0.9973720908
2362.7890319823	0.9986829162
2364.7178393554	0.9977912307
2366.6466467284	1.0001115799
2368.5754541015	1.0040563345
2370.5042614745	1.0057766438
2372.4330688476	1.0096291304
2374.3618762206	1.0158075094
2376.2906835937	1.0191690922
2378.2194909667	1.0219563246
2380.1482983398	1.0268170834
2382.0771057128	1.0292887688
2384.0059130859	1.0277105570
2385.9347204589	1.0282185078
2387.8635278320	1.0315510035
2389.7923352050	1.0309909582
2391.7211425780	1.0320304632
2393.6499499511	1.0331640244
2395.5787573241	1.0332195759
2397.5075646972	1.0343458652
2399.4363720702	1.0305178165
2401.3651794433	1.0316784382
2403.2939868163	1.0335894823
2405.2227941894	1.0305399895
2407.1516015624	1.0315454006
2409.0804089355	1.0325336456
2411.0092163085	1.0324966908
2412.9380236816	1.0333435535
2414.8668310546	1.0318930149
2416.7956384277	1.0289374590
2418.7244458007	1.0317215919
2420.6532531738	1.0334937572
2422.5820605468	1.0326116085
2424.5108679198	1.0339446068
2426.4396752929	1.0317023993
2428.3684826659	1.0322266817
2430.2972900390	1.0315101147
2432.2260974120	1.0326926708
2434.1549047851	1.0364716053
2436.0837121581	1.0333119631
2438.0125195312	1.0340927839
2439.9413269042	1.0322619677
2441.8701342773	1.0297607183
2443.7989416503	1.0323027372
2445.7277490234	1.0316280127
2447.6565563964	1.0314010382
2449.5853637695	1.0316672325
2451.5141711425	1.0334870815
2453.4429785155	1.0344748497
2455.3717858886	1.0344517231
2457.3005932616	1.0332212448
2459.2294006347	1.0317696333
2461.1582080077	1.0343620777
2463.0870153808	1.0339956284
2465.0158227538	1.0335000753
2466.9446301269	1.0338151455
2468.8734374999	1.0338083506
2470.8022448730	1.0329409838
2472.7310522460	1.0312901735
2474.6598596191	1.0349589586
2476.5886669921	1.0350371599
2478.5174743652	1.0330005884
2480.4462817382	1.0320130587
2482.3750891112	1.0315227509
2484.3038964843	1.0341163874
2486.2327038573	1.0313801765
2488.1615112304	1.0324586630
2490.0903186034	1.0345029831
2492.0191259765	1.0323421955
2493.9479333495	1.0356684923
2495.8767407226	1.0335978270
2497.8055480956	1.0329155922
2499.7343554687	1.0355681181
2501.6631628417	1.0330832005
2503.5919702148	1.0346722603
2505.5207775878	1.0335278511
2507.4495849609	1.0323055983
2509.3783923339	1.0331088305
2511.3071997069	1.0306707621
2513.2360070800	1.0339852571
2515.1648144530	1.0350005627
2517.0936218261	1.0315378904
2519.0224291991	1.0308376551
2520.9512365722	1.0311912298
2522.8800439452	1.0333786011
2524.8088513183	1.0336756706
2526.7376586913	1.0328820944
2528.6664660644	1.0325281620
2530.5952734374	1.0333817005
2532.5240808105	1.0350755453
2534.4528881835	1.0319354534
2536.3816955566	1.0317038298
2538.3105029296	1.0347900391
2540.2393103027	1.0326637030
2542.1681176757	1.0323321819
2544.0969250487	1.0340199471
2546.0257324218	1.0328618288
2547.9545397948	1.0329207182
2549.8833471679	1.0331019163
2551.8121545409	1.0338335037
2553.7409619140	1.0369756222
2555.6697692870	1.0354738235
2557.5985766601	1.0326319933
2559.5273840331	1.0346642733
2561.4561914062	1.0334905386
2563.3849987792	1.0314450264
2565.3138061523	1.0348500013
2567.2426135253	1.0351495743
2569.1714208984	1.0328006744
2571.1002282714	1.0336719751
2573.0290356444	1.0337707996
2574.9578430175	1.0344147682
2576.8866503905	1.0371148586
2578.8154577636	1.0368341208
2580.7442651366	1.0349217653
2582.6730725097	1.0350379944
2584.6018798827	1.0342780352
2586.5306872558	1.0338327885
2588.4594946288	1.0360981226
2590.3883020019	1.0356290340
2592.3171093749	1.0345818996
2594.2459167480	1.0334992409
2596.1747241210	1.0324344635
2598.1035314941	1.0356867313
2600.0323388671	1.0346026421
2601.9611462401	1.0336532593
2603.8899536132	1.0338690281
2605.8187609862	1.0314114094
2607.7475683593	1.0358574390
2609.6763757323	1.0338987112
2611.6051831054	1.0314960480
2613.5339904784	1.0375148058
2615.4627978515	1.0353348255
2617.3916052245	1.0354162455
2619.3204125976	1.0350867510
2621.2492199706	1.0306767225
2623.1780273437	1.0330684185
2625.1068347167	1.0325067043
2627.0356420898	1.0329885483
2628.9644494628	1.0352904797
2630.8932568358	1.0336070061
2632.8220642089	1.0340532064
2634.7508715819	1.0327107906
2636.6796789550	1.0324062109
2638.6084863280	1.0346155167
2640.5372937011	1.0343157053
2642.4661010741	1.0345591307
2644.3949084472	1.0326797962
2646.3237158202	1.0307272673
2648.2525231933	1.0339992046
2650.1813305663	1.0357943773
2652.1101379394	1.0324075222
2654.0389453124	1.0330884457
2655.9677526855	1.0358003378
2657.8965600585	1.0334067345
2659.8253674315	1.0360597372
2661.7541748046	1.0356715918
2663.6829821776	1.0298323631
2665.6117895507	1.0318820477
2667.5405969237	1.0322164297
2669.4694042968	1.0336689949
2671.3982116698	1.0352096558
2673.3270190429	1.0318874121
2675.2558264159	1.0336896181
2677.1846337890	1.0338299274
2679.1134411620	1.0330559015
2681.0422485351	1.0328612328
2682.9710559081	1.0298080444
2684.8998632812	1.0303398371
2686.8286706542	1.0315711498
2688.7574780273	1.0312018394
2690.6862854003	1.0317231417
2692.6150927733	1.0325402021
2694.5439001464	1.0327246189
2696.4727075194	1.0330688953
2698.4015148925	1.0332584381
2700.3303222655	1.0338011980
2702.2591296386	1.0339955091
2704.1879370116	1.0316914320
2706.1167443847	1.0309748650
2708.0455517577	1.0309344530
2709.9743591308	1.0317322016
2711.9031665038	1.0338091850
2713.8319738769	1.0325763226
2715.7607812499	1.0312969685
2717.6895886230	1.0303783417
2719.6183959960	1.0308307409
2721.5472033690	1.0339734554
2723.4760107421	1.0323500633
2725.4048181151	1.0293793678
2727.3336254882	1.0316767693
2729.2624328612	1.0333448648
2731.1912402343	1.0319961309
2733.1200476073	1.0303623676
2735.0488549804	1.0305988789
2736.9776623534	1.0313512087
2738.9064697265	1.0312076807
2740.8352770995	1.0327864885
2742.7640844726	1.0306187868
2744.6928918456	1.0286366940
2746.6216992187	1.0298081636
2748.5505065917	1.0284094810
2750.4793139647	1.0320779085
2752.4081213378	1.0339490175
2754.3369287108	1.0327925682
2756.2657360839	1.0336397886
2758.1945434569	1.0299929380
2760.1233508300	1.0304553509
2762.0521582030	1.0315334797
2763.9809655761	1.0320572853
2765.9097729491	1.0344536304
2767.8385803222	1.0317035913
2769.7673876952	1.0296901464
2771.6961950683	1.0271487236
2773.6250024413	1.0282758474
2775.5538098144	1.0303184986
2777.4826171874	1.0287135839
2779.4114245604	1.0318751335
2781.3402319335	1.0296449661
2783.2690393065	1.0287618637
2785.1978466796	1.0322537422
2787.1266540526	1.0281057358
2789.0554614257	1.0269373655
2790.9842687987	1.0289508104
2792.9130761718	1.0292130709
2794.8418835448	1.0299719572
2796.7706909179	1.0287911892
2798.6994982909	1.0260643959
2800.6283056640	1.0263820887
2802.5571130370	1.0295815468
2804.4859204101	1.0307203531
2806.4147277831	1.0286477804
2808.3435351562	1.0266318321
2810.2723425292	1.0262397528
2812.2011499022	1.0242499113
2814.1299572753	1.0269690752
2816.0587646483	1.0301910639
2817.9875720214	1.0271253586
2819.9163793944	1.0274560452
2821.8451867675	1.0275819302
2823.7739941405	1.0259802341
2825.7028015136	1.0242321491
2827.6316088866	1.0248535872
2829.5604162597	1.0255869627
2831.4892236327	1.0241260529
2833.4180310058	1.0254887342
2835.3468383788	1.0222822428
2837.2756457519	1.0242369175
2839.2044531249	1.0256078243
2841.1332604979	1.0222661495
2843.0620678710	1.0270373821
2844.9908752440	1.0254527330
2846.9196826171	1.0216701031
2848.8484899901	1.0190839767
2850.7772973632	1.0203568935
2852.7061047362	1.0248354673
2854.6349121093	1.0222315788
2856.5637194823	1.0220251083
2858.4925268554	1.0201172829
2860.4213342284	1.0215427876
2862.3501416015	1.0238012075
2864.2789489745	1.0189747810
2866.2077563476	1.0201467276
2868.1365637206	1.0220626593
2870.0653710936	1.0212712288
2871.9941784667	1.0217453241
2873.9229858397	1.0211995840
2875.8517932128	1.0190000534
2877.7806005858	1.0190349817
2879.7094079589	1.0196508169
2881.6382153319	1.0176284313
2883.5670227050	1.0188814402
2885.4958300780	1.0211669207
2887.4246374511	1.0183068514
2889.3534448241	1.0161764622
2891.2822521972	1.0186398029
2893.2110595702	1.0171550512
2895.1398669433	1.0164864063
2897.0686743163	1.0177223682
2898.9974816893	1.0153641701
2900.9262890624	1.0141897202
2902.8550964354	1.0125254393
2904.7839038085	1.0161713362
2906.7127111815	1.0186575651
2908.6415185546	1.0155565739
2910.5703259276	1.0143364668
2912.4991333007	1.0113672018
2914.4279406737	1.0131424665
2916.3567480468	1.0143783092
2918.2855554198	1.0103770494
2920.2143627929	1.0092041492
2922.1431701659	1.0095891953
2924.0719775390	1.0119981766
2926.0007849120	1.0133211613
2927.9295922851	1.0101120472
2929.8583996581	1.0086927414
2931.7872070311	1.0086344481
2933.7160144042	1.0058346987
2935.6448217772	1.0059703588
2937.5736291503	1.0081595182
2939.5024365233	1.0100052357
2941.4312438964	1.0088040829
2943.3600512694	1.0058599710
2945.2888586425	1.0083286762
2947.2176660155	1.0099699497
2949.1464733886	1.0090993643
2951.0752807616	1.0070385933
2953.0040881347	1.0055918694
2954.9328955077	1.0044718981
2956.8617028808	1.0046913624
2958.7905102538	1.0067987442
2960.7193176268	1.0028277636
2962.6481249999	1.0033633709
2964.5769323729	1.0055044889
2966.5057397460	1.0034930706
2968.4345471190	1.0039442778
2970.3633544921	1.0012857914
2972.2921618651	1.0006039143
2974.2209692382	1.0022227764
2976.1497766112	1.0014536381
2978.0785839843	1.0010666847
2980.0073913573	1.0011423826
2981.9361987304	0.9977508783
2983.8650061034	0.9963206649
2985.7938134765	0.9975372553
2987.7226208495	0.9946246147
2989.6514282225	0.9964617491
2991.5802355956	0.9953828454
2993.5090429686	0.9919969440
2995.4378503417	0.9931856394
2997.3666577147	0.9917455316
2999.2954650878	0.9942570925
3001.2242724608	0.9946572185
3003.1530798339	0.9919990301
3005.0818872069	0.9902046919
3007.0106945800	0.9893686175
3008.9395019530	0.9907900095
3010.8683093261	0.9868291020
3012.7971166991	0.9860767126
3014.7259240722	0.9877406955
3016.6547314452	0.9858672023
3018.5835388182	0.9855655432
3020.5123461913	0.9853873849
3022.4411535643	0.9840646982
3024.3699609374	0.9812920690
3026.2987683104	0.9814020991
3028.2275756835	0.9796647429
3030.1563830565	0.9771088362
3032.0851904296	0.9777731895
3034.0139978026	0.9752244353
3035.9428051757	0.9773981571
3037.8716125487	0.9776834249
3039.8004199218	0.9736631513
3041.7292272948	0.9741157293
3043.6580346679	0.9694544077
3045.5868420409	0.9688564539
3047.5156494139	0.9725289345
3049.4444567870	0.9686263204
3051.3732641600	0.9679266214
3053.3020715331	0.9696787000
3055.2308789061	0.9666579366
3057.1596862792	0.9655678272
3059.0884936522	0.9670439959
3061.0173010253	0.9639849067
3062.9461083983	0.9604946375
3064.8749157714	0.9585617781
3066.8037231444	0.9571975470
3068.7325305175	0.9578101039
3070.6613378905	0.9550095797
3072.5901452636	0.9531129599
3074.5189526366	0.9558257461
3076.4477600097	0.9569973946
3078.3765673827	0.9510314465
3080.3053747557	0.9462580681
3082.2341821288	0.9488816857
3084.1629895018	0.9460857511
3086.0917968749	0.9449635148
3088.0206042479	0.9473422766
3089.9494116210	0.9426748753
3091.8782189940	0.9404942989
3093.8070263671	0.9390043616
3095.7358337401	0.9354275465
3097.6646411132	0.9360271096
3099.5934484862	0.9343276024
3101.5222558593	0.9295650721
3103.4510632323	0.9291467667
3105.3798706054	0.9300820231
3107.3086779784	0.9287505150
3109.2374853514	0.9243818521
3111.1662927245	0.9207809567
3113.0951000975	0.9213143587
3115.0239074706	0.9211451411
3116.9527148436	0.9197774529
3118.8815222167	0.9144989848
3120.8103295897	0.9107347131
3122.7391369628	0.9131957293
3124.6679443358	0.9105547667
3126.5967517089	0.9064539671
3128.5255590819	0.9077837467
3130.4543664550	0.9066469073
3132.3831738280	0.9008445740
3134.3119812011	0.8982678056
3136.2407885741	0.8980537057
3138.1695959471	0.8954147696
3140.0984033202	0.8944071531
3142.0272106932	0.8944133520
3143.9560180663	0.8907909989
3145.8848254393	0.8880958557
3147.8136328124	0.8864137530
3149.7424401854	0.8824198246
3151.6712475585	0.8820298910
3153.6000549315	0.8789620399
3155.5288623046	0.8761534095
3157.4576696776	0.8769934177
3159.3864770507	0.8696836233
3161.3152844237	0.8661609888
3163.2440917968	0.8675093055
3165.1728991698	0.8653110266
3167.1017065428	0.8635486364
3169.0305139159	0.8627949357
3170.9593212889	0.8608697653
3172.8881286620	0.8572651744
3174.8169360350	0.8564094901
3176.7457434081	0.8532710075
3178.6745507811	0.8501116037
3180.6033581542	0.8478136063
3182.5321655272	0.8453758955
3184.4609729003	0.8468066454
3186.3897802733	0.8415969014
3188.3185876464	0.8364227414
3190.2473950194	0.8397121429
3192.1762023925	0.8401534557
3194.1050097655	0.8345966339
3196.0338171386	0.8322876096
3197.9626245116	0.8335636854
3199.8914318846	0.8301815987
3201.8202392577	0.8249675035
3203.7490466307	0.8236505985
3205.6778540038	0.8237503171
3207.6066613768	0.8229576349
3209.5354687499	0.8228336573
3211.4642761229	0.8189592957
3213.3930834960	0.8168640733
3215.3218908690	0.8166092634
3217.2506982421	0.8120833635
3219.1795056151	0.8110902309
3221.1083129882	0.8114182949
3223.0371203612	0.8100607395
3224.9659277343	0.8064510226
3226.8947351073	0.8063308597
3228.8235424803	0.8045390248
3230.7523498534	0.8014585376
3232.6811572264	0.8060281873
3234.6099645995	0.8012955189
3236.5387719725	0.7978877425
3238.4675793456	0.7995911837
3240.3963867186	0.7974485755
3242.3251940917	0.7968699932
3244.2540014647	0.7946092486
3246.1828088378	0.7932980061
3248.1116162108	0.7918288112
3250.0404235839	0.7930361032
3251.9692309569	0.7914738059
3253.8980383300	0.7913684249
3255.8268457030	0.7916387320
3257.7556530760	0.7853012681
3259.6844604491	0.7874718904
3261.6132678221	0.7873152494
3263.5420751952	0.7868359089
3265.4708825682	0.7890393734
3267.3996899413	0.7877696157
3269.3284973143	0.7851203680
3271.2573046874	0.7824647427
3273.1861120604	0.7880328894
3275.1149194335	0.7820292711
3277.0437268065	0.7786904573
3278.9725341796	0.7862336636
3280.9013415526	0.7799079418
3282.8301489257	0.7816109657
3284.7589562987	0.7848017812
3286.6877636717	0.7794193625
3288.6165710448	0.7805809975
3290.5453784178	0.7786587477
3292.4741857909	0.7803784609
3294.4029931639	0.7819526792
3296.3318005370	0.7760369182
3298.2606079100	0.7777940035
3300.1894152831	0.7779724598
3302.1182226561	0.7765226364
3304.0470300292	0.7793737054
3305.9758374022	0.7770060897
3307.9046447753	0.7723610997
3309.8334521483	0.7726550698
3311.7622595214	0.7779540420
3313.6910668944	0.7749213576
3315.6198742675	0.7710018754
3317.5486816405	0.7738246918
3319.4774890135	0.7723525167
3321.4062963866	0.7712023258
3323.3351037596	0.7695898414
3325.2639111327	0.7699794173
3327.1927185057	0.7731311917
3329.1215258788	0.7748371363
3331.0503332518	0.7740499973
3332.9791406249	0.7701418996
3334.9079479979	0.7704302669
3336.8367553710	0.7718329430
3338.7655627440	0.7716796994
3340.6943701171	0.7689688206
3342.6231774901	0.7672513723
3344.5519848632	0.7687747478
3346.4807922362	0.7685075402
3348.4095996092	0.7681965232
3350.3384069823	0.7655621171
3352.2672143553	0.7639684677
3354.1960217284	0.7652706504
3356.1248291014	0.7673714161
3358.0536364745	0.7681612372
3359.9824438475	0.7671436667
3361.9112512206	0.7694919705
3363.8400585936	0.7687033415
3365.7688659667	0.7653093338
3367.6976733397	0.7665431499
3369.6264807128	0.7671501637
3371.5552880858	0.7667549253
3373.4840954589	0.7688978910
3375.4129028319	0.7691565752
3377.3417102049	0.7674642205
3379.2705175780	0.7680525184
3381.1993249510	0.7695451975
3383.1281323241	0.7690197825
3385.0569396971	0.7689602375
3386.9857470702	0.7705388069
3388.9145544432	0.7704232931
3390.8433618163	0.7721033096
3392.7721691893	0.7751027346
3394.7009765624	0.7746067047
3396.6297839354	0.7705360055
3398.5585913085	0.7717257738
3400.4873986815	0.7761335373
3402.4162060546	0.7755323648
3404.3450134276	0.7785947919
3406.2738208006	0.7782237530
3408.2026281737	0.7783034444
3410.1314355467	0.7810329199
3412.0602429198	0.7798345089
3413.9890502928	0.7847965956
3415.9178576659	0.7857094407
3417.8466650389	0.7837678790
3419.7754724120	0.7854598761
3421.7042797850	0.7885671854
3423.6330871581	0.7898535132
3425.5618945311	0.7921850681
3427.4907019042	0.7955531478
3429.4195092772	0.7929342985
3431.3483166503	0.7992228866
3433.2771240233	0.7984686494
3435.2059313963	0.7961813807
3437.1347387694	0.8020076752
3439.0635461424	0.7981909513
3440.9923535155	0.8030576110
3442.9211608885	0.8069898486
3444.8499682616	0.8061795235
3446.7787756346	0.8048288822
3448.7075830077	0.8071158528
3450.6363903807	0.8173338175
3452.5651977538	0.8162713647
3454.4940051268	0.8156731129
3456.4228124999	0.8158332109
3458.3516198729	0.8199021816
3460.2804272460	0.8236773014
3462.2092346190	0.8201569915
3464.1380419921	0.8242585659
3466.0668493651	0.8236510754
3467.9956567381	0.8275416493
3469.9244641112	0.8301563263
3471.8532714842	0.8299196362
3473.7820788573	0.8389751911
3475.7108862303	0.8369148374
3477.6396936034	0.8381821513
3479.5685009764	0.8414722681
3481.4973083495	0.8391820788
3483.4261157225	0.8418385386
3485.3549230956	0.8433683515
3487.2837304686	0.8452348113
3489.2125378417	0.8412810564
3491.1413452147	0.8453944325
3493.0701525878	0.8527006507
3494.9989599608	0.8483160734
3496.9277673338	0.8534677625
3498.8565747069	0.8551483750
3500.7853820799	0.8533300757
3502.7141894530	0.8583580256
3504.6429968260	0.8628128171
3506.5718041991	0.8685567975
3508.5006115721	0.8669888973
3510.4294189452	0.8692434430
3512.3582263182	0.8725008965
3514.2870336913	0.8666912913
3516.2158410643	0.8691492677
3518.1446484374	0.8761147261
3520.0734558104	0.8763855100
3522.0022631835	0.8775123358
3523.9310705565	0.8817291260
3525.8598779295	0.8787520528
3527.7886853026	0.8802887201
3529.7174926756	0.8859419823
3531.6463000487	0.8840063810
3533.5751074217	0.8846502304
3535.5039147948	0.8887224793
3537.4327221678	0.8906907439
3539.3615295409	0.8904584050
3541.2903369139	0.8973735571
3543.2191442870	0.8973695040
3545.1479516600	0.8940083981
3547.0767590331	0.9035088420
3549.0055664061	0.9027009606
3550.9343737792	0.9036391377
3552.8631811522	0.9078172445
3554.7919885252	0.9054960012
3556.7207958983	0.9086568356
3558.6496032713	0.9101189971
3560.5784106444	0.9123985171
3562.5072180174	0.9142044187
3564.4360253905	0.9118560553
3566.3648327635	0.9152374268
3568.2936401366	0.9205957651
3570.2224475096	0.9193146229
3572.1512548827	0.9228872061
3574.0800622557	0.9252535105
3576.0088696288	0.9245549440
3577.9376770018	0.9283422232
3579.8664843749	0.9263880253
3581.7952917479	0.9311442971
3583.7240991210	0.9321909547
3585.6529064940	0.9316863418
3587.5817138670	0.9395419955
3589.5105212401	0.9342644811
3591.4393286131	0.9378950596
3593.3681359862	0.9408280849
3595.2969433592	0.9373468757
3597.2257507323	0.9436064959
3599.1545581053	0.9427803755
3601.0833654784	0.9405984879
3603.0121728514	0.9423440695
3604.9409802245	0.9450228214
3606.8697875975	0.9455655813
3608.7985949706	0.9488338828
3610.7274023436	0.9587705135
3612.6562097167	0.9560413361
3614.5850170897	0.9501143694
3616.5138244627	0.9541279078
3618.4426318358	0.9552993774
3620.3714392088	0.9563076496
3622.3002465819	0.9589210153
3624.2290539549	0.9601333737
3626.1578613280	0.9629858136
3628.0866687010	0.9606775045
3630.0154760741	0.9636584520
3631.9442834471	0.9685179591
3633.8730908202	0.9647294879
3635.8018981932	0.9694688320
3637.7307055663	0.9752576947
3639.6595129393	0.9724370837
3641.5883203124	0.9716750383
3643.5171276854	0.9750818610
3645.4459350584	0.9727873802
3647.3747424315	0.9729461074
3649.3035498045	0.9792261720
3651.2323571776	0.9778909087
3653.1611645506	0.9848244190
3655.0899719237	0.9878196716
3657.0187792967	0.9836498499
3658.9475866698	0.9856338501
3660.8763940428	0.9862301350
3662.8052014159	0.9934889674
3664.7340087889	0.9942381978
3666.6628161620	0.9905956984
3668.5916235350	0.9937896729
3670.5204309081	0.9942343831
3672.4492382811	0.9986183047
3674.3780456541	0.9997801781
3676.3068530272	1.0001682043
3678.2356604002	1.0052274466
3680.1644677733	1.0044264793
3682.0932751463	1.0009269714
3684.0220825194	1.0040041208
3685.9508898924	1.0104686022
3687.8796972655	1.0085567236
3689.8085046385	1.0073587894
3691.7373120116	1.0081074238
3693.6661193846	1.0061609745
3695.5949267577	1.0137835741
3697.5237341307	1.0131179094
3699.4525415038	1.0077186823
3701.3813488768	1.0136232376
3703.3101562499	1.0158941746
3705.2389636229	1.0161008835
3707.1677709959	1.0152148008
3709.0965783690	1.0131118298
3711.0253857420	1.0134480000
3712.9541931151	1.0148638487
3714.8830004881	1.0165104866
3716.8118078612	1.0139237642
3718.7406152342	1.0147377253
3720.6694226073	1.0167852640
3722.5982299803	1.0161653757
3724.5270373534	1.0132014751
3726.4558447264	1.0139813423
3728.3846520995	1.0192656517
3730.3134594725	1.0159995556
3732.2422668456	1.0169944763
3734.1710742186	1.0168640614
3736.0998815916	1.0133745670
3738.0286889647	1.0159411430
3739.9574963377	1.0154772997
3741.8863037108	1.0179940462
3743.8151110838	1.0189255476
3745.7439184569	1.0166871548
3747.6727258299	1.0163967609
3749.6015332030	1.0210418701
3751.5303405760	1.0208865404
3753.4591479491	1.0131263733
3755.3879553221	1.0194133520
3757.3167626952	1.0212184191
3759.2455700682	1.0161247253
3761.1743774413	1.0159393549
3763.1031848143	1.0215625763
3765.0319921873	1.0214418173
3766.9607995604	1.0128043890
3768.8896069334	1.0181370974
3770.8184143065	1.0188759565
3772.7472216795	1.0180146694
3774.6760290526	1.0197678804
3776.6048364256	1.0174059868
3778.5336437987	1.0214792490
3780.4624511717	1.0139445066
3782.3912585448	1.0166426897
3784.3200659178	1.0229609013
3786.2488732909	1.0150612593
3788.1776806639	1.0177135468
3790.1064880370	1.0176380873
3792.0352954100	1.0190228224
3793.9641027830	1.0202653408
3795.8929101561	1.0199027061
3797.8217175291	1.0209543705
3799.7505249022	1.0122476816
3801.6793322752	1.0162287951
3803.6081396483	1.0159059763
3805.5369470213	1.0134663582
3807.4657543944	1.0236850977
3809.3945617674	1.0170439482
3811.3233691405	1.0167424679
3813.2521765135	1.0214724541
3815.1809838866	1.0197776556
3817.1097912596	1.0161092281
3819.0385986327	1.0147423744
3820.9674060057	1.0212552547
3822.8962133787	1.0187920332
3824.8250207518	1.0179582834
3826.7538281248	1.0202035904
3828.6826354979	1.0195038319
3830.6114428709	1.0223628283
3832.5402502440	1.0224077702
3834.4690576170	1.0219290257
3836.3978649901	1.0194722414
3838.3266723631	1.0159660578
3840.2554797362	1.0096575022
3842.1842871092	1.0129799843
3844.1130944823	1.0205678940
3846.0419018553	1.0177489519
3847.9707092284	1.0189315081
3849.8995166014	1.0181406736
3851.8283239745	1.0180346966
3853.7571313475	1.0161048174
3855.6859387205	1.0165088177
3857.6147460936	1.0213077068
3859.5435534666	1.0160695314
3861.4723608397	1.0158307552
3863.4011682127	1.0161042213
3865.3299755858	1.0132164955
3867.2587829588	1.0190964937
3869.1875903319	1.0223168135
3871.1163977049	1.0201016665
3873.0452050780	1.0195745230
3874.9740124510	1.0142481327
3876.9028198241	1.0147019625
3878.8316271971	1.0227987766
3880.7604345702	1.0153321028
3882.6892419432	1.0163224936
3884.6180493162	1.0186753273
3886.5468566893	1.0121412277
3888.4756640623	1.0170264244
3890.4044714354	1.0171587467
3892.3332788084	1.0219517946
3894.2620861815	1.0198043585
3896.1908935545	1.0167099237
3898.1197009276	1.0199313164
3900.0485083006	1.0157506466
3901.9773156737	1.0194368362
3903.9061230467	1.0215409994
3905.8349304198	1.0244406462
3907.7637377928	1.0217123032
3909.6925451659	1.0170367956
3911.6213525389	1.0219362974
3913.5501599119	1.0193623304
3915.4789672850	1.0193402767
3917.4077746580	1.0195260048
3919.3365820311	1.0170043707
3921.2653894041	1.0184608698
3923.1941967772	1.0196325779
3925.1230041502	1.0174664259
3927.0518115233	1.0114141703
3928.9806188963	1.0149270296
3930.9094262694	1.0188026428
3932.8382336424	1.0138013363
3934.7670410155	1.0104813576
3936.6958483885	1.0136173964
3938.6246557616	1.0223169327
3940.5534631346	1.0230673552
3942.4822705076	1.0181920528
3944.4110778807	1.0194649696
3946.3398852537	1.0205929279
3948.2686926268	1.0152519941
3950.1974999998	1.0105099678
3952.1263073729	1.0158966780
3954.0551147459	1.0200096369
3955.9839221190	1.0186660290
3957.9127294920	1.0189837217
3959.8415368651	1.0135940313
3961.7703442381	1.0154650211
3963.6991516112	1.0196138620
3965.6279589842	1.0113987923
3967.5567663573	1.0122597218
3969.4855737303	1.0158984661
3971.4143811034	1.0114356279
3973.3431884764	1.0118935108
3975.2719958494	1.0177636147
3977.2008032225	1.0169308186
3979.1296105955	1.0148718357
3981.0584179686	1.0176839828
3982.9872253416	1.0164924860
3984.9160327147	1.0200824738
3986.8448400877	1.0200821161
3988.7736474608	1.0153315067
3990.7024548338	1.0189108849
3992.6312622069	1.0178853273
3994.5600695799	1.0173679590
3996.4888769530	1.0212686062
3998.4176843260	1.0161558390
4000.3464916991	1.0136035681
4002.2752990721	1.0190598965
4004.2041064451	1.0147569180
4006.1329138182	1.0119014978
4008.0617211912	1.0111755133
4009.9905285643	1.0098577738
4011.9193359373	1.0142886639
4013.8481433104	1.0102748871
4015.7769506834	1.0143216848
4017.7057580565	1.0168871880
4019.6345654295	1.0158548355
4021.5633728026	1.0206562281
4023.4921801756	1.0141671896
4025.4209875487	1.0163900852
4027.3497949217	1.0148260593
4029.2786022948	1.0102211237
4031.2074096678	1.0161818266
4033.1362170408	1.0178608894
4035.0650244139	1.0178261995
4036.9938317869	1.0166517496
4038.9226391600	1.0189365149
4040.8514465330	1.0162597895
4042.7802539061	1.0170595646
4044.7090612791	1.0151710510
4046.6378686522	1.0096695423
4048.5666760252	1.0206531286
4050.4954833983	1.0204420090
4052.4242907713	1.0164870024
4054.3530981444	1.0170943737
4056.2819055174	1.0137917995
4058.2107128905	1.0170075893
4060.1395202635	1.0246081352
4062.0683276365	1.0258702040
4063.9971350096	1.0154856443
4065.9259423826	1.0177601576
4067.8547497557	1.0189141035
4069.7835571287	1.0095354319
4071.7123645018	1.0137547255
4073.6411718748	1.0180908442
4075.5699792479	1.0148544312
4077.4987866209	1.0133556128
4079.4275939940	1.0181065798
4081.3564013670	1.0156899691
4083.2852087401	1.0130228996
4085.2140161131	1.0175713301
4087.1428234862	1.0151354074
4089.0716308592	1.0153157711
4091.0004382323	1.0110758543
4092.9292456053	1.0135205984
4094.8580529783	1.0220063925
4096.7868603514	1.0142669678
4098.7156677244	1.0156410933
4100.6444750975	1.0158015490
4102.5732824705	1.0103622675
4104.5020898436	1.0144182444
4106.4308972166	1.0128555298
4108.3597045897	1.0141044855
4110.2885119627	1.0146056414
4112.2173193358	1.0123971701
4114.1461267088	1.0166212320
4116.0749340819	1.0150507689
4118.0037414549	1.0128197670
4119.9325488280	1.0160661936
4121.8613562010	1.0167229176
4123.7901635740	1.0135531425
4125.7189709471	1.0121380091
4127.6477783201	1.0108041763
4129.5765856932	1.0087913275
4131.5053930662	1.0097663403
4133.4342004393	1.0095906258
4135.3630078123	1.0163599253
4137.2918151854	1.0226465464
4139.2206225584	1.0110663176
4141.1494299315	1.0073621273
4143.0782373045	1.0139281750
4145.0070446776	1.0112407207
4146.9358520506	1.0136022568
4148.8646594237	1.0111316442
4150.7934667967	1.0085504055
4152.7222741697	1.0179216862
4154.6510815428	1.0108177662
4156.5798889158	1.0106835365
4158.5086962889	1.0198249817
4160.4375036619	1.0141565800
4162.3663110350	1.0154376030
4164.2951184080	1.0169694424
4166.2239257811	1.0200337172
4168.1527331541	1.0177327394
4170.0815405272	1.0078203678
4172.0103479002	1.0133875608
4173.9391552733	1.0144450665
4175.8679626463	1.0115209818
4177.7967700194	1.0110594034
4179.7255773924	1.0104904175
4181.6543847654	1.0127164125
4183.5831921385	1.0107866526
4185.5119995115	1.0153795481
4187.4408068846	1.0114437342
4189.3696142576	1.0065839291
4191.2984216307	1.0117644072
4193.2272290037	1.0091362000
4195.1560363768	1.0154222250
4197.0848437498	1.0142921209
4199.0136511229	1.0097885132
4200.9424584959	1.0147043467
4202.8712658690	1.0103698969
4204.8000732420	1.0096383095
4206.7288806151	1.0061265230
4208.6576879881	1.0110117197
4210.5864953611	1.0150556564
4212.5153027342	1.0134966373
4214.4441101072	1.0213937759
4216.3729174803	1.0101919174
4218.3017248533	1.0074894428
4220.2305322264	1.0059573650
4222.1593395994	1.0045385361
4224.0881469725	1.0152686834
4226.0169543455	1.0097744465
4227.9457617186	1.0181126595
4229.8745690916	1.0131039619
4231.8033764647	1.0064095259
4233.7321838377	1.0170277357
4235.6609912108	1.0095896721
4237.5897985838	1.0154780149
4239.5186059569	1.0151265860
4241.4474133299	1.0094100237
4243.3762207029	1.0129779577
4245.3050280760	1.0105458498
4247.2338354490	1.0129895210
4249.1626428221	1.0142958164
4251.0914501951	1.0166376829
4253.0202575682	1.0082325935
4254.9490649412	1.0078800917
4256.8778723143	1.0152937174
4258.8066796873	1.0076514482
4260.7354870604	1.0177601576
4262.6642944334	1.0211033821
4264.5931018065	1.0096818209
4266.5219091795	1.0130403042
4268.4507165526	1.0161616802
4270.3795239256	1.0152813196
4272.3083312986	1.0061035156
4274.2371386717	1.0029320717
4276.1659460447	1.0107158422
4278.0947534178	1.0113078356
4280.0235607908	1.0132027864
4281.9523681639	1.0083308220
4283.8811755369	1.0060911179
4285.8099829100	1.0115066767
4287.7387902830	1.0100996494
4289.6675976561	1.0100765228
4291.5964050291	1.0056750774
4293.5252124022	1.0067343712
4295.4540197752	1.0102330446
4297.3828271483	1.0086287260
4299.3116345213	1.0115061998
4301.2404418943	1.0127288103
4303.1692492674	1.0103724003
4305.0980566404	1.0079483986
4307.0268640135	1.0166338682
4308.9556713865	1.0148490667
4310.8844787596	1.0063703060
4312.8132861326	1.0097979307
4314.7420935057	1.0126472712
4316.6709008787	1.0132408142
4318.5997082518	1.0049179792
4320.5285156248	1.0094498396
4322.4573229979	1.0127916336
4324.3861303709	1.0094521046
4326.3149377440	1.0116246939
4328.2437451170	1.0094424486
4330.1725524900	1.0142480135
4332.1013598631	1.0047733784
4334.0301672361	1.0084110498
4335.9589746092	1.0122591257
4337.8877819822	0.9990391135
4339.8165893553	1.0105718374
4341.7453967283	1.0118529797
4343.6742041014	1.0105495453
4345.6030114744	1.0156069994
4347.5318188475	1.0110045671
4349.4606262205	1.0125683546
4351.3894335936	1.0151901245
4353.3182409666	1.0109366179
4355.2470483397	1.0108891726
4357.1758557127	1.0178854465
4359.1046630858	1.0066075325
4361.0334704588	1.0002306700
4362.9622778318	1.0056924820
4364.8910852049	1.0083606243
4366.8198925779	1.0159834623
4368.7486999510	1.0072466135
4370.6775073240	0.9969891310
4372.6063146971	1.0090062618
4374.5351220701	1.0144710541
4376.4639294432	1.0066465139
4378.3927368162	1.0110940933
4380.3215441893	1.0091543198
4382.2503515623	1.0083203316
4384.1791589354	1.0128915310
4386.1079663084	1.0069832802
4388.0367736815	1.0096849203
4389.9655810545	1.0030997992
4391.8943884275	1.0077389479
4393.8231958006	1.0196578503
4395.7520031736	1.0140782595
4397.6808105467	1.0101513863
4399.6096179197	1.0042462349
4401.5384252928	1.0075773001
4403.4672326658	1.0056922436
4405.3960400389	1.0103701353
4407.3248474119	1.0145598650
4409.2536547850	1.0007801056
4411.1824621580	1.0044677258
4413.1112695311	1.0107274055
4415.0400769041	1.0141670704
4416.9688842772	1.0103991032
4418.8976916502	1.0060927868
4420.8264990232	1.0138111115
4422.7553063963	1.0141503811
4424.6841137693	1.0114569664
4426.6129211424	1.0094749928
4428.5417285154	1.0100150108
4430.4705358885	1.0080314875
4432.3993432615	1.0046768188
4434.3281506346	1.0077806711
4436.2569580076	1.0104755163
4438.1857653807	1.0105870962
4440.1145727537	1.0129581690
4442.0433801268	1.0147083998
4443.9721874998	1.0098640919
4445.9009948729	1.0057904720
4447.8298022459	1.0075473785
4449.7586096189	1.0120707750
4451.6874169920	1.0093464851
4453.6162243650	1.0090529919
4455.5450317381	1.0135064125
4457.4738391111	1.0038950443
4459.4026464842	1.0043295622
4461.3314538572	1.0208446980
4463.2602612303	1.0133230686
4465.1890686033	1.0053496361
4467.1178759764	1.0157351494
4469.0466833494	1.0095421076
4470.9754907225	1.0108810663
4472.9042980955	1.0118802786
4474.8331054686	1.0050647259
4476.7619128416	1.0116276741
4478.6907202147	1.0083419085
4480.6195275877	1.0115859509
4482.5483349607	1.0120415688
4484.4771423338	1.0107760429
4486.4059497068	1.0111567974
4488.3347570799	1.0008440018
4490.2635644529	1.0010194778
4492.1923718260	1.0089951754
4494.1211791990	1.0213011503
4496.0499865721	1.0140479803
4497.9787939451	1.0071042776
4499.9076013182	1.0062350035
4501.8364086912	1.0045052767
4503.7652160643	1.0113447905
4505.6940234373	1.0099174976
4507.6228308104	1.0171804428
4509.5516381834	1.0079001188
4511.4804455564	1.0069919825
4513.4092529295	1.0107971430
4515.3380603025	1.0076699257
4517.2668676756	1.0143202543
4519.1956750486	0.9990295768
4521.1244824217	1.0064258575
4523.0532897947	1.0026996136
4524.9820971678	1.0055670738
4526.9109045408	1.0190342665
4528.8397119139	1.0026242733
4530.7685192869	1.0123833418
4532.6973266600	1.0046342611
4534.6261340330	1.0081288815
4536.5549414061	1.0178791285
4538.4837487791	1.0105097294
4540.4125561521	1.0179362297
4542.3413635252	1.0062676668
4544.2701708982	1.0046882629
4546.1989782713	1.0072999001
4548.1277856443	1.0097192526
4550.0565930174	1.0101933479
4551.9854003904	1.0089641809
4553.9142077635	1.0087177753
4555.8430151365	1.0007568598
4557.7718225096	1.0131762028
4559.7006298826	1.0103822947
4561.6294372557	1.0066301823
4563.5582446287	1.0124695301
4565.4870520018	1.0073634386
4567.4158593748	1.0146422386
4569.3446667478	1.0196363926
4571.2734741209	1.0067489147
4573.2022814939	1.0060379505
4575.1310888670	1.0206270218
4577.0598962400	1.0092787743
4578.9887036131	1.0141111612
4580.9175109861	1.0146538019
4582.8463183592	1.0005367994
4584.7751257322	1.0150251389
4586.7039331053	1.0022863150
4588.6327404783	1.0011467934
4590.5615478514	1.0125243664
4592.4903552244	1.0107493401
4594.4191625975	1.0123498440
4596.3479699705	1.0033303499
4598.2767773435	1.0147989988
4600.2055847166	1.0148625374
4602.1343920896	1.0138278008
4604.0631994627	1.0148396492
4605.9920068357	0.9938277006
4607.9208142088	0.9969324470
4609.8496215818	1.0025709867
4611.7784289549	1.0066242218
4613.7072363279	1.0151592493
4615.6360437010	1.0164549351
4617.5648510740	1.0115957260
4619.4936584471	1.0070639849
4621.4224658201	1.0113663673
4623.3512731932	0.9968085289
4625.2800805662	1.0036523342
4627.2088879393	1.0182428360
4629.1376953123	1.0075122118
4631.0665026853	1.0159319639
4632.9953100584	0.9982644320
4634.9241174314	0.9894697070
4636.8529248045	1.0151314735
4638.7817321775	1.0068057775
4640.7105395506	1.0052990913
4642.6393469236	1.0105583668
4644.5681542967	1.0041671991
4646.4969616697	1.0074908733
4648.4257690428	1.0050525665
4650.3545764158	1.0025105476
4652.2833837889	1.0145149231
4654.2121911619	1.0153579712
4656.1409985350	1.0009179115
4658.0698059080	1.0099864006
4659.9986132810	1.0029340982
4661.9274206541	0.9872521162
4663.8562280271	1.0039296150
4665.7850354002	1.0078424215
4667.7138427732	1.0083919764
4669.6426501463	1.0108717680
4671.5714575193	1.0095965862
4673.5002648924	1.0118274689
4675.4290722654	1.0106353760
4677.3578796385	1.0096544027
4679.2866870115	1.0006138086
4681.2154943846	0.9981966615
4683.1443017576	1.0025244951
4685.0731091307	1.0012323856
4687.0019165037	0.9994555712
4688.9307238767	1.0138523579
4690.8595312498	1.0126241446
4692.7883386228	0.9904641509
4694.7171459959	1.0025206804
4696.6459533689	1.0080682039
4698.5747607420	1.0043771267
4700.5035681150	1.0050692558
4702.4323754881	1.0005009174
4704.3611828611	1.0146656036
4706.2899902342	1.0113449097
4708.2187976072	1.0033351183
4710.1476049803	1.0054674149
4712.0764123533	1.0125375986
4714.0052197264	1.0203174353
4715.9340270994	1.0051534176
4717.8628344724	1.0044274330
4719.7916418455	1.0192461014
4721.7204492185	1.0142648220
4723.6492565916	0.9963739514
4725.5780639646	0.9947918057
4727.5068713377	1.0036555529
4729.4356787107	1.0075982809
4731.3644860838	1.0143072605
4733.2932934568	1.0055977106
4735.2221008299	0.9973753691
4737.1509082029	1.0048803091
4739.0797155760	1.0072615147
4741.0085229490	1.0120575428
4742.9373303221	1.0109903812
4744.8661376951	0.9965068698
4746.7949450682	1.0107507706
4748.7237524412	1.0205200911
4750.6525598142	0.9988796711
4752.5813671873	1.0064380169
4754.5101745603	1.0061554909
4756.4389819334	0.9993129373
4758.3677893064	1.0090148449
4760.2965966795	1.0047960281
4762.2254040525	1.0093288422
4764.1542114256	1.0086609125
4766.0830187986	1.0144400597
4768.0118261717	1.0079784393
4769.9406335447	0.9959290028
4771.8694409178	1.0074447393
4773.7982482908	0.9986829758
4775.7270556639	1.0174405575
4777.6558630369	1.0200259686
4779.5846704099	0.9990910888
4781.5134777830	1.0170592070
4783.4422851560	1.0090407133
4785.3710925291	1.0070644617
4787.2998999021	1.0070109367
4789.2287072752	0.9944714904
4791.1575146482	1.0081726313
4793.0863220213	1.0075335503
4795.0151293943	0.9993425012
4796.9439367674	1.0037593842
4798.8727441404	1.0060453415
4800.8015515135	1.0032433271
4802.7303588865	1.0061219931
4804.6591662596	0.9995110035
4806.5879736326	0.9946294427
4808.5167810056	1.0091999769
4810.4455883787	1.0029785633
4812.3743957517	0.9990429282
4814.3032031248	1.0097392797
4816.2320104978	1.0050868988
4818.1608178709	1.0011329651
4820.0896252439	1.0120161772
4822.0184326170	1.0114705563
4823.9472399900	1.0031807423
4825.8760473631	1.0143244267
4827.8048547361	1.0057244301
4829.7336621092	1.0008540154
4831.6624694822	1.0087873936
4833.5912768553	1.0015152693
4835.5200842283	1.0093578100
4837.4488916013	1.0023463964
4839.3776989744	1.0018945932
4841.3065063474	1.0089614391
4843.2353137205	1.0017626286
4845.1641210935	1.0081137419
4847.0929284666	0.9962286353
4849.0217358396	1.0113780499
4850.9505432127	1.0261100531
4852.8793505857	0.9993465543
4854.8081579588	1.0141235590
4856.7369653318	1.0116242170
4858.6657727049	0.9939741492
4860.5945800779	1.0067498684
4862.5233874510	0.9898083210
4864.4521948240	0.9872314930
4866.3810021971	1.0029017925
4868.3098095701	0.9984981418
4870.2386169431	1.0017025471
4872.1674243162	1.0037113428
4874.0962316892	1.0083302259
4876.0250390623	1.0082072020
4877.9538464353	1.0045987368
4879.8826538084	1.0066184998
4881.8114611814	0.9972647429
4883.7402685545	1.0001181364
4885.6690759275	1.0034555197
4887.5978833006	1.0019807816
4889.5266906736	1.0096763372
4891.4554980467	1.0071910620
4893.3843054197	1.0003610849
4895.3131127928	0.9967250228
4897.2419201658	0.9974852800
4899.1707275388	0.9928405285
4901.0995349119	0.9931907654
4903.0283422849	1.0026391745
4904.9571496580	1.0060391426
4906.8859570310	1.0118677616
4908.8147644041	1.0022823811
4910.7435717771	0.9931695461
4912.6723791502	1.0036219358
4914.6011865232	1.0006735325
4916.5299938963	0.9913048744
4918.4588012693	0.9946060181
4920.3876086424	0.9939388037
4922.3164160154	0.9980437160
4924.2452233885	1.0078784227
4926.1740307615	0.9978086948
4928.1028381345	0.9947763085
4930.0316455076	0.9927934408
4931.9604528806	0.9913464785
4933.8892602537	0.9990468025
4935.8180676267	0.9901136160
4937.7468749998	1.0009950399
4939.6756823728	1.0081425905
4941.6044897459	0.9978613257
4943.5332971189	0.9960870743
4945.4621044920	0.9904910922
4947.3909118650	1.0022612810
4949.3197192381	1.0111509562
4951.2485266111	1.0127303600
4953.1773339842	1.0091915131
4955.1061413572	1.0033202171
4957.0349487302	1.0033019781
4958.9637561033	0.9946144819
4960.8925634763	0.9949095249
4962.8213708494	0.9950581789
4964.7501782224	1.0117179155
4966.6789855955	1.0136927366
4968.6077929685	0.9931676984
4970.5366003416	1.0044531822
4972.4654077146	0.9989847541
4974.3942150877	0.9981883764
4976.3230224607	1.0043758154
4978.2518298338	0.9933367372
4980.1806372068	1.0017092228
4982.1094445799	1.0038486719
4984.0382519529	0.9985177517
4985.9670593259	0.9915122986
4987.8958666990	0.9896204472
4989.8246740720	0.9963923097
4991.7534814451	0.9988836050
4993.6822888181	0.9979090691
4995.6110961912	0.9922926426
4997.5399035642	1.0015486479
4999.4687109373	1.0034258366
5001.3975183103	0.9871520996
5003.3263256834	0.9800994992
5005.2551330564	0.9913910031
5007.1839404295	1.0129698515
5009.1127478025	1.0109440088
5011.0415551756	0.9992512465
5012.9703625486	0.9997860193
5014.8991699217	0.9985675812
5016.8279772947	1.0004988909
5018.7567846677	1.0069988966
5020.6855920408	1.0142277479
5022.6143994138	1.0090045929
5024.5432067869	0.9909392595
5026.4720141599	0.9917597771
5028.4008215330	0.9937918782
5030.3296289060	0.9837894440
5032.2584362791	0.9910234213
5034.1872436521	0.9973800182
5036.1160510252	0.9854198694
5038.0448583982	0.9887290001
5039.9736657713	1.0082216263
5041.9024731443	0.9927918911
5043.8312805174	0.9867053032
5045.7600878904	1.0037342310
5047.6888952634	1.0050854683
5049.6177026365	1.0166988373
5051.5465100095	0.9935606718
5053.4753173826	0.9938452244
5055.4041247556	1.0089373589
5057.3329321287	0.9782419205
5059.2617395017	0.9946856499
5061.1905468748	0.9885793328
5063.1193542478	0.9854898453
5065.0481616209	1.0022852421
5066.9769689939	0.9860374928
5068.9057763670	1.0090560913
5070.8345837400	1.0005686283
5072.7633911131	0.9869271517
5074.6921984861	1.0000495911
5076.6210058591	0.9899730682
5078.5498132322	0.9923668504
5080.4786206052	0.9997311831
5082.4074279783	0.9956485033
5084.3362353513	0.9848034382
5086.2650427244	0.9842043519
5088.1938500974	0.9798548222
5090.1226574705	0.9987692833
5092.0514648435	1.0136100054
5093.9802722166	0.9907819033
5095.9090795896	1.0002729893
5097.8378869627	0.9962965846
5099.7666943357	0.9915149808
5101.6955017088	1.0100281239
5103.6243090818	0.9993465543
5105.5531164548	0.9938132167
5107.4819238279	1.0036302805
5109.4107312009	0.9898256063
5111.3395385740	0.9779136181
5113.2683459470	0.9943983555
5115.1971533201	0.9998434782
5117.1259606931	1.0122001171
5119.0547680662	0.9958897233
5120.9835754392	0.9705772400
5122.9123828123	1.0032347441
5124.8411901853	1.0025725365
5126.7699975584	0.9955580831
5128.6988049314	0.9989936352
5130.6276123045	0.9847126007
5132.5564196775	0.9905529022
5134.4852270506	0.9967704415
5136.4140344236	0.9981345534
5138.3428417966	0.9928492904
5140.2716491697	1.0068798065
5142.2004565427	1.0127528906
5144.1292639158	1.0016726255
5146.0580712888	1.0033037663
5147.9868786619	0.9906839132
5149.9156860349	0.9980887771
5151.8444934080	0.9964356422
5153.7733007810	0.9716858268
5155.7021081541	0.9683399200
5157.6309155271	0.9854532480
5159.5597229002	1.0140492916
5161.4885302732	0.9989604950
5163.4173376463	0.9762184024
5165.3461450193	0.9990804791
5167.2749523923	1.0049465895
5169.2037597654	0.9823830128
5171.1325671384	0.9847942591
5173.0613745115	1.0002185106
5174.9901818845	0.9941476583
5176.9189892576	0.9954162240
5178.8477966306	1.0107614994
5180.7766040037	1.0054618120
5182.7054113767	0.9923570752
5184.6342187498	0.9927825332
5186.5630261228	0.9957440495
5188.4918334959	1.0094910860
5190.4206408689	1.0110342503
5192.3494482420	0.9906834364
5194.2782556150	0.9992581606
5196.2070629880	0.9954830408
5198.1358703611	0.9836695194
5200.0646777341	0.9991901517
5201.9934851072	1.0027616024
5203.9222924802	0.9986126423
5205.8510998533	0.9811523557
5207.7799072263	0.9974322319
5209.7087145994	1.0116887093
5211.6375219724	0.9829448462
5213.5663293455	0.9952744246
5215.4951367185	0.9929112792
5217.4239440916	0.9892601371
5219.3527514646	0.9940764904
5221.2815588377	0.9844738841
5223.2103662107	0.9977474809
5225.1391735837	0.9770491123
5227.0679809568	0.9831514955
5228.9967883298	1.0010838509
5230.9255957029	0.9826246500
5232.8544030759	0.9898859859
5234.7832104490	0.9953100085
5236.7120178220	1.0023952723
5238.6408251951	0.9916251302
5240.5696325681	0.9819757342
5242.4984399412	1.0023093224
5244.4272473142	1.0007827282
5246.3560546873	0.9981048703
5248.2848620603	0.9980592728
5250.2136694334	0.9856649637
5252.1424768064	0.9887096286
5254.0712841795	0.9906761050
5256.0000915525	0.9938635230
5257.9288989255	1.0054067373
5259.8577062986	0.9876263142
5261.7865136716	0.9863446951
5263.7153210447	1.0092965364
5265.6441284177	1.0073554516
5267.5729357908	0.9967309237
5269.5017431638	1.0024437904
5271.4305505369	1.0199488401
5273.3593579099	1.0049053431
5275.2881652830	1.0168945789
5277.2169726560	1.0283956528
5279.1457800291	0.9935933352
5281.0745874021	0.9874179959
5283.0033947752	0.9843139052
5284.9322021482	1.0039792061
5286.8610095212	1.0033361912
5288.7898168943	0.9864273071
5290.7186242673	1.0124894381
5292.6474316404	1.0025339127
5294.5762390134	0.9819843173
5296.5050463865	0.9878446460
5298.4338537595	0.9764263034
5300.3626611326	0.9657050967
5302.2914685056	1.0001659393
5304.2202758787	0.9905642271
5306.1490832517	0.9767192602
5308.0778906248	1.0037150383
5310.0066979978	0.9878031611
5311.9355053709	1.0027180910
5313.8643127439	1.0001561642
5315.7931201169	0.9834667444
5317.7219274900	0.9865874052
5319.6507348630	0.9674466252
5321.5795422361	0.9803074002
5323.5083496091	0.9994080663
5325.4371569822	0.9929429889
5327.3659643552	0.9722323418
5329.2947717283	0.9821258187
5331.2235791013	0.9744165540
5333.1523864744	0.9613282681
5335.0811938474	0.9787114263
5337.0100012205	0.9752793908
5338.9388085935	0.9867264628
5340.8676159666	0.9913472533
5342.7964233396	0.9997297525
5344.7252307126	0.9901555777
5346.6540380857	0.9927197695
5348.5828454587	0.9931326509
5350.5116528318	0.9745193124
5352.4404602048	1.0060154200
5354.3692675779	0.9831790328
5356.2980749509	0.9814014435
5358.2268823240	0.9890758395
5360.1556896970	0.9716477990
5362.0844970701	0.9942570925
5364.0133044431	1.0074671507
5365.9421118162	0.9972373843
5367.8709191892	0.9644859433
5369.7997265623	0.9866551757
5371.7285339353	0.9829268456
5373.6573413083	0.9978221655
5375.5861486814	1.0183583498
5377.5149560544	0.9739706516
5379.4437634275	0.9927623868
5381.3725708005	0.9646797180
5383.3013781736	0.9924228787
5385.2301855466	1.0361450911
5387.1589929197	0.9793398380
5389.0878002927	0.9630718231
5391.0166076658	0.9866825342
5392.9454150388	1.0059850216
5394.8742224119	0.9707810283
5396.8030297849	0.9981450438
5398.7318371580	1.0037939548
5400.6606445310	0.9894143939
5402.5894519041	1.0219264030
5404.5182592771	0.9872390032
5406.4470666501	0.9968366027
5408.3758740232	0.9943088293
5410.3046813962	0.9857620001
5412.2334887693	0.9966023564
5414.1622961423	0.9761273861
5416.0911035154	0.9911392331
5418.0199108884	0.9940586090
5419.9487182615	1.0017746687
5421.8775256345	1.0052673817
5423.8063330076	0.9890982509
5425.7351403806	0.9977920055
5427.6639477537	0.9898516536
5429.5927551267	0.9711927176
5431.5215624998	0.9997676611
5433.4503698728	0.9876504540
5435.3791772458	0.9683941007
5437.3079846189	1.0023543835
5439.2367919919	0.9907872081
5441.1655993650	0.9898222685
5443.0944067380	0.9836823940
5445.0232141111	0.9754231572
5446.9520214841	0.9651289582
5448.8808288572	0.9700542092
5450.8096362302	1.0203586817
5452.7384436033	0.9849395156
5454.6672509763	0.9774555564
5456.5960583494	0.9934661388
5458.5248657224	0.9699726701
5460.4536730955	0.9574986696
5462.3824804685	0.9643111825
5464.3112878415	1.0040150881
5466.2400952146	0.9958844781
5468.1689025876	0.9975804687
5470.0977099607	1.0099694729
5472.0265173337	0.9918001890
5473.9553247068	0.9693496823
5475.8841320798	0.9822298288
5477.8129394529	0.9995786548
5479.7417468259	0.9559782743
5481.6705541990	0.9877674580
5483.5993615720	1.0163353682
5485.5281689451	0.9944859743
5487.4569763181	1.0102829933
5489.3857836912	1.0118718147
5491.3145910642	0.9954066873
5493.2433984372	0.9780512452
5495.1722058103	0.9947961569
5497.1010131833	0.9958898425
5499.0298205564	0.9915171266
5500.9586279294	1.0058910847
5502.8874353025	0.9971648455
5504.8162426755	0.9933509231
5506.7450500486	0.9984894991
5508.6738574216	0.9919701815
5510.6026647947	1.0061514378
5512.5314721677	1.0115385056
5514.4602795408	0.9702303410
5516.3890869138	0.9873197675
5518.3178942869	0.9779841900
5520.2467016599	0.9572170377
5522.1755090330	0.9880396128
5524.1043164060	0.9704933167
5526.0331237790	0.9862005711
5527.9619311521	0.9791515470
5529.8907385251	0.9749963880
5531.8195458982	0.9862254262
5533.7483532712	0.9612515569
5535.6771606443	0.9795660973
5537.6059680173	0.9833144546
5539.5347753904	1.0087592602
5541.4635827634	1.0094693899
5543.3923901365	0.9878636003
5545.3211975095	1.0079432726
5547.2500048826	0.9910279512
5549.1788122556	0.9866310358
5551.1076196287	1.0052061081
5553.0364270017	0.9854533076
5554.9652343747	0.9694943428
5556.8940417478	1.0082697868
5558.8228491208	0.9859369397
5560.7516564939	0.9621855021
5562.6804638669	0.9914453030
5564.6092712400	0.9830604792
5566.5380786130	1.0040047169
5568.4668859861	0.9997757673
5570.3956933591	1.0056850910
5572.3245007322	1.0237437487
5574.2533081052	0.9991517067
5576.1821154783	0.9970086217
5578.1109228513	0.9746058583
5580.0397302244	0.9915179014
5581.9685375974	1.0064564943
5583.8973449704	0.9798041582
5585.8261523435	0.9695834517
5587.7549597165	0.9525371790
5589.6837670896	0.9919856191
5591.6125744626	1.0239568949
5593.5413818357	0.9764685035
5595.4701892087	0.9735527039
5597.3989965818	0.9979708195
5599.3278039548	0.9796951413
5601.2566113279	0.9689297676
5603.1854187009	0.9653133750
5605.1142260740	0.9861279726
5607.0430334470	1.0015254021
5608.9718408201	0.9772633910
5610.9006481931	0.9957889915
5612.8294555661	0.9935183525
5614.7582629392	0.9792277217
5616.6870703122	0.9990572333
5618.6158776853	0.9823119640
5620.5446850583	0.9859622121
5622.4734924314	1.0035691261
5624.4022998044	0.9885658622
5626.3311071775	0.9637621641
5628.2599145505	0.9492556453
5630.1887219236	0.9665057063
5632.1175292966	0.9792801738
5634.0463366697	0.9741751552
5635.9751440427	0.9735437632
5637.9039514158	0.9994714260
5639.8327587888	1.0011931658
5641.7615661619	0.9720957279
5643.6903735349	0.9921847582
5645.6191809079	0.9835267067
5647.5479882810	0.9763942361
5649.4767956540	0.9979001880
5651.4056030271	0.9834629297
5653.3344104001	0.9956241846
5655.2632177732	0.9638327360
5657.1920251462	0.9735705853
5659.1208325193	1.0288262367
5661.0496398923	0.9818968177
5662.9784472654	0.9976015091
5664.9072546384	1.0104532242
5666.8360620115	0.9837716222
5668.7648693845	1.0134025812
5670.6936767576	1.0066498518
5672.6224841306	1.0036039352
5674.5512915036	1.0093129873
5676.4800988767	0.9845400453
5678.4089062497	0.9890935421
5680.3377136228	0.9923771024
5682.2665209958	0.9933826327
5684.1953283689	1.0140802860
5686.1241357419	0.9809598923
5688.0529431150	0.9794771075
5689.9817504880	0.9940981865
5691.9105578611	0.9616818428
5693.8393652341	0.9842488766
5695.7681726072	0.9763981700
5697.6969799802	0.9685864449
5699.6257873533	0.9844771028
5701.5545947263	0.9770098925
5703.4834020993	0.9856538177
5705.4122094724	0.9882762432
5707.3410168454	1.0110094547
5709.2698242185	0.9648385644
5711.1986315915	0.9690862894
5713.1274389646	1.0102361441
5715.0562463376	0.9526476264
5716.9850537107	0.9743816853
5718.9138610837	0.9835193753
5720.8426684568	0.9750260711
5722.7714758298	0.9634225368
5724.7002832029	0.9405443072
5726.6290905759	1.0071374178
5728.5578979490	1.0134507418
5730.4867053220	0.9796437621
5732.4155126950	0.9808467031
5734.3443200681	0.9961283803
5736.2731274411	1.0026224852
5738.2019348142	0.9753484726
5740.1307421872	0.9833593369
5742.0595495603	0.9678186774
5743.9883569333	0.9411378503
5745.9171643064	0.9766299725
5747.8459716794	0.9981967211
5749.7747790525	0.9811350703
5751.7035864255	0.9883170128
5753.6323937986	0.9976555109
5755.5612011716	0.9804548025
5757.4900085447	0.9619594216
5759.4188159177	0.9655587673
5761.3476232907	0.9795910716
5763.2764306638	0.9660491943
5765.2052380368	0.9491682649
5767.1340454099	0.9681658745
5769.0628527829	1.0022948980
5770.9916601560	0.9924872518
5772.9204675290	0.9888596535
5774.8492749021	0.9838603139
5776.7780822751	0.9672563076
5778.7068896482	0.9965435266
5780.6356970212	0.9698598385
5782.5645043943	0.9732947946
5784.4933117673	0.9908708334
5786.4221191404	0.9318205714
5788.3509265134	0.9732602835
5790.2797338865	1.0085614920
5792.2085412595	0.9700356722
5794.1373486325	0.9733028412
5796.0661560056	0.9766926765
5797.9949633786	0.9932958484
5799.9237707517	0.9891007543
5801.8525781247	0.9540198445
5803.7813854978	1.0022131205
5805.7101928708	1.0357934237
5807.6390002439	0.9607787728
5809.5678076169	0.9688140750
5811.4966149900	1.0014890432
5813.4254223630	0.9682244062
5815.3542297361	0.9950833321
5817.2830371091	1.0104022026
5819.2118444822	0.9730092883
5821.1406518552	0.9899300337
5823.0694592282	1.0344232321
5824.9982666013	0.9807863832
5826.9270739743	0.9519239068
5828.8558813474	0.9831164479
5830.7846887204	0.9719549417
5832.7134960935	1.0027937889
5834.6423034665	0.9987688065
5836.5711108396	0.9868807197
5838.4999182126	0.9990764856
5840.4287255857	0.9656644464
5842.3575329587	0.9949579835
5844.2863403318	0.9806075692
5846.2151477048	0.9760524631
5848.1439550779	1.0082311630
5850.0727624509	0.9514346719
5852.0015698239	0.9390904307
5853.9303771970	0.9390017986
5855.8591845700	0.9714025855
5857.7879919431	0.9971184134
5859.7167993161	0.9862806201
5861.6456066892	0.9978907108
5863.5744140622	0.9461345673
5865.5032214353	0.9888796210
5867.4320288083	1.0066659451
5869.3608361814	0.9527943134
5871.2896435544	1.0196089745
5873.2184509275	0.9924843311
5875.1472583005	0.9588993192
5877.0760656736	0.9688466191
5879.0048730466	0.9461491704
5880.9336804196	1.0198048353
5882.8624877927	1.0512593985
5884.7912951657	0.9632590413
5886.7201025388	0.9680992961
5888.6489099118	1.0187606812
5890.5777172849	0.9448056817
5892.5065246579	1.0042172670
5894.4353320310	1.0407030582
5896.3641394040	0.9442349672
5898.2929467771	1.0302027464
5900.2217541501	0.9835950136
5902.1505615232	0.9329251647
5904.0793688962	0.9620347023
5906.0081762693	0.9549554586
5907.9369836423	1.0370308161
5909.8657910154	0.9537678957
5911.7945983884	0.9790113568
5913.7234057614	1.0069015026
5915.6522131345	0.9453487396
5917.5810205075	1.0387954712
5919.5098278806	0.9622579813
5921.4386352536	1.0053032637
5923.3674426267	1.0249320269
5925.2962499997	0.9161328077
5927.2250573728	0.9839506149
5929.1538647458	0.9633679986
5931.0826721189	1.0001215935
5933.0114794919	1.0031766891
5934.9402868650	0.9294644594
5936.8690942380	1.0073302984
5938.7979016111	1.0122082233
5940.7267089841	0.9551192522
5942.6555163571	0.9642367363
5944.5843237302	1.0273400545
5946.5131311032	1.0310130119
5948.4419384763	0.9817025661
5950.3707458493	0.9819644094
5952.2995532224	0.9931789637
5954.2283605954	0.9985377789
5956.1571679685	0.9764240384
5958.0859753415	0.9866446257
5960.0147827146	1.0292457342
5961.9435900876	1.0273556709
5963.8723974607	0.9735099077
5965.8012048337	0.9517819881
5967.7300122068	0.9765467644
5969.6588195798	0.9724244475
5971.5876269528	0.9640968442
5973.5164343259	0.9764687419
5975.4452416989	0.9919341207
5977.3740490720	0.9541257024
5979.3028564450	0.9597820640
5981.2316638181	0.9653335810
5983.1604711911	0.9312307835
5985.0892785642	0.9791442156
5987.0180859372	0.9647435546
5988.9468933103	0.9732472897
5990.8757006833	0.9788839817
5992.8045080564	0.9382334948
5994.7333154294	1.0039772987
5996.6621228025	1.0004327297
5998.5909301755	0.9230605364
6000.5197375485	0.9083712101
