399.26312622,-0.00017591
401.19193359,0.00044875
403.12074097,0.00063611
405.04954834,0.00022312
406.97835571,-0.00003929
408.90716309,0.00010622
410.83597046,0.00031093
412.76477783,0.00082967
414.69358521,0.00043266
416.62239258,0.00024116
418.55119995,0.00056797
420.48000732,0.00045233
422.40881470,0.00039181
424.33762207,0.00047050
426.26642944,0.00081670
428.19523682,0.00056923
430.12404419,0.00077846
432.05285156,0.00058730
433.98165894,0.00027114
435.91046631,0.00078033
437.83927368,0.00014635
439.76808105,0.00043606
441.69688843,0.00076030
443.62569580,0.00054881
445.55450317,0.00040207
447.48331055,0.00004488
449.41211792,0.00039150
451.34092529,0.00006383
453.26973267,0.00056275
455.19854004,0.00059703
457.12734741,0.00004467
459.05615479,0.00019271
460.98496216,-0.00017747
462.91376953,0.00050214
464.84257690,0.00038366
466.77138428,0.00006290
468.70019165,0.00053278
470.62899902,0.00020892
472.55780640,0.00011965
474.48661377,0.00029280
476.41542114,0.00055454
478.34422852,0.00033738
480.27303589,0.00013528
482.20184326,0.00023066
484.13065063,0.00017204
486.05945801,0.00032690
487.98826538,0.00030792
489.91707275,0.00008260
491.84588013,0.00012846
493.77468750,0.00029913
495.70349487,0.00012867
497.63230225,0.00024398
499.56110962,0.00030380
501.48991699,0.00011516
503.41872437,0.00036771
505.34753174,0.00027475
507.27633911,-0.00010131
509.20514648,0.00004574
511.13395386,0.00058369
513.06276123,0.00036547
514.99156860,0.00010130
516.92037598,0.00039800
518.84918335,0.00008486
520.77799072,0.00035947
522.70679810,0.00071081
524.63560547,0.00003847
526.56441284,-0.00010741
528.49322021,0.00025120
530.42202759,0.00012860
532.35083496,0.00000809
534.27964233,0.00004187
536.20844971,0.00014856
538.13725708,0.00034860
540.06606445,0.00024161
541.99487183,0.00001601
543.92367920,-0.00000032
545.85248657,0.00007420
547.78129395,0.00013252
549.71010132,0.00012424
551.63890869,0.00000226
553.56771606,-0.00001500
555.49652344,0.00011806
557.42533081,0.00003012
559.35413818,-0.00003399
561.28294556,-0.00007424
563.21175293,-0.00016029
565.14056030,0.00015870
567.06936768,0.00021115
568.99817505,0.00023415
570.92698242,0.00030466
572.85578979,-0.00004147
574.78459717,-0.00008189
576.71340454,0.00015050
578.64221191,0.00023987
580.57101929,0.00037708
582.49982666,0.00055350
584.42863403,0.00034322
586.35744141,0.00008857
588.28624878,0.00039444
590.21505615,0.00051396
592.14386353,0.00019299
594.07267090,0.00044173
596.00147827,0.00025176
597.93028564,0.00018255
599.85909302,0.00037517
601.78790039,0.00000591
603.71670776,-0.00006170
605.64551514,-0.00020425
607.57432251,0.00017336
609.50312988,-0.00011133
611.43193726,0.00015693
613.36074463,0.00048110
615.28955200,0.00026019
617.21835938,0.00042248
619.14716675,-0.00004470
621.07597412,-0.00008296
623.00478149,0.00020959
624.93358887,0.00012033
626.86239624,0.00001656
628.79120361,0.00025262
630.72001099,0.00019982
632.64881836,0.00017497
634.57762573,0.00042699
636.50643311,0.00047984
638.43524048,0.00039755
640.36404785,0.00059151
642.29285522,0.00070842
644.22166260,0.00047109
646.15046997,0.00085574
648.07927734,0.00100022
650.00808472,0.00084867
651.93689209,0.00087583
653.86569946,0.00100451
655.79450684,0.00107418
657.72331421,0.00060549
659.65212158,0.00062083
661.58092896,0.00065755
663.50973633,0.00101313
665.43854370,0.00132272
667.36735107,0.00091681
669.29615845,0.00119424
671.22496582,0.00127765
673.15377319,0.00103109
675.08258057,0.00091524
677.01138794,0.00118378
678.94019531,0.00142660
680.86900269,0.00138342
682.79781006,0.00133187
684.72661743,0.00096956
686.65542480,0.00123726
688.58423218,0.00112011
690.51303955,0.00112375
692.44184692,0.00157316
694.37065430,0.00147246
696.29946167,0.00179123
698.22826904,0.00171427
700.15707642,0.00172888
702.08588379,0.00186353
704.01469116,0.00162797
705.94349854,0.00152346
707.87230591,0.00148311
709.80111328,0.00134746
711.72992065,0.00059949
713.65872803,0.00042638
715.58753540,0.00033201
717.51634277,0.00016724
719.44515015,0.00017623
721.37395752,-0.00016430
723.30276489,0.00008875
725.23157227,0.00021568
727.16037964,0.00033862
729.08918701,0.00009113
731.01799438,0.00005039
732.94680176,0.00027468
734.87560913,-0.00009263
736.80441650,0.00012588
738.73322388,-0.00002216
740.66203125,0.00009553
742.59083862,0.00016279
744.51964600,0.00002152
746.44845337,0.00004799
748.37726074,-0.00019208
750.30606812,0.00011076
752.23487549,0.00000282
754.16368286,0.00005618
756.09249023,0.00028848
758.02129761,0.00002468
759.95010498,0.00027170
761.87891235,0.00022054
763.80771973,0.00012083
765.73652710,0.00028824
767.66533447,0.00023125
769.59414185,0.00014278
771.52294922,0.00008474
773.45175659,-0.00017399
775.38056396,-0.00018059
777.30937134,0.00025556
779.23817871,0.00026336
781.16698608,0.00029248
783.09579346,0.00058097
785.02460083,0.00041378
786.95340820,0.00015814
788.88221558,0.00007545
790.81102295,0.00021112
792.73983032,0.00028824
794.66863770,0.00024632
796.59744507,0.00023091
798.52625244,0.00001279
800.45505981,0.00004786
802.38386719,0.00005198
804.31267456,0.00014386
806.24148193,0.00052726
808.17028931,0.00028717
810.09909668,0.00021823
812.02790405,0.00042204
813.95671143,0.00012199
815.88551880,0.00018394
817.81432617,0.00028003
819.74313354,0.00035713
821.67194092,0.00048273
823.60074829,0.00012326
825.52955566,0.00034925
827.45836304,0.00038053
829.38717041,0.00002301
831.31597778,0.00021795
833.24478516,0.00024009
835.17359253,0.00028701
837.10239990,0.00050806
839.03120728,0.00048526
840.96001465,0.00034703
842.88882202,0.00048266
844.81762939,0.00034927
846.74643677,0.00028099
848.67524414,0.00039450
850.60405151,0.00021524
852.53285889,0.00035335
854.46166626,0.00011786
856.39047363,0.00040138
858.31928101,0.00059410
860.24808838,0.00002678
862.17689575,0.00029852
864.10570313,0.00022424
866.03451050,0.00033051
867.96331787,0.00043883
869.89212524,0.00029059
871.82093262,0.00027538
873.74973999,-0.00000132
875.67854736,0.00051585
877.60735474,0.00040232
879.53616211,0.00027899
881.46496948,0.00052983
883.39377686,0.00014100
885.32258423,0.00025745
887.25139160,0.00022571
889.18019897,0.00021598
891.10900635,0.00024624
893.03781372,0.00016736
894.96662109,0.00033485
896.89542847,0.00008941
898.82423584,0.00004254
900.75304321,0.00037772
902.68185059,0.00033681
904.61065796,0.00035033
906.53946533,0.00047962
908.46827271,0.00006802
910.39708008,0.00020616
912.32588745,0.00033345
914.25469482,0.00001402
916.18350220,0.00041557
918.11230957,0.00056582
920.04111694,0.00040662
921.96992432,0.00035289
923.89873169,0.00060337
925.82753906,0.00075275
927.75634644,0.00048213
929.68515381,0.00060692
931.61396118,0.00071408
933.54276855,0.00071953
935.47157593,0.00067213
937.40038330,0.00068924
939.32919067,0.00087048
941.25799805,0.00084133
943.18680542,0.00077748
945.11561279,0.00077053
947.04442017,0.00089204
948.97322754,0.00064531
950.90203491,0.00063572
952.83084229,0.00107384
954.75964966,0.00096952
956.68845703,0.00079153
958.61726440,0.00071047
960.54607178,0.00073439
962.47487915,0.00092709
964.40368652,0.00105680
966.33249390,0.00089926
968.26130127,0.00074933
970.19010864,0.00077796
972.11891602,0.00074783
974.04772339,0.00101337
975.97653076,0.00105386
977.90533813,0.00110354
979.83414551,0.00126000
981.76295288,0.00116279
983.69176025,0.00144236
985.62056763,0.00166894
987.54937500,0.00170258
989.47818237,0.00187057
991.40698975,0.00217359
993.33579712,0.00228311
995.26460449,0.00253264
997.19341187,0.00293181
999.12221924,0.00300367
1001.05102661,0.00333390
1002.97983398,0.00346632
1004.90864136,0.00368764
1006.83744873,0.00399689
1008.76625610,0.00406756
1010.69506348,0.00440851
1012.62387085,0.00462515
1014.55267822,0.00487285
1016.48148560,0.00503631
1018.41029297,0.00539051
1020.33910034,0.00562112
1022.26790771,0.00575282
1024.19671509,0.00608591
1026.12552246,0.00614143
1028.05432983,0.00652224
1029.98313721,0.00641939
1031.91194458,0.00664294
1033.84075195,0.00713457
1035.76955933,0.00710048
1037.69836670,0.00736424
1039.62717407,0.00682609
1041.55598145,0.00686025
1043.48478882,0.00724385
1045.41359619,0.00704240
1047.34240356,0.00699680
1049.27121094,0.00654408
1051.20001831,0.00662238
1053.12882568,0.00664297
1055.05763306,0.00652132
1056.98644043,0.00632227
1058.91524780,0.00587673
1060.84405518,0.00611152
1062.77286255,0.00591305
1064.70166992,0.00570919
1066.63047729,0.00555430
1068.55928467,0.00503323
1070.48809204,0.00487240
1072.41689941,0.00465167
1074.34570679,0.00461362
1076.27451416,0.00463908
1078.20332153,0.00443091
1080.13212891,0.00409317
1082.06093628,0.00380121
1083.98974365,0.00381339
1085.91855103,0.00356927
1087.84735840,0.00336317
1089.77616577,0.00336502
1091.70497314,0.00308814
1093.63378052,0.00310225
1095.56258789,0.00310724
1097.49139526,0.00273617
1099.42020264,0.00272334
1101.34901001,0.00280504
1103.27781738,0.00267334
1105.20662476,0.00247791
1107.13543213,0.00252401
1109.06423950,0.00275215
1110.99304687,0.00257952
1112.92185425,0.00237573
1114.85066162,0.00237000
1116.77946899,0.00249994
1118.70827637,0.00260957
1120.63708374,0.00263526
1122.56589111,0.00270043
1124.49469849,0.00262052
1126.42350586,0.00267069
1128.35231323,0.00262138
1130.28112061,0.00257498
1132.20992798,0.00282103
1134.13873535,0.00303069
1136.06754272,0.00311273
1137.99635010,0.00319025
1139.92515747,0.00355151
1141.85396484,0.00352465
1143.78277222,0.00366486
1145.71157959,0.00430435
1147.64038696,0.00430082
1149.56919434,0.00440016
1151.49800171,0.00482252
1153.42680908,0.00502432
1155.35561646,0.00515506
1157.28442383,0.00541261
1159.21323120,0.00549708
1161.14203857,0.00547955
1163.07084595,0.00592867
1164.99965332,0.00622183
1166.92846069,0.00639240
1168.85726807,0.00660103
1170.78607544,0.00682362
1172.71488281,0.00726796
1174.64369019,0.00757457
1176.57249756,0.00782664
1178.50130493,0.00792827
1180.43011230,0.00815080
1182.35891968,0.00875224
1184.28772705,0.00932456
1186.21653442,0.00965562
1188.14534180,0.00996889
1190.07414917,0.01039021
1192.00295654,0.01079195
1193.93176392,0.01146995
1195.86057129,0.01199360
1197.78937866,0.01244953
1199.71818604,0.01302372
1201.64699341,0.01336053
1203.57580078,0.01404450
1205.50460815,0.01478348
1207.43341553,0.01524341
1209.36222290,0.01559727
1211.29103027,0.01594109
1213.21983765,0.01633503
1215.14864502,0.01672664
1217.07745239,0.01716912
1219.00625977,0.01742525
1220.93506714,0.01782934
1222.86387451,0.01822908
1224.79268188,0.01835956
1226.72148926,0.01848239
1228.65029663,0.01867449
1230.57910400,0.01882374
1232.50791138,0.01857945
1234.43671875,0.01861141
1236.36552612,0.01877837
1238.29433350,0.01871051
1240.22314087,0.01858731
1242.15194824,0.01845037
1244.08075562,0.01871321
1246.00956299,0.01851975
1247.93837036,0.01839932
1249.86717773,0.01856012
1251.79598511,0.01820269
1253.72479248,0.01828823
1255.65359985,0.01819649
1257.58240723,0.01771321
1259.51121460,0.01741407
1261.44002197,0.01713593
1263.36882935,0.01683046
1265.29763672,0.01661771
1267.22644409,0.01673353
1269.15525146,0.01630419
1271.08405884,0.01604289
1273.01286621,0.01602799
1274.94167358,0.01548319
1276.87048096,0.01542782
1278.79928833,0.01512241
1280.72809570,0.01470103
1282.65690308,0.01467470
1284.58571045,0.01440904
1286.51451782,0.01411448
1288.44332520,0.01372214
1290.37213257,0.01362544
1292.30093994,0.01355041
1294.22974731,0.01335752
1296.15855469,0.01337622
1298.08736206,0.01317006
1300.01616943,0.01326180
1301.94497681,0.01369487
1303.87378418,0.01366949
1305.80259155,0.01360503
1307.73139893,0.01403634
1309.66020630,0.01430452
1311.58901367,0.01445347
1313.51782104,0.01476069
1315.44662842,0.01516203
1317.37543579,0.01566875
1319.30424316,0.01580200
1321.23305054,0.01633558
1323.16185791,0.01708631
1325.09066528,0.01744579
1327.01947266,0.01795029
1328.94828003,0.01826822
1330.87708740,0.01888882
1332.80589478,0.01952263
1334.73470215,0.01964964
1336.66350952,0.01968642
1338.59231689,0.01949701
1340.52112427,0.01992556
1342.44993164,0.02076267
1344.37873901,0.02089070
1346.30754639,0.02084750
1348.23635376,0.02087308
1350.16516113,0.02074644
1352.09396851,0.02075077
1354.02277588,0.02062184
1355.95158325,0.02033692
1357.88039062,0.02020302
1359.80919800,0.01993743
1361.73800537,0.01911792
1363.66681274,0.01896496
1365.59562012,0.01986702
1367.52442749,0.01935624
1369.45323486,0.01907387
1371.38204224,0.01948200
1373.31084961,0.01859808
1375.23965698,0.01864738
1377.16846436,0.01898767
1379.09727173,0.01909818
1381.02607910,0.01925140
1382.95488647,0.01915092
1384.88369385,0.01926010
1386.81250122,0.01828824
1388.74130859,0.01848817
1390.67011597,0.02012722
1392.59892334,0.01969486
1394.52773071,0.01849663
1396.45653809,0.01922000
1398.38534546,0.01922300
1400.31415283,0.01917323
1402.24296021,0.02064748
1404.17176758,0.01962486
1406.10057495,0.01975287
1408.02938232,0.02043173
1409.95818970,0.01964248
1411.88699707,0.02015156
1413.81580444,0.01943189
1415.74461182,0.01981760
1417.67341919,0.01822961
1419.60222656,0.01622644
1421.53103394,0.01837684
1423.45984131,0.01815866
1425.38864868,0.01765862
1427.31745605,0.01761657
1429.24626343,0.01642687
1431.17507080,0.01601175
1433.10387817,0.01631649
1435.03268555,0.01497736
1436.96149292,0.01257726
1438.89030029,0.01419283
1440.81910767,0.01465356
1442.74791504,0.01368332
1444.67672241,0.01429361
1446.60552979,0.01337473
1448.53433716,0.01350375
1450.46314453,0.01375410
1452.39195190,0.01427803
1454.32075928,0.01480310
1456.24956665,0.01235012
1458.17837402,0.01286272
1460.10718140,0.01694831
1462.03598877,0.01792612
1463.96479614,0.01773602
1465.89360352,0.01886136
1467.82241089,0.02118575
1469.75121826,0.02271579
1471.68002563,0.02046907
1473.60883301,0.02131399
1475.53764038,0.02448647
1477.46644775,0.02619082
1479.39525513,0.02853688
1481.32406250,0.02913772
1483.25286987,0.03091443
1485.18167725,0.03184953
1487.11048462,0.03143314
1489.03929199,0.03135073
1490.96809937,0.03160773
1492.89690674,0.03657378
1494.82571411,0.03559424
1496.75452148,0.03224812
1498.68332886,0.03637454
1500.61213623,0.03749400
1502.54094360,0.04027607
1504.46975098,0.03801747
1506.39855835,0.02803993
1508.32736572,0.03403635
1510.25617310,0.03974696
1512.18498047,0.03855966
1514.11378784,0.04179680
1516.04259521,0.03784335
1517.97140259,0.03942665
1519.90020996,0.03826973
1521.82901733,0.03319947
1523.75782471,0.04046883
1525.68663208,0.03987133
1527.61543945,0.03961878
1529.54424683,0.04378557
1531.47305420,0.04214604
1533.40186157,0.03878969
1535.33066895,0.04102213
1537.25947632,0.04383827
1539.18828369,0.03197275
1541.11709106,0.03349211
1543.04589844,0.03965215
1544.97470581,0.03799810
1546.90351318,0.04488616
1548.83232056,0.04193526
1550.76112793,0.04339394
1552.68993530,0.04307017
1554.61874268,0.03909072
1556.54755005,0.04188932
1558.47635742,0.03005340
1560.40516479,0.03258575
1562.33397217,0.04541904
1564.26277954,0.04306438
1566.19158691,0.04441366
1568.12039429,0.04384731
1570.04920166,0.03927825
1571.97800903,0.04502339
1573.90681641,0.04557220
1575.83562378,0.03648528
1577.76443115,0.04109741
1579.69323853,0.04643839
1581.62204590,0.04413897
1583.55085327,0.04524593
1585.47966064,0.04472187
1587.40846802,0.04497035
1589.33727539,0.04490168
1591.26608276,0.04477504
1593.19489014,0.04475436
1595.12369751,0.04449122
1597.05250488,0.04498364
1598.98131226,0.04474281
1600.91011963,0.04511324
1602.83892700,0.04423274
1604.76773437,0.04496626
1606.69654175,0.04432504
1608.62534912,0.04436102
1610.55415649,0.04437800
1612.48296387,0.04471598
1614.41177124,0.04544869
1616.34057861,0.03741103
1618.26938599,0.04063997
1620.19819336,0.04695241
1622.12700073,0.04178014
1624.05580811,0.04213537
1625.98461548,0.04389339
1627.91342285,0.04383342
1629.84223022,0.04368628
1631.77103760,0.04638146
1633.69984497,0.04303175
1635.62865234,0.03589366
1637.55745972,0.04161820
1639.48626709,0.04563501
1641.41507446,0.04452065
1643.34388184,0.04572157
1645.27268921,0.04144570
1647.20149658,0.03666423
1649.13030396,0.04517590
1651.05911133,0.04297766
1652.98791870,0.02816254
1654.91672607,0.03758170
1656.84553345,0.04694939
1658.77434082,0.04500437
1660.70314819,0.04626288
1662.63195557,0.04227851
1664.56076294,0.04438949
1666.48957031,0.04767324
1668.41837769,0.04204176
1670.34718506,0.04090834
1672.27599243,0.04608040
1674.20479980,0.04260938
1676.13360718,0.04102210
1678.06241455,0.04695350
1679.99122192,0.04516026
1681.92002930,0.04486093
1683.84883667,0.03688384
1685.77764404,0.03648423
1687.70645142,0.04930914
1689.63525879,0.04300423
1691.56406616,0.04727475
1693.49287354,0.04802510
1695.42168091,0.03552715
1697.35048828,0.04370121
1699.27929565,0.03872149
1701.20810303,0.03487575
1703.13691040,0.04676181
1705.06571777,0.04326123
1706.99452515,0.04362180
1708.92333252,0.04728495
1710.85213989,0.04559296
1712.78094727,0.04628810
1714.70975464,0.04321912
1716.63856201,0.03888593
1718.56736938,0.03824243
1720.49617676,0.04523132
1722.42498413,0.04683729
1724.35379150,0.04351223
1726.28259888,0.04721906
1728.21140625,0.04390744
1730.14021362,0.04420359
1732.06902100,0.04313047
1733.99782837,0.03342079
1735.92663574,0.04089880
1737.85544312,0.04507443
1739.78425049,0.04042468
1741.71305786,0.04382377
1743.64186523,0.04445904
1745.57067261,0.04459631
1747.49947998,0.04503660
1749.42828735,0.04316533
1751.35709473,0.04130992
1753.28590210,0.04563217
1755.21470947,0.04768160
1757.14351685,0.04360265
1759.07232422,0.04798685
1761.00113159,0.04522199
1762.92993896,0.04351559
1764.85874634,0.04972082
1766.78755371,0.04502974
1768.71636108,0.04549195
1770.64516846,0.04525854
1772.57397583,0.04080074
1774.50278320,0.04534510
1776.43159058,0.04782337
1778.36039795,0.04736183
1780.28920532,0.04680556
1782.21801270,0.04698502
1784.14682007,0.04697087
1786.07562744,0.04624262
1788.00443481,0.04852295
1789.93324219,0.04726993
1791.86204956,0.04318222
1793.79085693,0.04496413
1795.71966431,0.04801539
1797.64847168,0.04748119
1799.57727905,0.04683276
1801.50608643,0.04611024
1803.43489380,0.04733957
1805.36370117,0.04843550
1807.29250854,0.04793831
1809.22131592,0.04806669
1811.15012329,0.04700600
1813.07893066,0.04841017
1815.00773804,0.04863180
1816.93654541,0.04801507
1818.86535278,0.04837169
1820.79416016,0.04833499
1822.72296753,0.04916589
1824.65177490,0.04608582
1826.58058228,0.04758622
1828.50938965,0.04788306
1830.43819702,0.04503866
1832.36700439,0.04877362
1834.29581177,0.04853977
1836.22461914,0.04844200
1838.15342651,0.04838520
1840.08223389,0.04862395
1842.01104126,0.04872845
1843.93984863,0.04358355
1845.86865601,0.04624502
1847.79746338,0.04877582
1849.72627075,0.04787159
1851.65507812,0.04921130
1853.58388550,0.04834189
1855.51269287,0.04878945
1857.44150024,0.04838089
1859.37030762,0.04820465
1861.29911499,0.04852898
1863.22792236,0.04803596
1865.15672974,0.04876265
1867.08553711,0.04713193
1869.01434448,0.04523796
1870.94315186,0.04705112
1872.87195923,0.04871635
1874.80076660,0.04808170
1876.72957397,0.04840971
1878.65838135,0.04801610
1880.58718872,0.04792441
1882.51599609,0.04844142
1884.44480347,0.04743635
1886.37361084,0.04833255
1888.30241821,0.04738597
1890.23122559,0.04651188
1892.16003296,0.04814846
1894.08884033,0.04738601
1896.01764771,0.04740781
1897.94645508,0.04784381
1899.87526245,0.04769459
1901.80406982,0.04787501
1903.73287720,0.04749247
1905.66168457,0.04788648
1907.59049194,0.04745789
1909.51929932,0.04723695
1911.44810669,0.04753395
1913.37691406,0.04743298
1915.30572144,0.04790201
1917.23452881,0.04599236
1919.16333618,0.04592393
1921.09214355,0.04765777
1923.02095093,0.04629394
1924.94975830,0.04718740
1926.87856567,0.04786301
1928.80737305,0.04720536
1930.73618042,0.04769644
1932.66498779,0.04722916
1934.59379517,0.04768836
1936.52260254,0.04737937
1938.45140991,0.04739650
1940.38021729,0.04731986
1942.30902466,0.04589433
1944.23783203,0.04684854
1946.16663940,0.04747468
1948.09544678,0.04731159
1950.02425415,0.04737123
1951.95306152,0.04738692
1953.88186890,0.04750547
1955.81067627,0.04719111
1957.73948364,0.04744889
1959.66829102,0.04739721
1961.59709839,0.04730269
1963.52590576,0.04746843
1965.45471313,0.04720730
1967.38352051,0.04678784
1969.31232788,0.04709622
1971.24113525,0.04748926
1973.16994263,0.04717875
1975.09875000,0.04739546
1977.02755737,0.04719775
1978.95636475,0.04724006
1980.88517212,0.04739182
1982.81397949,0.04711213
1984.74278687,0.04729263
1986.67159424,0.04689673
1988.60040161,0.04701545
1990.52920898,0.04681477
1992.45801636,0.04627380
1994.38682373,0.04694988
1996.31563110,0.04711900
1998.24443848,0.04677559
2000.17324585,0.04660922
2002.10205322,0.04667749
2004.03086060,0.04684718
2005.95966797,0.04669410
2007.88847534,0.04659989
2009.81728271,0.04656532
2011.74609009,0.04639991
2013.67489746,0.04645122
2015.60370483,0.04618927
2017.53251221,0.04588958
2019.46131958,0.04611909
2021.39012695,0.04603778
2023.31893433,0.04614474
2025.24774170,0.04603413
2027.17654907,0.04578154
2029.10535645,0.04605087
2031.03416382,0.04586054
2032.96297119,0.04566376
2034.89177856,0.04561876
2036.82058594,0.04566012
2038.74939331,0.04565907
2040.67820068,0.04544824
2042.60700806,0.04531506
2044.53581543,0.04517727
2046.46462280,0.04525829
2048.39343018,0.04530893
2050.32223755,0.04527183
2052.25104492,0.04513983
2054.17985229,0.04505092
2056.10865967,0.04493599
2058.03746704,0.04486558
2059.96627441,0.04506124
2061.89508179,0.04485400
2063.82388916,0.04457842
2065.75269653,0.04463312
2067.68150391,0.04475645
2069.61031128,0.04461949
2071.53911865,0.04459896
2073.46792603,0.04465840
2075.39673340,0.04445465
2077.32554077,0.04440992
2079.25434814,0.04426033
2081.18315552,0.04433114
2083.11196289,0.04433131
2085.04077026,0.04428099
2086.96957764,0.04430257
2088.89838501,0.04402404
2090.82719238,0.04413768
2092.75599976,0.04403052
2094.68480713,0.04392239
2096.61361450,0.04393394
2098.54242187,0.04376201
2100.47122925,0.04389090
2102.40003662,0.04376682
2104.32884399,0.04370294
2106.25765137,0.04376051
2108.18645874,0.04355298
2110.11526611,0.04358982
2112.04407349,0.04367362
2113.97288086,0.04339927
2115.90168823,0.04341078
2117.83049561,0.04342481
2119.75930298,0.04334576
2121.68811035,0.04350145
2123.61691772,0.04323002
2125.54572510,0.04332451
2127.47453247,0.04336200
2129.40333984,0.04315783
2131.33214722,0.04338982
2133.26095459,0.04318100
2135.18976196,0.04303619
2137.11856934,0.04304398
2139.04737671,0.04297050
2140.97618408,0.04298042
2142.90499146,0.04309831
2144.83379883,0.04310066
2146.76260620,0.04292057
2148.69141357,0.04299952
2150.62022095,0.04282646
2152.54902832,0.04276447
2154.47783569,0.04283690
2156.40664307,0.04281024
2158.33545044,0.04282736
2160.26425781,0.04270391
2162.19306519,0.04268589
2164.12187256,0.04271243
2166.05067993,0.04292991
2167.97948730,0.04275311
2169.90829468,0.04247972
2171.83710205,0.04257486
2173.76590942,0.04252510
2175.69471680,0.04259381
2177.62352417,0.04256853
2179.55233154,0.04250378
2181.48113892,0.04241414
2183.40994629,0.04243527
2185.33875366,0.04249839
2187.26756104,0.04242453
2189.19636841,0.04241515
2191.12517578,0.04225858
2193.05398315,0.04236866
2194.98279053,0.04241384
2196.91159790,0.04228013
2198.84040527,0.04234423
2200.76921265,0.04238108
2202.69802002,0.04230524
2204.62682739,0.04215079
2206.55563477,0.04210402
2208.48444214,0.04209817
2210.41324951,0.04223168
2212.34205688,0.04212950
2214.27086426,0.04200269
2216.19967163,0.04209452
2218.12847900,0.04192862
2220.05728638,0.04191610
2221.98609375,0.04193947
2223.91490112,0.04189534
2225.84370850,0.04189161
2227.77251587,0.04186828
2229.70132324,0.04182292
2231.63013062,0.04173270
2233.55893799,0.04171335
2235.48774536,0.04169798
2237.41655273,0.04163992
2239.34536011,0.04158986
2241.27416748,0.04171909
2243.20297485,0.04151769
2245.13178223,0.04140667
2247.06058960,0.04157757
2248.98939697,0.04133374
2250.91820435,0.04133745
2252.84701172,0.04129956
2254.77581909,0.04123294
2256.70462646,0.04136429
2258.63343384,0.04119571
2260.56224121,0.04111961
2262.49104858,0.04117911
2264.41985596,0.04116777
2266.34866333,0.04112287
2268.27747070,0.04115275
2270.20627808,0.04107826
2272.13508545,0.04108519
2274.06389282,0.04111832
2275.99270020,0.04097653
2277.92150757,0.04104255
2279.85031494,0.04097630
2281.77912231,0.04090787
2283.70792969,0.04093841
2285.63673706,0.04086066
2287.56554443,0.04080607
2289.49435181,0.04067089
2291.42315918,0.04053927
2293.35196655,0.04041231
2295.28077393,0.04041670
2297.20958130,0.04047030
2299.13838867,0.04031532
2301.06719604,0.04013613
2302.99600342,0.03998078
2304.92481079,0.03980202
2306.85361816,0.03958733
2308.78242554,0.03922829
2310.71123291,0.03903451
2312.64004028,0.03881014
2314.56884766,0.03837994
2316.49765503,0.03807751
2318.42646240,0.03742889
2320.35526978,0.03691836
2322.28407715,0.03650010
2324.21288452,0.03599046
2326.14169189,0.03582128
2328.07049927,0.03530782
2329.99930664,0.03493696
2331.92811401,0.03472106
2333.85692139,0.03458135
2335.78572876,0.03441825
2337.71453613,0.03430276
2339.64334351,0.03456122
2341.57215088,0.03442229
2343.50095825,0.03495743
2345.42976562,0.03575901
2347.35857300,0.03705923
2349.28738037,0.03834172
2351.21618774,0.03697865
2353.14499512,0.03525969
2355.07380249,0.03404857
2357.00260986,0.03299794
2358.93141724,0.03253727
2360.86022461,0.03206813
2362.78903198,0.03214964
2364.71783936,0.03234101
2366.64664673,0.03264659
2368.57545410,0.03332116
2370.50426147,0.03415066
2372.43306885,0.03506579
2374.36187622,0.03596838
2376.29068359,0.03689364
2378.21949097,0.03765973
2380.14829834,0.03840383
2382.07710571,0.03888711
2384.00591309,0.03907269
2385.93472046,0.03918940
2387.86352783,0.03941091
2389.79233521,0.03941752
2391.72114258,0.03928378
2393.64994995,0.03938130
2395.57875732,0.03931602
2397.50756470,0.03934451
2399.43637207,0.03918862
2401.36517944,0.03917074
2403.29398682,0.03938149
2405.22279419,0.03925714
2407.15160156,0.03927924
2409.08040894,0.03910321
2411.00921631,0.03896051
2412.93802368,0.03904193
2414.86683105,0.03897558
2416.79563843,0.03887090
2418.72444580,0.03886416
2420.65325317,0.03899059
2422.58206055,0.03895571
2424.51086792,0.03880134
2426.43967529,0.03874393
2428.36848267,0.03884194
2430.29729004,0.03877290
2432.22609741,0.03872982
2434.15490479,0.03863525
2436.08371216,0.03855117
2438.01251953,0.03870348
2439.94132690,0.03846721
2441.87013428,0.03847626
2443.79894165,0.03845447
2445.72774902,0.03835075
2447.65655640,0.03854074
2449.58536377,0.03843778
2451.51417114,0.03847294
2453.44297852,0.03833419
2455.37178589,0.03828620
2457.30059326,0.03838123
2459.22940063,0.03821139
2461.15820801,0.03822857
2463.08701538,0.03821939
2465.01582275,0.03820566
2466.94463013,0.03821883
2468.87343750,0.03827153
2470.80224487,0.03810907
2472.73105225,0.03802173
2474.65985962,0.03821134
2476.58866699,0.03807709
2478.51747437,0.03801379
2480.44628174,0.03801478
2482.37508911,0.03794732
2484.30389648,0.03794302
2486.23270386,0.03788356
2488.16151123,0.03781837
2490.09031860,0.03783369
2492.01912598,0.03777537
2493.94793335,0.03767765
2495.87674072,0.03776684
2497.80554810,0.03764896
2499.73435547,0.03762364
2501.66316284,0.03765007
2503.59197021,0.03758495
2505.52077759,0.03771972
2507.44958496,0.03754351
2509.37839233,0.03752735
2511.30719971,0.03768781
2513.23600708,0.03761479
2515.16481445,0.03754324
2517.09362183,0.03729826
2519.02242920,0.03728763
2520.95123657,0.03746062
2522.88004395,0.03735010
2524.80885132,0.03731357
2526.73765869,0.03733966
2528.66646606,0.03724387
2530.59527344,0.03724455
2532.52408081,0.03727410
2534.45288818,0.03716890
2536.38169556,0.03704591
2538.31050293,0.03709827
2540.23931030,0.03707122
2542.16811768,0.03695300
2544.09692505,0.03700218
2546.02573242,0.03692822
2547.95453979,0.03692531
2549.88334717,0.03687151
2551.81215454,0.03671497
2553.74096191,0.03684790
2555.66976929,0.03683845
2557.59857666,0.03679118
2559.52738403,0.03683849
2561.45619141,0.03678445
2563.38499878,0.03677295
2565.31380615,0.03676178
2567.24261353,0.03670629
2569.17142090,0.03669497
2571.10022827,0.03666802
2573.02903564,0.03663787
2574.95784302,0.03661150
2576.88665039,0.03641905
2578.81545776,0.03639534
2580.74426514,0.03640874
2582.67307251,0.03638972
2584.60187988,0.03651239
2586.53068726,0.03644445
2588.45949463,0.03632732
2590.38830200,0.03621822
2592.31710937,0.03619259
2594.24591675,0.03610121
2596.17472412,0.03617007
2598.10353149,0.03627500
2600.03233887,0.03611951
2601.96114624,0.03625701
2603.88995361,0.03610853
2605.81876099,0.03605145
2607.74756836,0.03616782
2609.67637573,0.03601772
2611.60518311,0.03607439
2613.53399048,0.03596997
2615.46279785,0.03591576
2617.39160522,0.03588835
2619.32041260,0.03582017
2621.24921997,0.03572693
2623.17802734,0.03566790
2625.10683472,0.03578592
2627.03564209,0.03576082
2628.96444946,0.03578936
2630.89325684,0.03572711
2632.82206421,0.03569531
2634.75087158,0.03562406
2636.67967895,0.03560299
2638.60848633,0.03552914
2640.53729370,0.03541122
2642.46610107,0.03560025
2644.39490845,0.03539672
2646.32371582,0.03539807
2648.25252319,0.03531646
2650.18133057,0.03526058
2652.11013794,0.03552102
2654.03894531,0.03530795
2655.96775269,0.03538236
2657.89656006,0.03527793
2659.82536743,0.03524774
2661.75417480,0.03527538
2663.68298218,0.03509127
2665.61178955,0.03520307
2667.54059692,0.03506047
2669.46940430,0.03506357
2671.39821167,0.03496865
2673.32701904,0.03500041
2675.25582642,0.03502406
2677.18463379,0.03482052
2679.11344116,0.03490372
2681.04224854,0.03478356
2682.97105591,0.03480428
2684.89986328,0.03474763
2686.82867065,0.03470676
2688.75747803,0.03467320
2690.68628540,0.03458727
2692.61509277,0.03461028
2694.54390015,0.03450724
2696.47270752,0.03470411
2698.40151489,0.03446410
2700.33032227,0.03439759
2702.25912964,0.03457219
2704.18793701,0.03433040
2706.11674438,0.03442924
2708.04555176,0.03434534
2709.97435913,0.03431598
2711.90316650,0.03438510
2713.83197388,0.03430459
2715.76078125,0.03425433
2717.68958862,0.03417110
2719.61839600,0.03420262
2721.54720337,0.03408691
2723.47601074,0.03412148
2725.40481812,0.03414631
2727.33362549,0.03395475
2729.26243286,0.03394859
2731.19124023,0.03397021
2733.12004761,0.03384584
2735.04885498,0.03377791
2736.97766235,0.03381802
2738.90646973,0.03377981
2740.83527710,0.03375069
2742.76408447,0.03367323
2744.69289185,0.03368124
2746.62169922,0.03374925
2748.55050659,0.03369313
2750.47931396,0.03361958
2752.40812134,0.03356009
2754.33692871,0.03355656
2756.26573608,0.03348109
2758.19454346,0.03346445
2760.12335083,0.03342888
2762.05215820,0.03341750
2763.98096558,0.03340108
2765.90977295,0.03321246
2767.83858032,0.03321439
2769.76738770,0.03321791
2771.69619507,0.03309468
2773.62500244,0.03301913
2775.55380981,0.03309925
2777.48261719,0.03303428
2779.41142456,0.03291256
2781.34023193,0.03302006
2783.26903931,0.03294088
2785.19784668,0.03290261
2787.12665405,0.03285469
2789.05546143,0.03281141
2790.98426880,0.03284615
2792.91307617,0.03277555
2794.84188354,0.03272251
2796.77069092,0.03259005
2798.69949829,0.03264274
2800.62830566,0.03259860
2802.55711304,0.03243051
2804.48592041,0.03245512
2806.41472778,0.03245768
2808.34353516,0.03240966
2810.27234253,0.03229862
2812.20114990,0.03229196
2814.12995728,0.03225452
2816.05876465,0.03213807
2817.98757202,0.03207180
2819.91637939,0.03213261
2821.84518677,0.03210974
2823.77399414,0.03200569
2825.70280151,0.03208743
2827.63160889,0.03195340
2829.56041626,0.03193113
2831.48922363,0.03189817
2833.41803101,0.03170983
2835.34683838,0.03174385
2837.27564575,0.03166836
2839.20445312,0.03166807
2841.13326050,0.03154325
2843.06206787,0.03135959
2844.99087524,0.03137886
2846.91968262,0.03122256
2848.84848999,0.03104020
2850.77729736,0.03103301
2852.70610474,0.03104049
2854.63491211,0.03088807
2856.56371948,0.03088524
2858.49252686,0.03090223
2860.42133423,0.03073149
2862.35014160,0.03074114
2864.27894897,0.03083626
2866.20775635,0.03077775
2868.13656372,0.03064985
2870.06537109,0.03063526
2871.99417847,0.03062927
2873.92298584,0.03056735
2875.85179321,0.03049562
2877.78060059,0.03048026
2879.70940796,0.03046958
2881.63821533,0.03043556
2883.56702270,0.03046120
2885.49583008,0.03038672
2887.42463745,0.03042006
2889.35344482,0.03044451
2891.28225220,0.03028214
2893.21105957,0.03016807
2895.13986694,0.03012048
2897.06867432,0.03008804
2898.99748169,0.03001736
2900.92628906,0.03002883
2902.85509644,0.02992503
2904.78390381,0.02985633
2906.71271118,0.02986634
2908.64151855,0.02977865
2910.57032593,0.02975127
2912.49913330,0.02946634
2914.42794067,0.02932607
2916.35674805,0.02936458
2918.28555542,0.02925657
2920.21436279,0.02917036
2922.14317017,0.02904299
2924.07197754,0.02919955
2926.00078491,0.02925519
2927.92959229,0.02910094
2929.85839966,0.02906766
2931.78720703,0.02898565
2933.71601440,0.02906594
2935.64482178,0.02908674
2937.57362915,0.02901956
2939.50243652,0.02904364
2941.43124390,0.02903140
2943.36005127,0.02907572
2945.28885864,0.02904379
2947.21766602,0.02895372
2949.14647339,0.02891241
2951.07528076,0.02886307
2953.00408813,0.02880376
2954.93289551,0.02868496
2956.86170288,0.02861819
2958.79051025,0.02869715
2960.71931763,0.02871286
2962.64812500,0.02856471
2964.57693237,0.02849625
2966.50573975,0.02846651
2968.43454712,0.02844523
2970.36335449,0.02855069
2972.29216187,0.02854637
2974.22096924,0.02854581
2976.14977661,0.02852559
2978.07858398,0.02844501
2980.00739136,0.02852741
2981.93619873,0.02860916
2983.86500610,0.02866152
2985.79381348,0.02855384
2987.72262085,0.02852703
2989.65142822,0.02859133
2991.58023560,0.02850913
2993.50904297,0.02851374
2995.43785034,0.02842800
2997.36665771,0.02842937
2999.29546509,0.02834081
3001.22427246,0.02828695
3003.15307983,0.02835244
3005.08188721,0.02815503
3007.01069458,0.02825154
3008.93950195,0.02816762
3010.86830933,0.02806700
3012.79711670,0.02813112
3014.72592407,0.02791278
3016.65473145,0.02799505
3018.58353882,0.02790624
3020.51234619,0.02773824
3022.44115356,0.02779933
3024.36996094,0.02775375
3026.29876831,0.02778457
3028.22757568,0.02779565
3030.15638306,0.02762621
3032.08519043,0.02750681
3034.01399780,0.02753914
3035.94280518,0.02739318
3037.87161255,0.02743549
3039.80041992,0.02746163
3041.72922729,0.02733289
3043.65803467,0.02739636
3045.58684204,0.02726563
3047.51564941,0.02726872
3049.44445679,0.02719383
3051.37326416,0.02713687
3053.30207153,0.02721700
3055.23087891,0.02697764
3057.15968628,0.02696161
3059.08849365,0.02706347
3061.01730103,0.02703096
3062.94610840,0.02688401
3064.87491577,0.02678901
3066.80372314,0.02682542
3068.73253052,0.02685412
3070.66133789,0.02686344
3072.59014526,0.02674938
3074.51895264,0.02670705
3076.44776001,0.02662946
3078.37656738,0.02659880
3080.30537476,0.02650183
3082.23418213,0.02637507
3084.16298950,0.02647583
3086.09179687,0.02642870
3088.02060425,0.02642701
3089.94941162,0.02645306
3091.87821899,0.02637666
3093.80702637,0.02628649
3095.73583374,0.02619293
3097.66464111,0.02612495
3099.59344849,0.02613382
3101.52225586,0.02613696
3103.45106323,0.02600720
3105.37987061,0.02602908
3107.30867798,0.02591038
3109.23748535,0.02586879
3111.16629272,0.02591988
3113.09510010,0.02576666
3115.02390747,0.02576805
3116.95271484,0.02568470
3118.88152222,0.02565902
3120.81032959,0.02559727
3122.73913696,0.02559827
3124.66794434,0.02560764
3126.59675171,0.02548785
3128.52555908,0.02551628
3130.45436645,0.02522050
3132.38317383,0.02519423
3134.31198120,0.02526306
3136.24078857,0.02516552
3138.16959595,0.02524227
3140.09840332,0.02506522
3142.02721069,0.02499262
3143.95601807,0.02488336
3145.88482544,0.02485824
3147.81363281,0.02488360
3149.74244019,0.02478440
3151.67124756,0.02475082
3153.60005493,0.02455327
3155.52886230,0.02470606
3157.45766968,0.02475495
3159.38647705,0.02454256
3161.31528442,0.02451388
3163.24409180,0.02441238
3165.17289917,0.02439855
3167.10170654,0.02429254
3169.03051392,0.02424818
3170.95932129,0.02421893
3172.88812866,0.02406292
3174.81693604,0.02410811
3176.74574341,0.02402424
3178.67455078,0.02391609
3180.60335815,0.02395884
3182.53216553,0.02393712
3184.46097290,0.02384156
3186.38978027,0.02371594
3188.31858765,0.02369845
3190.24739502,0.02369827
3192.17620239,0.02369577
3194.10500977,0.02366780
3196.03381714,0.02354573
3197.96262451,0.02347710
3199.89143188,0.02349984
3201.82023926,0.02351044
3203.74904663,0.02332434
3205.67785400,0.02328251
3207.60666138,0.02329890
3209.53546875,0.02313870
3211.46427612,0.02319950
3213.39308350,0.02312183
3215.32189087,0.02309465
3217.25069824,0.02316691
3219.17950562,0.02297208
3221.10831299,0.02296470
3223.03712036,0.02300341
3224.96592773,0.02299382
3226.89473511,0.02297581
3228.82354248,0.02289603
3230.75234985,0.02276754
3232.68115723,0.02279673
3234.60996460,0.02291964
3236.53877197,0.02277436
3238.46757935,0.02278244
3240.39638672,0.02272521
3242.32519409,0.02265827
3244.25400146,0.02274178
3246.18280884,0.02268684
3248.11161621,0.02268552
3250.04042358,0.02259076
3251.96923096,0.02254584
3253.89803833,0.02242671
3255.82684570,0.02240943
3257.75565308,0.02253170
3259.68446045,0.02246053
3261.61326782,0.02245449
3263.54207520,0.02242593
3265.47088257,0.02254177
3267.39968994,0.02247522
3269.32849731,0.02235753
3271.25730469,0.02239460
3273.18611206,0.02221372
3275.11491943,0.02224584
3277.04372681,0.02228203
3278.97253418,0.02226939
3280.90134155,0.02230287
3282.83014893,0.02226427
3284.75895630,0.02224987
3286.68776367,0.02224287
3288.61657104,0.02223740
3290.54537842,0.02213116
3292.47418579,0.02209185
3294.40299316,0.02205955
3296.33180054,0.02207558
3298.26060791,0.02208677
3300.18941528,0.02202006
3302.11822266,0.02206514
3304.04703003,0.02210452
3305.97583740,0.02206499
3307.90464478,0.02190904
3309.83345215,0.02189133
3311.76225952,0.02196573
3313.69106689,0.02194323
3315.61987427,0.02182120
3317.54868164,0.02179792
3319.47748901,0.02189530
3321.40629639,0.02181883
3323.33510376,0.02182591
3325.26391113,0.02173020
3327.19271851,0.02171182
3329.12152588,0.02183221
3331.05033325,0.02169621
3332.97914062,0.02167217
3334.90794800,0.02166209
3336.83675537,0.02155242
3338.76556274,0.02153499
3340.69437012,0.02159828
3342.62317749,0.02158885
3344.55198486,0.02158216
3346.48079224,0.02147970
3348.40959961,0.02139912
3350.33840698,0.02149212
3352.26721436,0.02134418
3354.19602173,0.02126736
3356.12482910,0.02125595
3358.05363647,0.02124850
3359.98244385,0.02118258
3361.91125122,0.02112150
3363.84005859,0.02118780
3365.76886597,0.02108572
3367.69767334,0.02119945
3369.62648071,0.02114137
3371.55528809,0.02107102
3373.48409546,0.02106424
3375.41290283,0.02097759
3377.34171020,0.02107160
3379.27051758,0.02092764
3381.19932495,0.02101235
3383.12813232,0.02090826
3385.05693970,0.02074498
3386.98574707,0.02078559
3388.91455444,0.02071552
3390.84336182,0.02074294
3392.77216919,0.02055177
3394.70097656,0.02070498
3396.62978394,0.02060086
3398.55859131,0.02040840
3400.48739868,0.02062739
3402.41620605,0.02048016
3404.34501343,0.02046446
3406.27382080,0.02044718
3408.20262817,0.02044015
3410.13143555,0.02048537
3412.06024292,0.02041773
3413.98905029,0.02032761
3415.91785767,0.02032455
3417.84666504,0.02037895
3419.77547241,0.02018525
3421.70427979,0.02014786
3423.63308716,0.02017389
3425.56189453,0.02021502
3427.49070190,0.02013488
3429.41950928,0.02005150
3431.34831665,0.02008199
3433.27712402,0.01999856
3435.20593140,0.02003600
3437.13473877,0.01990092
3439.06354614,0.01994637
3440.99235352,0.01990165
3442.92116089,0.01977156
3444.84996826,0.01978759
3446.77877563,0.01955466
3448.70758301,0.01973343
3450.63639038,0.01985652
3452.56519775,0.01972877
3454.49400513,0.01974482
3456.42281250,0.01973906
3458.35161987,0.01970066
3460.28042725,0.01969484
3462.20923462,0.01970830
3464.13804199,0.01965844
3466.06684937,0.01963814
3467.99565674,0.01953213
3469.92446411,0.01958862
3471.85327148,0.01957509
3473.78207886,0.01958059
3475.71088623,0.01953679
3477.63969360,0.01943656
3479.56850098,0.01959851
3481.49730835,0.01928841
3483.42611572,0.01936267
3485.35492310,0.01954388
3487.28373047,0.01940497
3489.21253784,0.01942664
3491.14134521,0.01930281
3493.07015259,0.01947491
3494.99895996,0.01937884
3496.92776733,0.01933417
3498.85657471,0.01942347
3500.78538208,0.01926484
3502.71418945,0.01904738
3504.64299683,0.01905452
3506.57180420,0.01952570
3508.50061157,0.01923508
3510.42941895,0.01898170
3512.35822632,0.01913568
3514.28703369,0.01928071
3516.21584106,0.01948034
3518.14464844,0.01923058
3520.07345581,0.01931733
3522.00226318,0.01922802
3523.93107056,0.01898024
3525.85987793,0.01905326
3527.78868530,0.01894102
3529.71749268,0.01895113
3531.64630005,0.01917316
3533.57510742,0.01931389
3535.50391479,0.01913917
3537.43272217,0.01910953
3539.36152954,0.01923028
3541.29033691,0.01922355
3543.21914429,0.01913475
3545.14795166,0.01869264
3547.07675903,0.01848802
3549.00556641,0.01911883
3550.93437378,0.01911303
3552.86318115,0.01861851
3554.79198853,0.01909052
3556.72079590,0.01917335
3558.64960327,0.01905609
3560.57841064,0.01898643
3562.50721802,0.01888257
3564.43602539,0.01905513
3566.36483276,0.01782620
3568.29364014,0.01735666
3570.22244751,0.01877965
3572.15125488,0.01921002
3574.08006226,0.01895475
3576.00886963,0.01903221
3577.93767700,0.01898046
3579.86648437,0.01905170
3581.79529175,0.01897894
3583.72409912,0.01897239
3585.65290649,0.01868086
3587.58171387,0.01719369
3589.51052124,0.01770400
3591.43932861,0.01918869
3593.36813599,0.01863590
3595.29694336,0.01834462
3597.22575073,0.01868887
3599.15455811,0.01880348
3601.08336548,0.01856590
3603.01217285,0.01878544
3604.94098022,0.01912345
3606.86978760,0.01847858
3608.79859497,0.01747550
3610.72740234,0.01786683
3612.65620972,0.01826844
3614.58501709,0.01766936
3616.51382446,0.01887988
3618.44263184,0.01756029
3620.37143921,0.01699290
3622.30024658,0.01911064
3624.22905395,0.01853290
3626.15786133,0.01932416
3628.08666870,0.01657296
3630.01547607,0.01515179
3631.94428345,0.01883935
3633.87309082,0.01843243
3635.80189819,0.01871947
3637.73070557,0.01899317
3639.65951294,0.01879276
3641.58832031,0.01898939
3643.51712769,0.01867700
3645.44593506,0.01890884
3647.37474243,0.01702786
3649.30354980,0.01572933
3651.23235718,0.01594136
3653.16116455,0.01875017
3655.08997192,0.01858976
3657.01877930,0.01667776
3658.94758667,0.01911076
3660.87639404,0.01868763
3662.80520142,0.01888189
3664.73400879,0.01883600
3666.66281616,0.01857636
3668.59162354,0.01815656
3670.52043091,0.01497707
3672.44923828,0.01791834
3674.37804565,0.01715816
3676.30685303,0.01438163
3678.23566040,0.01781369
3680.16446777,0.01823055
3682.09327515,0.01841770
3684.02208252,0.01881244
3685.95088989,0.01851102
3687.87969727,0.01680644
3689.80850464,0.01542023
3691.73731201,0.01757697
3693.66611938,0.01799348
3695.59492676,0.01836152
3697.52373413,0.01840777
3699.45254150,0.01821679
3701.38134888,0.01776737
3703.31015625,0.01710460
3705.23896362,0.01874558
3707.16777100,0.01784258
3709.09657837,0.01748143
3711.02538574,0.01656426
3712.95419312,0.01554178
3714.88300049,0.01795836
3716.81180786,0.01771422
3718.74061523,0.01798583
3720.66942261,0.01752982
3722.59822998,0.01687104
3724.52703735,0.01752492
3726.45584473,0.01640967
3728.38465210,0.01769281
3730.31345947,0.01743084
3732.24226685,0.01614902
3734.17107422,0.01581777
3736.09988159,0.01506922
3738.02868896,0.01580545
3739.95749634,0.01714892
3741.88630371,0.01794485
3743.81511108,0.01398701
3745.74391846,0.01331942
3747.67272583,0.01704100
3749.60153320,0.01481992
3751.53034058,0.01367229
3753.45914795,0.01554212
3755.38795532,0.01679141
3757.31676270,0.01738229
3759.24557007,0.01619903
3761.17437744,0.01667369
3763.10318481,0.01762916
3765.03199219,0.01669258
3766.96079956,0.01697155
3768.88960693,0.01669389
3770.81841431,0.01597579
3772.74722168,0.01720182
3774.67602905,0.01728007
3776.60483643,0.01735026
3778.53364380,0.01676304
3780.46245117,0.01618852
3782.39125854,0.01731928
3784.32006592,0.01680012
3786.24887329,0.01677874
3788.17768066,0.01713781
3790.10648804,0.01701889
3792.03529541,0.01701011
3793.96410278,0.01718724
3795.89291016,0.01620129
3797.82171753,0.01606262
3799.75052490,0.01684250
3801.67933228,0.01345973
3803.60813965,0.01563311
3805.53694702,0.01696925
3807.46575439,0.01399847
3809.39456177,0.01682788
3811.32336914,0.01651117
3813.25217651,0.01699392
3815.18098389,0.01544412
3817.10979126,0.01363958
3819.03859863,0.01703250
3820.96740601,0.01393580
3822.89621338,0.01452543
3824.82502075,0.01688429
3826.75382812,0.01543799
3828.68263550,0.01649676
3830.61144287,0.01589238
3832.54025024,0.01544954
3834.46905762,0.01566477
3836.39786499,0.01493428
3838.32667236,0.01366138
3840.25547974,0.01466879
3842.18428711,0.01576526
3844.11309448,0.01503065
3846.04190186,0.01618499
3847.97070923,0.01596113
3849.89951660,0.01591841
3851.82832397,0.01455794
3853.75713135,0.01108276
3855.68593872,0.01289312
3857.61474609,0.01601560
3859.54355347,0.01556282
3861.47236084,0.01551536
3863.40116821,0.01513129
3865.32997559,0.01414665
3867.25878296,0.01582362
3869.18759033,0.01435418
3871.11639770,0.01330482
3873.04520508,0.01567057
3874.97401245,0.01450645
3876.90281982,0.01560590
3878.83162720,0.01587168
3880.76043457,0.01371858
3882.68924194,0.01554823
3884.61804932,0.01462339
3886.54685669,0.01346835
3888.47566406,0.01564096
3890.40447144,0.01497866
3892.33327881,0.01411645
3894.26208618,0.01534281
3896.19089355,0.01556221
3898.11970093,0.01484207
3900.04850830,0.01406569
3901.97731567,0.01395512
3903.90612305,0.01382333
3905.83493042,0.01404386
3907.76373779,0.01531972
3909.69254517,0.01528676
3911.62135254,0.01514487
3913.55015991,0.01528999
3915.47896728,0.01484971
3917.40777466,0.01458471
3919.33658203,0.01443771
3921.26538940,0.01491678
3923.19419678,0.01481643
3925.12300415,0.01453160
3927.05181152,0.01482660
3928.98061890,0.01495548
3930.90942627,0.01462309
3932.83823364,0.01426837
3934.76704102,0.01479519
3936.69584839,0.01489470
3938.62465576,0.01488603
3940.55346313,0.01491363
3942.48227051,0.01436543
3944.41107788,0.01438235
3946.33988525,0.01461584
3948.26869263,0.01444795
3950.19750000,0.01438000
3952.12630737,0.01463835
3954.05511475,0.01465466
3955.98392212,0.01462794
3957.91272949,0.01449121
3959.84153687,0.01441519
3961.77034424,0.01445750
3963.69915161,0.01437383
3965.62795898,0.01456908
3967.55676636,0.01438527
3969.48557373,0.01436804
3971.41438110,0.01441063
3973.34318848,0.01428843
3975.27199585,0.01426472
3977.20080322,0.01414539
3979.12961060,0.01434005
3981.05841797,0.01419489
3982.98722534,0.01420795
3984.91603271,0.01415619
3986.84484009,0.01408881
3988.77364746,0.01424478
3990.70245483,0.01398671
3992.63126221,0.01410401
3994.56006958,0.01408387
3996.48887695,0.01408573
3998.41768433,0.01408317
4000.34649170,0.01398203
4002.27529907,0.01402390
4004.20410645,0.01387998
4006.13291382,0.01396820
4008.06172119,0.01383335
4009.99052856,0.01378413
4011.91933594,0.01376823
4013.84814331,0.01377546
4015.77695068,0.01383096
4017.70575806,0.01369611
4019.63456543,0.01381406
4021.56337280,0.01369489
4023.49218018,0.01367324
4025.42098755,0.01365861
4027.34979492,0.01362315
4029.27860229,0.01362261
4031.20740967,0.01352772
4033.13621704,0.01358446
4035.06502441,0.01346774
4036.99383179,0.01356606
4038.92263916,0.01347762
4040.85144653,0.01335524
4042.78025391,0.01336358
4044.70906128,0.01326531
4046.63786865,0.01336674
4048.56667603,0.01329261
4050.49548340,0.01332808
4052.42429077,0.01333348
4054.35309814,0.01326154
4056.28190552,0.01325445
4058.21071289,0.01328530
4060.13952026,0.01322202
4062.06832764,0.01309964
4063.99713501,0.01327532
4065.92594238,0.01318364
4067.85474976,0.01309943
4069.78355713,0.01303857
4071.71236450,0.01299803
4073.64117187,0.01307280
4075.56997925,0.01301226
4077.49878662,0.01304566
4079.42759399,0.01287159
4081.35640137,0.01289907
4083.28520874,0.01290892
4085.21401611,0.01283706
4087.14282349,0.01291440
4089.07163086,0.01278728
4091.00043823,0.01281086
4092.92924561,0.01280970
4094.85805298,0.01283281
4096.78686035,0.01275790
4098.71566772,0.01264620
4100.64447510,0.01267648
4102.57328247,0.01264334
4104.50208984,0.01269582
4106.43089722,0.01261895
4108.35970459,0.01256732
4110.28851196,0.01250309
4112.21731934,0.01246702
4114.14612671,0.01249681
4116.07493408,0.01249005
4118.00374145,0.01255741
4119.93254883,0.01243719
4121.86135620,0.01238875
4123.79016357,0.01238241
4125.71897095,0.01233331
4127.64777832,0.01236322
4129.57658569,0.01235460
4131.50539307,0.01232293
4133.43420044,0.01222125
4135.36300781,0.01221406
4137.29181519,0.01221759
4139.22062256,0.01217586
4141.14942993,0.01221381
4143.07823730,0.01216726
4145.00704468,0.01202847
4146.93585205,0.01202940
4148.86465942,0.01205446
4150.79346680,0.01199687
4152.72227417,0.01201740
4154.65108154,0.01200050
4156.57988892,0.01201862
4158.50869629,0.01200822
4160.43750366,0.01189076
4162.36631103,0.01188654
4164.29511841,0.01187908
4166.22392578,0.01183026
4168.15273315,0.01183951
4170.08154053,0.01181017
4172.01034790,0.01177410
4173.93915527,0.01180315
4175.86796265,0.01177337
4177.79677002,0.01175427
4179.72557739,0.01167780
4181.65438477,0.01163972
4183.58319214,0.01164681
4185.51199951,0.01151355
4187.44080688,0.01160165
4189.36961426,0.01159539
4191.29842163,0.01145584
4193.22722900,0.01149094
4195.15603638,0.01146423
4197.08484375,0.01150076
4199.01365112,0.01153980
4200.94245850,0.01147383
4202.87126587,0.01141983
4204.80007324,0.01142752
4206.72888062,0.01134044
4208.65768799,0.01130072
4210.58649536,0.01133788
4212.51530273,0.01128275
4214.44411011,0.01132256
4216.37291748,0.01124653
4218.30172485,0.01122690
4220.23053223,0.01124531
4222.15933960,0.01114835
4224.08814697,0.01119723
4226.01695435,0.01116780
4227.94576172,0.01111305
4229.87456909,0.01111905
4231.80337646,0.01109392
4233.73218384,0.01100027
4235.66099121,0.01097658
4237.58979858,0.01102776
4239.51860596,0.01097232
4241.44741333,0.01095425
4243.37622070,0.01095567
4245.30502808,0.01090521
4247.23383545,0.01084940
4249.16264282,0.01089287
4251.09145020,0.01087065
4253.02025757,0.01084594
4254.94906494,0.01087304
4256.87787231,0.01079189
4258.80667969,0.01080899
4260.73548706,0.01070786
4262.66429443,0.01068952
4264.59310181,0.01079382
4266.52190918,0.01065564
4268.45071655,0.01057949
4270.37952393,0.01062216
4272.30833130,0.01063618
4274.23713867,0.01058720
4276.16594604,0.01061618
4278.09475342,0.01062677
4280.02356079,0.01054350
4281.95236816,0.01054158
4283.88117554,0.01057503
4285.80998291,0.01054099
4287.73879028,0.01042297
4289.66759766,0.01036974
4291.59640503,0.01036751
4293.52521240,0.01037156
4295.45401978,0.01034509
4297.38282715,0.01039187
4299.31163452,0.01034328
4301.24044189,0.01022129
4303.16924927,0.01034152
4305.09805664,0.01027911
4307.02686401,0.01020239
4308.95567139,0.01019513
4310.88447876,0.01014897
4312.81328613,0.01017898
4314.74209351,0.01008766
4316.67090088,0.01009628
4318.59970825,0.01013850
4320.52851562,0.01013871
4322.45732300,0.01007186
4324.38613037,0.01001642
4326.31493774,0.01006940
4328.24374512,0.01002892
4330.17255249,0.00996648
4332.10135986,0.00992174
4334.03016724,0.00992740
4335.95897461,0.00988143
4337.88778198,0.00990563
4339.81658936,0.00993332
4341.74539673,0.00986908
4343.67420410,0.00984910
4345.60301147,0.00981568
4347.53181885,0.00980633
4349.46062622,0.00971905
4351.38943359,0.00981092
4353.31824097,0.00977149
4355.24704834,0.00962524
4357.17585571,0.00972530
4359.10466309,0.00966629
4361.03347046,0.00964623
4362.96227783,0.00964244
4364.89108520,0.00969096
4366.81989258,0.00961340
4368.74869995,0.00952648
4370.67750732,0.00960966
4372.60631470,0.00948718
4374.53512207,0.00956762
4376.46392944,0.00952717
4378.39273682,0.00939975
4380.32154419,0.00941027
4382.25035156,0.00940371
4384.17915894,0.00944523
4386.10796631,0.00934061
4388.03677368,0.00943694
4389.96558105,0.00941767
4391.89438843,0.00932252
4393.82319580,0.00936533
4395.75200317,0.00926532
4397.68081055,0.00927188
4399.60961792,0.00923199
4401.53842529,0.00921048
4403.46723267,0.00924720
4405.39604004,0.00922688
4407.32484741,0.00916736
4409.25365478,0.00914496
4411.18246216,0.00918722
4413.11126953,0.00908710
4415.04007690,0.00907152
4416.96888428,0.00911432
4418.89769165,0.00907235
4420.82649902,0.00908712
4422.75530640,0.00907511
4424.68411377,0.00903368
4426.61292114,0.00905179
4428.54172852,0.00897333
4430.47053589,0.00891425
4432.39934326,0.00898043
4434.32815063,0.00893644
4436.25695801,0.00893060
4438.18576538,0.00891925
4440.11457275,0.00886821
4442.04338013,0.00886626
4443.97218750,0.00884338
4445.90099487,0.00882308
4447.82980225,0.00876840
4449.75860962,0.00876658
4451.68741699,0.00878608
4453.61622437,0.00876231
4455.54503174,0.00868867
4457.47383911,0.00870912
4459.40264648,0.00865191
4461.33145386,0.00861556
4463.26026123,0.00871389
4465.18906860,0.00849457
4467.11787598,0.00852914
4469.04668335,0.00857542
4470.97549072,0.00849703
4472.90429810,0.00861214
4474.83310547,0.00843351
4476.76191284,0.00850700
4478.69072021,0.00855306
4480.61952759,0.00841444
4482.54833496,0.00843922
4484.47714233,0.00837323
4486.40594971,0.00842725
4488.33475708,0.00838655
4490.26356445,0.00829100
4492.19237183,0.00830128
4494.12117920,0.00836901
4496.04998657,0.00839365
4497.97879395,0.00829517
4499.90760132,0.00826924
4501.83640869,0.00822665
4503.76521606,0.00818926
4505.69402344,0.00819733
4507.62283081,0.00820497
4509.55163818,0.00812403
4511.48044556,0.00810066
4513.40925293,0.00814745
4515.33806030,0.00805859
4517.26686768,0.00805729
4519.19567505,0.00810806
4521.12448242,0.00809917
4523.05328979,0.00803954
4524.98209717,0.00799711
4526.91090454,0.00799885
4528.83971191,0.00795826
4530.76851929,0.00791600
4532.69732666,0.00792279
4534.62613403,0.00797653
4536.55494141,0.00796018
4538.48374878,0.00789667
4540.41255615,0.00789064
4542.34136353,0.00793846
4544.27017090,0.00784167
4546.19897827,0.00787791
4548.12778564,0.00797908
4550.05659302,0.00775669
4551.98540039,0.00782305
4553.91420776,0.00788029
4555.84301514,0.00770668
4557.77182251,0.00771214
4559.70062988,0.00767845
4561.62943726,0.00765931
4563.55824463,0.00765974
4565.48705200,0.00767248
4567.41585937,0.00762963
4569.34466675,0.00759657
4571.27347412,0.00761799
4573.20228149,0.00757847
4575.13108887,0.00754612
4577.05989624,0.00750572
4578.98870361,0.00753039
4580.91751099,0.00758182
4582.84631836,0.00761578
4584.77512573,0.00749177
4586.70393311,0.00747535
4588.63274048,0.00749804
4590.56154785,0.00733906
4592.49035522,0.00743479
4594.41916260,0.00739579
4596.34796997,0.00733672
4598.27677734,0.00739562
4600.20558472,0.00730632
4602.13439209,0.00733273
4604.06319946,0.00735879
4605.99200684,0.00733733
4607.92081421,0.00723904
4609.84962158,0.00718578
4611.77842895,0.00719573
4613.70723633,0.00724608
4615.63604370,0.00722209
4617.56485107,0.00714021
4619.49365845,0.00723044
4621.42246582,0.00714470
4623.35127319,0.00718128
4625.28008057,0.00716573
4627.20888794,0.00704272
4629.13769531,0.00718756
4631.06650269,0.00711856
4632.99531006,0.00709481
4634.92411743,0.00706201
4636.85292480,0.00699252
4638.78173218,0.00708084
4640.71053955,0.00706849
4642.63934692,0.00703284
4644.56815430,0.00690165
4646.49696167,0.00687688
4648.42576904,0.00690683
4650.35457642,0.00686158
4652.28338379,0.00693538
4654.21219116,0.00695953
4656.14099853,0.00690342
4658.06980591,0.00683427
4659.99861328,0.00676342
4661.92742065,0.00680564
4663.85622803,0.00690891
4665.78503540,0.00683659
4667.71384277,0.00677525
4669.64265015,0.00678988
4671.57145752,0.00673901
4673.50026489,0.00675990
4675.42907227,0.00674841
4677.35787964,0.00674031
4679.28668701,0.00672729
4681.21549438,0.00668978
4683.14430176,0.00670713
4685.07310913,0.00661443
4687.00191650,0.00658143
4688.93072388,0.00663525
4690.85953125,0.00657749
4692.78833862,0.00654244
4694.71714600,0.00657282
4696.64595337,0.00655529
4698.57476074,0.00652084
4700.50356812,0.00652437
4702.43237549,0.00654084
4704.36118286,0.00649792
4706.28999023,0.00643303
4708.21879761,0.00648380
4710.14760498,0.00648084
4712.07641235,0.00644187
4714.00521973,0.00647311
4715.93402710,0.00640983
4717.86283447,0.00642547
4719.79164185,0.00638849
4721.72044922,0.00626981
4723.64925659,0.00639651
4725.57806396,0.00640707
4727.50687134,0.00628362
4729.43567871,0.00625558
4731.36448608,0.00624481
4733.29329346,0.00630630
4735.22210083,0.00632822
4737.15090820,0.00631485
4739.07971558,0.00621396
4741.00852295,0.00614902
4742.93733032,0.00624225
4744.86613770,0.00617397
4746.79494507,0.00614872
4748.72375244,0.00621548
4750.65255981,0.00611557
4752.58136719,0.00606613
4754.51017456,0.00617754
4756.43898193,0.00616372
4758.36778931,0.00604222
4760.29659668,0.00609002
4762.22540405,0.00611364
4764.15421143,0.00606407
4766.08301880,0.00600319
4768.01182617,0.00599114
4769.94063354,0.00601741
4771.86944092,0.00594479
4773.79824829,0.00599329
4775.72705566,0.00598683
4777.65586304,0.00599967
4779.58467041,0.00607298
4781.51347778,0.00591916
4783.44228516,0.00591207
4785.37109253,0.00596698
4787.29989990,0.00590481
4789.22870728,0.00587147
4791.15751465,0.00586352
4793.08632202,0.00589133
4795.01512939,0.00588829
4796.94393677,0.00588121
4798.87274414,0.00585695
4800.80155151,0.00582413
4802.73035889,0.00583208
4804.65916626,0.00579220
4806.58797363,0.00568285
4808.51678101,0.00572938
4810.44558838,0.00578578
4812.37439575,0.00564754
4814.30320312,0.00564493
4816.23201050,0.00568860
4818.16081787,0.00565727
4820.08962524,0.00568538
4822.01843262,0.00568941
4823.94723999,0.00564850
4825.87604736,0.00568619
4827.80485474,0.00566251
4829.73366211,0.00550421
4831.66246948,0.00559465
4833.59127686,0.00562891
4835.52008423,0.00553489
4837.44889160,0.00559059
4839.37769897,0.00552792
4841.30650635,0.00550937
4843.23531372,0.00547402
4845.16412109,0.00549567
4847.09292847,0.00556125
4849.02173584,0.00540457
4850.95054321,0.00543588
4852.87935059,0.00547424
4854.80815796,0.00544792
4856.73696533,0.00546735
4858.66577270,0.00536029
4860.59458008,0.00541848
4862.52338745,0.00541879
4864.45219482,0.00530354
4866.38100220,0.00534031
4868.30980957,0.00533064
4870.23861694,0.00531875
4872.16742432,0.00529366
4874.09623169,0.00526948
4876.02503906,0.00531797
4877.95384644,0.00526339
4879.88265381,0.00519373
4881.81146118,0.00522873
4883.74026855,0.00526382
4885.66907593,0.00520597
4887.59788330,0.00520005
4889.52669067,0.00523627
4891.45549805,0.00514026
4893.38430542,0.00511157
4895.31311279,0.00511440
4897.24192017,0.00507040
4899.17072754,0.00512302
4901.09953491,0.00515558
4903.02834228,0.00515805
4904.95714966,0.00509669
4906.88595703,0.00502579
4908.81476440,0.00512742
4910.74357178,0.00511041
4912.67237915,0.00503579
4914.60118652,0.00509741
4916.52999390,0.00504242
4918.45880127,0.00505080
4920.38760864,0.00504442
4922.31641602,0.00492105
4924.24522339,0.00493802
4926.17403076,0.00494896
4928.10283813,0.00494969
4930.03164551,0.00494359
4931.96045288,0.00498039
4933.88926025,0.00496823
4935.81806763,0.00487630
4937.74687500,0.00489387
4939.67568237,0.00483900
4941.60448975,0.00487089
4943.53329712,0.00489775
4945.46210449,0.00489119
4947.39091187,0.00485555
4949.31971924,0.00469857
4951.24852661,0.00481255
4953.17733398,0.00478272
4955.10614136,0.00470622
4957.03494873,0.00483630
4958.96375610,0.00480903
4960.89256348,0.00479901
4962.82137085,0.00471446
4964.75017822,0.00470172
4966.67898560,0.00478274
4968.60779297,0.00465756
4970.53660034,0.00463734
4972.46540771,0.00474300
4974.39421509,0.00465776
4976.32302246,0.00459493
4978.25182983,0.00466326
4980.18063721,0.00466604
4982.10944458,0.00467015
4984.03825195,0.00462986
4985.96705933,0.00459671
4987.89586670,0.00458204
4989.82467407,0.00459692
4991.75348145,0.00459850
4993.68228882,0.00452757
4995.61109619,0.00458696
4997.53990356,0.00456247
4999.46871094,0.00456211
5001.39751831,0.00452948
5003.32632568,0.00445726
5005.25513306,0.00457309
5007.18394043,0.00455096
5009.11274780,0.00452446
5011.04155518,0.00442948
5012.97036255,0.00439773
5014.89916992,0.00446914
5016.82797729,0.00438275
5018.75678467,0.00440431
5020.68559204,0.00441014
5022.61439941,0.00441731
5024.54320679,0.00441608
5026.47201416,0.00442345
5028.40082153,0.00443853
5030.32962891,0.00434218
5032.25843628,0.00433947
5034.18724365,0.00430002
5036.11605103,0.00427454
5038.04485840,0.00433129
5039.97366577,0.00432219
5041.90247314,0.00429170
5043.83128052,0.00428019
5045.76008789,0.00424854
5047.68889526,0.00424799
5049.61770264,0.00425057
5051.54651001,0.00420350
5053.47531738,0.00420880
5055.40412476,0.00419978
5057.33293213,0.00423041
5059.26173950,0.00416406
5061.19054687,0.00416089
5063.11935425,0.00425759
5065.04816162,0.00417553
5066.97696899,0.00419660
5068.90577637,0.00416147
5070.83458374,0.00419381
5072.76339111,0.00419986
5074.69219849,0.00408328
5076.62100586,0.00409417
5078.54981323,0.00403467
5080.47862061,0.00413675
5082.40742798,0.00411436
5084.33623535,0.00406153
5086.26504272,0.00411209
5088.19385010,0.00401809
5090.12265747,0.00403762
5092.05146484,0.00398113
5093.98027222,0.00397396
5095.90907959,0.00403248
5097.83788696,0.00398968
5099.76669434,0.00393517
5101.69550171,0.00400634
5103.62430908,0.00402564
5105.55311645,0.00392967
5107.48192383,0.00403935
5109.41073120,0.00398127
5111.33953857,0.00386503
5113.26834595,0.00384324
5115.19715332,0.00391683
5117.12596069,0.00396972
5119.05476807,0.00383616
5120.98357544,0.00388680
5122.91238281,0.00383845
5124.84119019,0.00387236
5126.76999756,0.00387343
5128.69880493,0.00376899
5130.62761230,0.00386280
5132.55641968,0.00382038
5134.48522705,0.00388087
5136.41403442,0.00381038
5138.34284180,0.00375158
5140.27164917,0.00382917
5142.20045654,0.00374570
5144.12926392,0.00378205
5146.05807129,0.00375307
5147.98687866,0.00375179
5149.91568603,0.00375499
5151.84449341,0.00370919
5153.77330078,0.00369740
5155.70210815,0.00364063
5157.63091553,0.00369255
5159.55972290,0.00370419
5161.48853027,0.00368173
5163.41733765,0.00367627
5165.34614502,0.00364424
5167.27495239,0.00366600
5169.20375977,0.00366152
5171.13256714,0.00359815
5173.06137451,0.00361267
5174.99018188,0.00362593
5176.91898926,0.00358538
5178.84779663,0.00355619
5180.77660400,0.00353721
5182.70541138,0.00360158
5184.63421875,0.00353225
5186.56302612,0.00354774
5188.49183350,0.00363354
5190.42064087,0.00347907
5192.34944824,0.00349170
5194.27825562,0.00356322
5196.20706299,0.00350996
5198.13587036,0.00345944
5200.06467773,0.00351714
5201.99348511,0.00354369
5203.92229248,0.00345239
5205.85109985,0.00343639
5207.77990723,0.00339313
5209.70871460,0.00343369
5211.63752197,0.00342630
5213.56632935,0.00337405
5215.49513672,0.00341213
5217.42394409,0.00338708
5219.35275146,0.00339592
5221.28155884,0.00341919
5223.21036621,0.00344562
5225.13917358,0.00336722
5227.06798096,0.00334233
5228.99678833,0.00339045
5230.92559570,0.00334747
5232.85440308,0.00332415
5234.78321045,0.00330395
5236.71201782,0.00338986
5238.64082520,0.00334279
5240.56963257,0.00330035
5242.49843994,0.00334700
5244.42724731,0.00323900
5246.35605469,0.00324999
5248.28486206,0.00320652
5250.21366943,0.00320897
5252.14247681,0.00333211
5254.07128418,0.00324460
5256.00009155,0.00315971
5257.92889893,0.00318725
5259.85770630,0.00323177
5261.78651367,0.00323443
5263.71532104,0.00320635
5265.64412842,0.00322228
5267.57293579,0.00325756
5269.50174316,0.00323556
5271.43055054,0.00314263
5273.35935791,0.00314044
5275.28816528,0.00319503
5277.21697266,0.00317109
5279.14578003,0.00318605
5281.07458740,0.00317953
5283.00339478,0.00315369
5284.93220215,0.00309127
5286.86100952,0.00304802
5288.78981689,0.00320775
5290.71862427,0.00315889
5292.64743164,0.00310015
5294.57623901,0.00316432
5296.50504639,0.00308279
5298.43385376,0.00310833
5300.36266113,0.00305669
5302.29146851,0.00303976
5304.22027588,0.00308652
5306.14908325,0.00307388
5308.07789062,0.00303244
5310.00669800,0.00294434
5311.93550537,0.00300508
5313.86431274,0.00298890
5315.79312012,0.00303109
5317.72192749,0.00302422
5319.65073486,0.00294830
5321.57954224,0.00300290
5323.50834961,0.00295213
5325.43715698,0.00300058
5327.36596436,0.00296276
5329.29477173,0.00295152
5331.22357910,0.00296327
5333.15238647,0.00287271
5335.08119385,0.00298383
5337.01000122,0.00290948
5338.93880859,0.00273955
5340.86761597,0.00281654
5342.79642334,0.00287924
5344.72523071,0.00272836
5346.65403809,0.00275868
5348.58284546,0.00288069
5350.51165283,0.00282919
5352.44046020,0.00281948
5354.36926758,0.00271581
5356.29807495,0.00281099
5358.22688232,0.00288481
5360.15568970,0.00278955
5362.08449707,0.00280532
5364.01330444,0.00272076
5365.94211182,0.00270612
5367.87091919,0.00272889
5369.79972656,0.00281631
5371.72853394,0.00285303
5373.65734131,0.00277736
5375.58614868,0.00272952
5377.51495605,0.00269940
5379.44376343,0.00273972
5381.37257080,0.00270933
5383.30137817,0.00279364
5385.23018555,0.00275544
5387.15899292,0.00265344
5389.08780029,0.00268705
5391.01660767,0.00268705
5392.94541504,0.00272018
5394.87422241,0.00259850
5396.80302978,0.00267340
5398.73183716,0.00269692
5400.66064453,0.00263255
5402.58945190,0.00272474
5404.51825928,0.00259805
5406.44706665,0.00263879
5408.37587402,0.00262189
5410.30468140,0.00263236
5412.23348877,0.00270635
5414.16229614,0.00251039
5416.09110352,0.00260156
5418.01991089,0.00266303
5419.94871826,0.00258953
5421.87752563,0.00263433
5423.80633301,0.00257914
5425.73514038,0.00253810
5427.66394775,0.00255480
5429.59275513,0.00256256
5431.52156250,0.00255715
5433.45036987,0.00258235
5435.37917725,0.00253349
5437.30798462,0.00251411
5439.23679199,0.00260522
5441.16559936,0.00252748
5443.09440674,0.00246673
5445.02321411,0.00248351
5446.95202148,0.00241100
5448.88082886,0.00244218
5450.80963623,0.00253004
5452.73844360,0.00252670
5454.66725098,0.00246438
5456.59605835,0.00247174
5458.52486572,0.00248927
5460.45367310,0.00241376
5462.38248047,0.00246015
5464.31128784,0.00244148
5466.24009521,0.00241500
5468.16890259,0.00249005
5470.09770996,0.00241302
5472.02651733,0.00246203
5473.95532471,0.00241276
5475.88413208,0.00234488
5477.81293945,0.00250260
5479.74174683,0.00246643
5481.67055420,0.00244915
5483.59936157,0.00240484
5485.52816895,0.00241452
5487.45697632,0.00246689
5489.38578369,0.00228807
5491.31459106,0.00230704
5493.24339844,0.00231857
5495.17220581,0.00233533
5497.10101318,0.00240201
5499.02982056,0.00228970
5500.95862793,0.00236342
5502.88743530,0.00233771
5504.81624268,0.00226434
5506.74505005,0.00232074
5508.67385742,0.00230221
5510.60266479,0.00239046
5512.53147217,0.00229755
5514.46027954,0.00220951
5516.38908691,0.00228911
5518.31789429,0.00223331
5520.24670166,0.00225426
5522.17550903,0.00225512
5524.10431641,0.00228907
5526.03312378,0.00233086
5527.96193115,0.00225014
5529.89073853,0.00226091
5531.81954590,0.00220937
5533.74835327,0.00219451
5535.67716064,0.00224171
5537.60596802,0.00222035
5539.53477539,0.00223834
5541.46358276,0.00220030
5543.39239014,0.00215456
5545.32119751,0.00214873
5547.25000488,0.00217043
5549.17881226,0.00220332
5551.10761963,0.00219673
5553.03642700,0.00221497
5554.96523437,0.00219561
5556.89404175,0.00215524
5558.82284912,0.00215783
5560.75165649,0.00216134
5562.68046387,0.00219404
5564.60927124,0.00218153
5566.53807861,0.00214354
5568.46688599,0.00214317
5570.39569336,0.00209897
5572.32450073,0.00213557
5574.25330811,0.00217953
5576.18211548,0.00212956
5578.11092285,0.00214505
5580.03973022,0.00216759
5581.96853760,0.00215086
5583.89734497,0.00210184
5585.82615234,0.00209164
5587.75495972,0.00209815
5589.68376709,0.00206421
5591.61257446,0.00209329
5593.54138184,0.00210538
5595.47018921,0.00209350
5597.39899658,0.00207211
5599.32780395,0.00201809
5601.25661133,0.00203069
5603.18541870,0.00207970
5605.11422607,0.00202960
5607.04303345,0.00203074
5608.97184082,0.00209135
5610.90064819,0.00200352
5612.82945557,0.00197864
5614.75826294,0.00198451
5616.68707031,0.00197719
5618.61587769,0.00197743
5620.54468506,0.00193893
5622.47349243,0.00198701
5624.40229980,0.00202484
5626.33110718,0.00202598
5628.25991455,0.00187610
5630.18872192,0.00189444
5632.11752930,0.00201226
5634.04633667,0.00192904
5635.97514404,0.00201451
5637.90395142,0.00199117
5639.83275879,0.00197743
5641.76156616,0.00194008
5643.69037353,0.00187976
5645.61918091,0.00201388
5647.54798828,0.00186766
5649.47679565,0.00188096
5651.40560303,0.00196451
5653.33441040,0.00184044
5655.26321777,0.00184882
5657.19202515,0.00187207
5659.12083252,0.00189236
5661.04963989,0.00189166
5662.97844727,0.00194568
5664.90725464,0.00193260
5666.83606201,0.00188622
5668.76486938,0.00192495
5670.69367676,0.00189811
5672.62248413,0.00183469
5674.55129150,0.00183468
5676.48009888,0.00188631
5678.40890625,0.00183818
5680.33771362,0.00182573
5682.26652100,0.00181205
5684.19532837,0.00184013
5686.12413574,0.00182093
5688.05294311,0.00173657
5689.98175049,0.00183069
5691.91055786,0.00175140
5693.83936523,0.00177115
5695.76817261,0.00178587
5697.69697998,0.00170159
5699.62578735,0.00182786
5701.55459473,0.00178219
5703.48340210,0.00179340
5705.41220947,0.00177152
5707.34101685,0.00172158
5709.26982422,0.00178900
5711.19863159,0.00174078
5713.12743896,0.00177719
5715.05624634,0.00173902
5716.98505371,0.00168477
5718.91386108,0.00172563
5720.84266846,0.00174216
5722.77147583,0.00172493
5724.70028320,0.00165380
5726.62909058,0.00164825
5728.55789795,0.00165388
5730.48670532,0.00169465
5732.41551270,0.00175420
5734.34432007,0.00170639
5736.27312744,0.00165062
5738.20193481,0.00167968
5740.13074219,0.00166132
5742.05954956,0.00163616
5743.98835693,0.00169790
5745.91716431,0.00167572
5747.84597168,0.00167273
5749.77477905,0.00169802
5751.70358643,0.00166027
5753.63239380,0.00164273
5755.56120117,0.00163167
5757.49000854,0.00163562
5759.41881592,0.00162887
5761.34762329,0.00164140
5763.27643066,0.00163111
5765.20523804,0.00156096
5767.13404541,0.00161126
5769.06285278,0.00169731
5770.99166016,0.00162664
5772.92046753,0.00159811
5774.84927490,0.00166883
5776.77808228,0.00167458
5778.70688965,0.00165608
5780.63569702,0.00158321
5782.56450439,0.00149126
5784.49331177,0.00154714
5786.42211914,0.00160928
5788.35092651,0.00155812
5790.27973389,0.00159947
5792.20854126,0.00157028
5794.13734863,0.00148491
5796.06615601,0.00159058
5797.99496338,0.00154973
5799.92377075,0.00149847
5801.85257812,0.00153921
5803.78138550,0.00149460
5805.71019287,0.00148940
5807.63900024,0.00148366
5809.56780762,0.00150628
5811.49661499,0.00148624
5813.42542236,0.00149815
5815.35422974,0.00150059
5817.28303711,0.00148186
5819.21184448,0.00150887
5821.14065186,0.00138835
5823.06945923,0.00145036
5824.99826660,0.00156036
5826.92707397,0.00148528
5828.85588135,0.00143380
5830.78468872,0.00140357
5832.71349609,0.00146407
5834.64230347,0.00147666
5836.57111084,0.00145265
5838.49991821,0.00147247
5840.42872559,0.00146552
5842.35753296,0.00143181
5844.28634033,0.00144500
5846.21514770,0.00146240
5848.14395508,0.00140512
5850.07276245,0.00144055
5852.00156982,0.00145553
5853.93037720,0.00143773
5855.85918457,0.00142151
5857.78799194,0.00138095
5859.71679932,0.00139827
5861.64560669,0.00140081
5863.57441406,0.00142202
5865.50322144,0.00138918
5867.43202881,0.00139300
5869.36083618,0.00140206
5871.28964355,0.00134871
5873.21845093,0.00138398
5875.14725830,0.00137125
5877.07606567,0.00133285
5879.00487305,0.00130074
5880.93368042,0.00133380
5882.86248779,0.00135997
5884.79129517,0.00131793
5886.72010254,0.00136338
5888.64890991,0.00135870
5890.57771728,0.00134203
5892.50652466,0.00131217
5894.43533203,0.00129357
5896.36413940,0.00136121
5898.29294678,0.00137130
5900.22175415,0.00136084
5902.15056152,0.00133041
5904.07936890,0.00132588
5906.00817627,0.00130117
5907.93698364,0.00126131
5909.86579102,0.00129993
5911.79459839,0.00127736
5913.72340576,0.00128631
5915.65221313,0.00129833
5917.58102051,0.00127780
5919.50982788,0.00129503
5921.43863525,0.00124334
5923.36744263,0.00124797
5925.29625000,0.00127290
5927.22505737,0.00132218
5929.15386475,0.00134620
5931.08267212,0.00121817
5933.01147949,0.00124796
5934.94028686,0.00127904
5936.86909424,0.00121506
5938.79790161,0.00120290
5940.72670898,0.00118226
5942.65551636,0.00123429
5944.58432373,0.00122903
5946.51313110,0.00123433
5948.44193848,0.00122594
5950.37074585,0.00116265
5952.29955322,0.00122014
5954.22836060,0.00121878
5956.15716797,0.00120390
5958.08597534,0.00125217
5960.01478271,0.00123391
5961.94359009,0.00117593
5963.87239746,0.00119721
5965.80120483,0.00120450
5967.73001221,0.00117151
5969.65881958,0.00119282
5971.58762695,0.00117416
5973.51643433,0.00115781
5975.44524170,0.00111679
5977.37404907,0.00116736
5979.30285645,0.00119697
5981.23166382,0.00113632
5983.16047119,0.00117354
5985.08927856,0.00110505
5987.01808594,0.00115227
5988.94689331,0.00115636
5990.87570068,0.00108341
5992.80450806,0.00116972
5994.73331543,0.00113107
5996.66212280,0.00116399
5998.59093018,0.00114664
6000.51973755,0.00111424
