399.26312622,-0.00006596
401.19193359,0.00024075
403.12074097,0.00055224
405.04954834,0.00026140
406.97835571,0.00018951
408.90716309,0.00018658
410.83597046,0.00025157
412.76477783,0.00050259
414.69358521,0.00041212
416.62239258,0.00044884
418.55119995,0.00083907
420.48000732,0.00054547
422.40881470,0.00043243
424.33762207,0.00019409
426.26642944,0.00000574
428.19523682,0.00035528
430.12404419,0.00008120
432.05285156,0.00026237
433.98165894,0.00036460
435.91046631,0.00053020
437.83927368,0.00085156
439.76808105,0.00043094
441.69688843,0.00054818
443.62569580,0.00029316
445.55450317,0.00014709
447.48331055,0.00025383
449.41211792,0.00028941
451.34092529,0.00049982
453.26973267,0.00018300
455.19854004,0.00057076
457.12734741,0.00050415
459.05615479,0.00017086
460.98496216,0.00037684
462.91376953,0.00034791
464.84257690,0.00029564
466.77138428,0.00001922
468.70019165,0.00040584
470.62899902,0.00029385
472.55780640,-0.00018784
474.48661377,0.00018004
476.41542114,0.00014925
478.34422852,0.00024070
480.27303589,0.00061878
482.20184326,0.00035632
484.13065063,0.00007652
486.05945801,0.00015446
487.98826538,0.00018140
489.91707275,0.00036217
491.84588013,0.00010812
493.77468750,0.00005965
495.70349487,0.00029417
497.63230225,0.00008876
499.56110962,0.00030505
501.48991699,0.00015184
503.41872437,0.00015463
505.34753174,0.00047459
507.27633911,-0.00004494
509.20514648,-0.00023063
511.13395386,0.00024064
513.06276123,0.00057133
514.99156860,0.00017193
516.92037598,-0.00020846
518.84918335,0.00033268
520.77799072,0.00027332
522.70679810,-0.00014442
524.63560547,0.00014520
526.56441284,0.00032148
528.49322021,0.00006756
530.42202759,-0.00023956
532.35083496,0.00011143
534.27964233,0.00022359
536.20844971,0.00021997
538.13725708,0.00086172
540.06606445,0.00056435
541.99487183,0.00021588
543.92367920,0.00016522
545.85248657,-0.00011235
547.78129395,0.00011292
549.71010132,0.00014996
551.63890869,0.00007910
553.56771606,0.00022822
555.49652344,0.00032533
557.42533081,0.00002864
559.35413818,0.00013035
561.28294556,0.00039291
563.21175293,-0.00005568
565.14056030,0.00007570
567.06936768,0.00000751
568.99817505,-0.00006122
570.92698242,0.00021794
572.85578979,-0.00002484
574.78459717,0.00003384
576.71340454,0.00000719
578.64221191,0.00024642
580.57101929,0.00031408
582.49982666,-0.00011825
584.42863403,0.00032564
586.35744141,0.00018783
588.28624878,-0.00034149
590.21505615,-0.00007076
592.14386353,0.00000415
594.07267090,-0.00000861
596.00147827,0.00012337
597.93028564,-0.00002254
599.85909302,0.00021155
601.78790039,0.00044793
603.71670776,0.00015193
605.64551514,0.00025979
607.57432251,-0.00000270
609.50312988,0.00002326
611.43193726,0.00049285
613.36074463,-0.00001165
615.28955200,-0.00007397
617.21835938,0.00013708
619.14716675,-0.00022326
621.07597412,0.00018185
623.00478149,0.00029889
624.93358887,0.00003931
626.86239624,0.00024105
628.79120361,-0.00016855
630.72001099,0.00012645
632.64881836,0.00019605
634.57762573,0.00007029
636.50643311,0.00036058
638.43524048,0.00008078
640.36404785,0.00020183
642.29285522,0.00044969
644.22166260,0.00039413
646.15046997,0.00048642
648.07927734,0.00056092
650.00808472,0.00057275
651.93689209,0.00081594
653.86569946,0.00076609
655.79450684,0.00052065
657.72331421,0.00066464
659.65212158,0.00060414
661.58092896,0.00071463
663.50973633,0.00073669
665.43854370,0.00072220
667.36735107,0.00076840
669.29615845,0.00063099
671.22496582,0.00089601
673.15377319,0.00095087
675.08258057,0.00081935
677.01138794,0.00083128
678.94019531,0.00111997
680.86900269,0.00104546
682.79781006,0.00099029
684.72661743,0.00136479
686.65542480,0.00104244
688.58423218,0.00120454
690.51303955,0.00144882
692.44184692,0.00124871
694.37065430,0.00122075
696.29946167,0.00133459
698.22826904,0.00165856
700.15707642,0.00168156
702.08588379,0.00185766
704.01469116,0.00160347
705.94349854,0.00129565
707.87230591,0.00123649
709.80111328,0.00097507
711.72992065,0.00095900
713.65872803,0.00040212
715.58753540,0.00005023
717.51634277,0.00006977
719.44515015,0.00004494
721.37395752,0.00011866
723.30276489,0.00009938
725.23157227,0.00012017
727.16037964,0.00000153
729.08918701,0.00012976
731.01799438,0.00004071
732.94680176,-0.00007638
734.87560913,-0.00004253
736.80441650,0.00025519
738.73322388,0.00035601
740.66203125,0.00005903
742.59083862,0.00010589
744.51964600,0.00013406
746.44845337,-0.00001603
748.37726074,0.00002631
750.30606812,0.00009344
752.23487549,0.00005974
754.16368286,0.00021644
756.09249023,0.00022338
758.02129761,0.00009513
759.95010498,0.00007541
761.87891235,0.00027469
763.80771973,0.00023398
765.73652710,-0.00003134
767.66533447,0.00017669
769.59414185,0.00035404
771.52294922,0.00030209
773.45175659,0.00023768
775.38056396,0.00032447
777.30937134,0.00037957
779.23817871,0.00007701
781.16698608,-0.00000755
783.09579346,-0.00004014
785.02460083,0.00014129
786.95340820,0.00013343
788.88221558,-0.00023628
790.81102295,0.00015597
792.73983032,0.00010267
794.66863770,-0.00001459
796.59744507,0.00039048
798.52625244,0.00030896
800.45505981,0.00029154
802.38386719,0.00024565
804.31267456,0.00027686
806.24148193,0.00017191
808.17028931,0.00022330
810.09909668,0.00056940
812.02790405,0.00016055
813.95671143,0.00006821
815.88551880,0.00041587
817.81432617,0.00025279
819.74313354,0.00003845
821.67194092,0.00030395
823.60074829,0.00018259
825.52955566,-0.00006411
827.45836304,0.00046128
829.38717041,0.00032865
831.31597778,0.00037176
833.24478516,0.00070676
835.17359253,0.00038393
837.10239990,0.00057914
839.03120728,0.00060394
840.96001465,0.00042427
842.88882202,0.00045179
844.81762939,0.00037276
846.74643677,0.00044348
848.67524414,0.00041906
850.60405151,0.00020408
852.53285889,0.00016103
854.46166626,0.00032801
856.39047363,0.00011514
858.31928101,0.00002942
860.24808838,0.00025838
862.17689575,0.00007726
864.10570313,-0.00002874
866.03451050,0.00009397
867.96331787,0.00018047
869.89212524,0.00024342
871.82093262,0.00009761
873.74973999,0.00009228
875.67854736,0.00020765
877.60735474,0.00013663
879.53616211,0.00019496
881.46496948,0.00045961
883.39377686,0.00044677
885.32258423,-0.00004721
887.25139160,-0.00000479
889.18019897,0.00029998
891.10900635,0.00034066
893.03781372,0.00051478
894.96662109,0.00023124
896.89542847,0.00010752
898.82423584,0.00039009
900.75304321,0.00028265
902.68185059,0.00020447
904.61065796,0.00007696
906.53946533,0.00005852
908.46827271,0.00030156
910.39708008,0.00037506
912.32588745,0.00048848
914.25469482,0.00052772
916.18350220,0.00056722
918.11230957,0.00048074
920.04111694,0.00049127
921.96992432,0.00058276
923.89873169,0.00039074
925.82753906,0.00082028
927.75634644,0.00082126
929.68515381,0.00041928
931.61396118,0.00056917
933.54276855,0.00036575
935.47157593,0.00056181
937.40038330,0.00090045
939.32919067,0.00072783
941.25799805,0.00081369
943.18680542,0.00073575
945.11561279,0.00060411
947.04442017,0.00079130
948.97322754,0.00071806
950.90203491,0.00049958
952.83084229,0.00054557
954.75964966,0.00073413
956.68845703,0.00068759
958.61726440,0.00072353
960.54607178,0.00095747
962.47487915,0.00063424
964.40368652,0.00069623
966.33249390,0.00106062
968.26130127,0.00082763
970.19010864,0.00092928
972.11891602,0.00097412
974.04772339,0.00085036
975.97653076,0.00087031
977.90533813,0.00107576
979.83414551,0.00136125
981.76295288,0.00117642
983.69176025,0.00137120
985.62056763,0.00153947
987.54937500,0.00141047
989.47818237,0.00166907
991.40698975,0.00197059
993.33579712,0.00236724
995.26460449,0.00243433
997.19341187,0.00227549
999.12221924,0.00266464
1001.05102661,0.00311825
1002.97983398,0.00314636
1004.90864136,0.00350575
1006.83744873,0.00375358
1008.76625610,0.00348710
1010.69506348,0.00398515
1012.62387085,0.00442820
1014.55267822,0.00449105
1016.48148560,0.00467819
1018.41029297,0.00459441
1020.33910034,0.00484716
1022.26790771,0.00527230
1024.19671509,0.00541873
1026.12552246,0.00544869
1028.05432983,0.00584645
1029.98313721,0.00614638
1031.91194458,0.00598610
1033.84075195,0.00623333
1035.76955933,0.00639957
1037.69836670,0.00642573
1039.62717407,0.00655774
1041.55598145,0.00664367
1043.48478882,0.00655536
1045.41359619,0.00626262
1047.34240356,0.00634947
1049.27121094,0.00621465
1051.20001831,0.00600162
1053.12882568,0.00605539
1055.05763306,0.00604516
1056.98644043,0.00600203
1058.91524780,0.00564337
1060.84405518,0.00556720
1062.77286255,0.00547303
1064.70166992,0.00516349
1066.63047729,0.00507817
1068.55928467,0.00471162
1070.48809204,0.00447753
1072.41689941,0.00432014
1074.34570679,0.00410333
1076.27451416,0.00414018
1078.20332153,0.00400207
1080.13212891,0.00387841
1082.06093628,0.00359772
1083.98974365,0.00320583
1085.91855103,0.00330478
1087.84735840,0.00301006
1089.77616577,0.00279344
1091.70497314,0.00307842
1093.63378052,0.00266013
1095.56258789,0.00263129
1097.49139526,0.00291729
1099.42020264,0.00258182
1101.34901001,0.00256103
1103.27781738,0.00255875
1105.20662476,0.00231167
1107.13543213,0.00241671
1109.06423950,0.00256774
1110.99304687,0.00222163
1112.92185425,0.00223262
1114.85066162,0.00242418
1116.77946899,0.00220938
1118.70827637,0.00240157
1120.63708374,0.00241523
1122.56589111,0.00236281
1124.49469849,0.00248292
1126.42350586,0.00243802
1128.35231323,0.00254825
1130.28112061,0.00242219
1132.20992798,0.00242235
1134.13873535,0.00272911
1136.06754272,0.00286555
1137.99635010,0.00285118
1139.92515747,0.00310246
1141.85396484,0.00334540
1143.78277222,0.00335629
1145.71157959,0.00362974
1147.64038696,0.00380174
1149.56919434,0.00412627
1151.49800171,0.00431938
1153.42680908,0.00441618
1155.35561646,0.00479646
1157.28442383,0.00468554
1159.21323120,0.00497357
1161.14203857,0.00534079
1163.07084595,0.00521543
1164.99965332,0.00563206
1166.92846069,0.00619010
1168.85726807,0.00624428
1170.78607544,0.00614707
1172.71488281,0.00648488
1174.64369019,0.00684748
1176.57249756,0.00695093
1178.50130493,0.00729240
1180.43011230,0.00773138
1182.35891968,0.00794820
1184.28772705,0.00831288
1186.21653442,0.00872755
1188.14534180,0.00902412
1190.07414917,0.00952797
1192.00295654,0.00992262
1193.93176392,0.01037818
1195.86057129,0.01079893
1197.78937866,0.01134682
1199.71818604,0.01199921
1201.64699341,0.01232769
1203.57580078,0.01303107
1205.50460815,0.01347280
1207.43341553,0.01385399
1209.36222290,0.01438334
1211.29103027,0.01481574
1213.21983765,0.01541740
1215.14864502,0.01547190
1217.07745239,0.01593214
1219.00625977,0.01642995
1220.93506714,0.01649627
1222.86387451,0.01674161
1224.79268188,0.01678934
1226.72148926,0.01718200
1228.65029663,0.01736746
1230.57910400,0.01721166
1232.50791138,0.01730914
1234.43671875,0.01742783
1236.36552612,0.01735322
1238.29433350,0.01731684
1240.22314087,0.01747718
1242.15194824,0.01723548
1244.08075562,0.01709682
1246.00956299,0.01714444
1247.93837036,0.01707929
1249.86717773,0.01712933
1251.79598511,0.01695124
1253.72479248,0.01670957
1255.65359985,0.01662100
1257.58240723,0.01635255
1259.51121460,0.01598657
1261.44002197,0.01589198
1263.36882935,0.01569280
1265.29763672,0.01553240
1267.22644409,0.01536895
1269.15525146,0.01505094
1271.08405884,0.01486821
1273.01286621,0.01456769
1274.94167358,0.01456044
1276.87048096,0.01417055
1278.79928833,0.01360698
1280.72809570,0.01361930
1282.65690308,0.01344775
1284.58571045,0.01336532
1286.51451782,0.01294537
1288.44332520,0.01249523
1290.37213257,0.01257724
1292.30093994,0.01261802
1294.22974731,0.01252387
1296.15855469,0.01228689
1298.08736206,0.01242124
1300.01616943,0.01248965
1301.94497681,0.01238260
1303.87378418,0.01260775
1305.80259155,0.01274719
1307.73139893,0.01291427
1309.66020630,0.01314712
1311.58901367,0.01331057
1313.51782104,0.01358855
1315.44662842,0.01399754
1317.37543579,0.01437577
1319.30424316,0.01473154
1321.23305054,0.01515383
1323.16185791,0.01561393
1325.09066528,0.01612951
1327.01947266,0.01659102
1328.94828003,0.01691040
1330.87708740,0.01738471
1332.80589478,0.01786254
1334.73470215,0.01802975
1336.66350952,0.01834601
1338.59231689,0.01847455
1340.52112427,0.01866743
1342.44993164,0.01928810
1344.37873901,0.01946422
1346.30754639,0.01954599
1348.23635376,0.01943921
1350.16516113,0.01930019
1352.09396851,0.01933847
1354.02277588,0.01903618
1355.95158325,0.01881857
1357.88039062,0.01858035
1359.80919800,0.01842360
1361.73800537,0.01771554
1363.66681274,0.01740832
1365.59562012,0.01827907
1367.52442749,0.01797064
1369.45323486,0.01789913
1371.38204224,0.01808856
1373.31084961,0.01726581
1375.23965698,0.01753008
1377.16846436,0.01789330
1379.09727173,0.01763963
1381.02607910,0.01769914
1382.95488647,0.01781984
1384.88369385,0.01760870
1386.81250122,0.01692339
1388.74130859,0.01723288
1390.67011597,0.01867170
1392.59892334,0.01832381
1394.52773071,0.01710277
1396.45653809,0.01798459
1398.38534546,0.01787984
1400.31415283,0.01782689
1402.24296021,0.01912457
1404.17176758,0.01811029
1406.10057495,0.01846224
1408.02938232,0.01902661
1409.95818970,0.01827107
1411.88699707,0.01868708
1413.81580444,0.01822235
1415.74461182,0.01840566
1417.67341919,0.01655283
1419.60222656,0.01499423
1421.53103394,0.01728590
1423.45984131,0.01690574
1425.38864868,0.01604854
1427.31745605,0.01631024
1429.24626343,0.01535467
1431.17507080,0.01486611
1433.10387817,0.01520835
1435.03268555,0.01378956
1436.96149292,0.01173766
1438.89030029,0.01323599
1440.81910767,0.01361687
1442.74791504,0.01278007
1444.67672241,0.01320899
1446.60552979,0.01226020
1448.53433716,0.01250172
1450.46314453,0.01294711
1452.39195190,0.01314896
1454.32075928,0.01358120
1456.24956665,0.01144965
1458.17837402,0.01187367
1460.10718140,0.01566007
1462.03598877,0.01673246
1463.96479614,0.01670119
1465.89360352,0.01725340
1467.82241089,0.01950518
1469.75121826,0.02122056
1471.68002563,0.01880655
1473.60883301,0.01965224
1475.53764038,0.02260939
1477.46644775,0.02431593
1479.39525513,0.02666013
1481.32406250,0.02693423
1483.25286987,0.02864794
1485.18167725,0.02971011
1487.11048462,0.02922526
1489.03929199,0.02910237
1490.96809937,0.02921528
1492.89690674,0.03392905
1494.82571411,0.03317828
1496.75452148,0.02993360
1498.68332886,0.03400914
1500.61213623,0.03498267
1502.54094360,0.03728838
1504.46975098,0.03530534
1506.39855835,0.02609398
1508.32736572,0.03167186
1510.25617310,0.03685556
1512.18498047,0.03595025
1514.11378784,0.03892053
1516.04259521,0.03519626
1517.97140259,0.03684139
1519.90020996,0.03539693
1521.82901733,0.03087355
1523.75782471,0.03774598
1525.68663208,0.03701126
1527.61543945,0.03687389
1529.54424683,0.04074294
1531.47305420,0.03932996
1533.40186157,0.03607961
1535.33066895,0.03817958
1537.25947632,0.04076970
1539.18828369,0.02960604
1541.11709106,0.03112438
1543.04589844,0.03686683
1544.97470581,0.03534008
1546.90351318,0.04166617
1548.83232056,0.03895229
1550.76112793,0.04003540
1552.68993530,0.03982241
1554.61874268,0.03655294
1556.54755005,0.03909057
1558.47635742,0.02814174
1560.40516479,0.03030683
1562.33397217,0.04222254
1564.26277954,0.03997295
1566.19158691,0.04108409
1568.12039429,0.04075614
1570.04920166,0.03651859
1571.97800903,0.04189368
1573.90681641,0.04204171
1575.83562378,0.03384682
1577.76443115,0.03825758
1579.69323853,0.04270012
1581.62204590,0.04114406
1583.55085327,0.04213264
1585.47966064,0.04139347
1587.40846802,0.04191555
1589.33727539,0.04159141
1591.26608276,0.04170146
1593.19489014,0.04185999
1595.12369751,0.04125316
1597.05250488,0.04187201
1598.98131226,0.04177397
1600.91011963,0.04176653
1602.83892700,0.04108390
1604.76773437,0.04208413
1606.69654175,0.04139296
1608.62534912,0.04130179
1610.55415649,0.04131763
1612.48296387,0.04157520
1614.41177124,0.04213158
1616.34057861,0.03487014
1618.26938599,0.03780715
1620.19819336,0.04353739
1622.12700073,0.03899258
1624.05580811,0.03927914
1625.98461548,0.04094528
1627.91342285,0.04087406
1629.84223022,0.04060290
1631.77103760,0.04319734
1633.69984497,0.04016075
1635.62865234,0.03354936
1637.55745972,0.03877226
1639.48626709,0.04236004
1641.41507446,0.04124103
1643.34388184,0.04252703
1645.27268921,0.03852598
1647.20149658,0.03410522
1649.13030396,0.04214792
1651.05911133,0.03969883
1652.98791870,0.02627485
1654.91672607,0.03551298
1656.84553345,0.04374301
1658.77434082,0.04180157
1660.70314819,0.04308185
1662.63195557,0.03938419
1664.56076294,0.04139537
1666.48957031,0.04415844
1668.41837769,0.03882618
1670.34718506,0.03807665
1672.27599243,0.04290500
1674.20479980,0.03971981
1676.13360718,0.03825119
1678.06241455,0.04362505
1679.99122192,0.04211783
1681.92002930,0.04170028
1683.84883667,0.03415111
1685.77764404,0.03402700
1687.70645142,0.04602926
1689.63525879,0.04018212
1691.56406616,0.04400092
1693.49287354,0.04464267
1695.42168091,0.03326587
1697.35048828,0.04080943
1699.27929565,0.03599714
1701.20810303,0.03257359
1703.13691040,0.04373713
1705.06571777,0.04039428
1706.99452515,0.04070479
1708.92333252,0.04406970
1710.85213989,0.04251666
1712.78094727,0.04309537
1714.70975464,0.04009448
1716.63856201,0.03623295
1718.56736938,0.03575615
1720.49617676,0.04210294
1722.42498413,0.04343252
1724.35379150,0.04061376
1726.28259888,0.04425504
1728.21140625,0.04083019
1730.14021362,0.04120067
1732.06902100,0.04010647
1733.99782837,0.03092147
1735.92663574,0.03836575
1737.85544312,0.04213038
1739.78425049,0.03764547
1741.71305786,0.04090031
1743.64186523,0.04147687
1745.57067261,0.04175446
1747.49947998,0.04206008
1749.42828735,0.04033035
1751.35709473,0.03873585
1753.28590210,0.04275376
1755.21470947,0.04464003
1757.14351685,0.04079675
1759.07232422,0.04465711
1761.00113159,0.04206001
1762.92993896,0.04078026
1764.85874634,0.04629193
1766.78755371,0.04186616
1768.71636108,0.04250057
1770.64516846,0.04223955
1772.57397583,0.03819940
1774.50278320,0.04233915
1776.43159058,0.04462937
1778.36039795,0.04402094
1780.28920532,0.04347030
1782.21801270,0.04390289
1784.14682007,0.04391930
1786.07562744,0.04325338
1788.00443481,0.04525276
1789.93324219,0.04419894
1791.86204956,0.04031494
1793.79085693,0.04187027
1795.71966431,0.04488716
1797.64847168,0.04433714
1799.57727905,0.04374196
1801.50608643,0.04299468
1803.43489380,0.04427520
1805.36370117,0.04528799
1807.29250854,0.04477356
1809.22131592,0.04503994
1811.15012329,0.04391310
1813.07893066,0.04526723
1815.00773804,0.04534936
1816.93654541,0.04487394
1818.86535278,0.04539771
1820.79416016,0.04511552
1822.72296753,0.04580893
1824.65177490,0.04290640
1826.58058228,0.04441322
1828.50938965,0.04464418
1830.43819702,0.04199952
1832.36700439,0.04560070
1834.29581177,0.04532034
1836.22461914,0.04529648
1838.15342651,0.04515111
1840.08223389,0.04548145
1842.01104126,0.04551645
1843.93984863,0.04044120
1845.86865601,0.04319278
1847.79746338,0.04553315
1849.72627075,0.04450358
1851.65507812,0.04587455
1853.58388550,0.04508512
1855.51269287,0.04560714
1857.44150024,0.04535168
1859.37030762,0.04511578
1861.29911499,0.04538406
1863.22792236,0.04490019
1865.15672974,0.04548347
1867.08553711,0.04406357
1869.01434448,0.04231414
1870.94315186,0.04388471
1872.87195923,0.04564783
1874.80076660,0.04492723
1876.72957397,0.04508473
1878.65838135,0.04502999
1880.58718872,0.04469297
1882.51599609,0.04520423
1884.44480347,0.04456627
1886.37361084,0.04506893
1888.30241821,0.04412961
1890.23122559,0.04333150
1892.16003296,0.04487474
1894.08884033,0.04435895
1896.01764771,0.04437009
1897.94645508,0.04470110
1899.87526245,0.04447490
1901.80406982,0.04475909
1903.73287720,0.04442121
1905.66168457,0.04455143
1907.59049194,0.04413576
1909.51929932,0.04401503
1911.44810669,0.04434862
1913.37691406,0.04433221
1915.30572144,0.04468771
1917.23452881,0.04289854
1919.16333618,0.04294467
1921.09214355,0.04445954
1923.02095093,0.04320573
1924.94975830,0.04399575
1926.87856567,0.04454327
1928.80737305,0.04415750
1930.73618042,0.04457857
1932.66498779,0.04403417
1934.59379517,0.04452143
1936.52260254,0.04422931
1938.45140991,0.04433177
1940.38021729,0.04432022
1942.30902466,0.04295368
1944.23783203,0.04381442
1946.16663940,0.04429816
1948.09544678,0.04422661
1950.02425415,0.04445979
1951.95306152,0.04430265
1953.88186890,0.04445657
1955.81067627,0.04430148
1957.73948364,0.04435401
1959.66829102,0.04424754
1961.59709839,0.04412126
1963.52590576,0.04422209
1965.45471313,0.04404281
1967.38352051,0.04380742
1969.31232788,0.04409721
1971.24113525,0.04439779
1973.16994263,0.04417640
1975.09875000,0.04439365
1977.02755737,0.04433218
1978.95636475,0.04429411
1980.88517212,0.04430848
1982.81397949,0.04408112
1984.74278687,0.04416072
1986.67159424,0.04396755
1988.60040161,0.04414244
1990.52920898,0.04369324
1992.45801636,0.04326425
1994.38682373,0.04400764
1996.31563110,0.04395437
1998.24443848,0.04371402
2000.17324585,0.04375210
2002.10205322,0.04368698
2004.03086060,0.04372204
2005.95966797,0.04349992
2007.88847534,0.04356945
2009.81728271,0.04375795
2011.74609009,0.04351916
2013.67489746,0.04344574
2015.60370483,0.04318367
2017.53251221,0.04290891
2019.46131958,0.04324169
2021.39012695,0.04317207
2023.31893433,0.04290272
2025.24774170,0.04294807
2027.17654907,0.04296486
2029.10535645,0.04281271
2031.03416382,0.04279051
2032.96297119,0.04300118
2034.89177856,0.04276094
2036.82058594,0.04268051
2038.74939331,0.04265368
2040.67820068,0.04236684
2042.60700806,0.04245843
2044.53581543,0.04242923
2046.46462280,0.04236037
2048.39343018,0.04237306
2050.32223755,0.04223537
2052.25104492,0.04216243
2054.17985229,0.04216947
2056.10865967,0.04208308
2058.03746704,0.04203605
2059.96627441,0.04200604
2061.89508179,0.04182737
2063.82388916,0.04177485
2065.75269653,0.04166341
2067.68150391,0.04168454
2069.61031128,0.04180517
2071.53911865,0.04168686
2073.46792603,0.04161137
2075.39673340,0.04157271
2077.32554077,0.04153094
2079.25434814,0.04143479
2081.18315552,0.04150052
2083.11196289,0.04135709
2085.04077026,0.04110933
2086.96957764,0.04130331
2088.89838501,0.04124519
2090.82719238,0.04114101
2092.75599976,0.04115509
2094.68480713,0.04104494
2096.61361450,0.04103326
2098.54242187,0.04099841
2100.47122925,0.04093423
2102.40003662,0.04083137
2104.32884399,0.04081696
2106.25765137,0.04090413
2108.18645874,0.04087172
2110.11526611,0.04082102
2112.04407349,0.04082923
2113.97288086,0.04076936
2115.90168823,0.04062738
2117.83049561,0.04059049
2119.75930298,0.04069093
2121.68811035,0.04060969
2123.61691772,0.04042922
2125.54572510,0.04049753
2127.47453247,0.04057712
2129.40333984,0.04047684
2131.33214722,0.04034284
2133.26095459,0.04036274
2135.18976196,0.04035003
2137.11856934,0.04024187
2139.04737671,0.04028097
2140.97618408,0.04035206
2142.90499146,0.04032382
2144.83379883,0.04017658
2146.76260620,0.04020859
2148.69141357,0.04022115
2150.62022095,0.04012237
2152.54902832,0.04012938
2154.47783569,0.04010254
2156.40664307,0.04011097
2158.33545044,0.03991284
2160.26425781,0.03994687
2162.19306519,0.04004369
2164.12187256,0.03991184
2166.05067993,0.03998622
2167.97948730,0.03989785
2169.90829468,0.03990855
2171.83710205,0.03990471
2173.76590942,0.03982783
2175.69471680,0.03972460
2177.62352417,0.03964852
2179.55233154,0.03979506
2181.48113892,0.03966929
2183.40994629,0.03973286
2185.33875366,0.03973275
2187.26756104,0.03962328
2189.19636841,0.03969887
2191.12517578,0.03961613
2193.05398315,0.03968462
2194.98279053,0.03971088
2196.91159790,0.03961464
2198.84040527,0.03947741
2200.76921265,0.03949118
2202.69802002,0.03949868
2204.62682739,0.03951853
2206.55563477,0.03951801
2208.48444214,0.03933922
2210.41324951,0.03953430
2212.34205688,0.03943227
2214.27086426,0.03935998
2216.19967163,0.03940911
2218.12847900,0.03924678
2220.05728638,0.03940947
2221.98609375,0.03929274
2223.91490112,0.03922921
2225.84370850,0.03923902
2227.77251587,0.03910620
2229.70132324,0.03901761
2231.63013062,0.03906599
2233.55893799,0.03913661
2235.48774536,0.03891862
2237.41655273,0.03901828
2239.34536011,0.03890974
2241.27416748,0.03875809
2243.20297485,0.03883930
2245.13178223,0.03878523
2247.06058960,0.03884055
2248.98939697,0.03872339
2250.91820435,0.03879692
2252.84701172,0.03872097
2254.77581909,0.03865295
2256.70462646,0.03872273
2258.63343384,0.03856015
2260.56224121,0.03868581
2262.49104858,0.03860267
2264.41985596,0.03853675
2266.34866333,0.03851528
2268.27747070,0.03842689
2270.20627808,0.03849236
2272.13508545,0.03841368
2274.06389282,0.03853923
2275.99270020,0.03856555
2277.92150757,0.03848319
2279.85031494,0.03836333
2281.77912231,0.03831111
2283.70792969,0.03846256
2285.63673706,0.03826303
2287.56554443,0.03821186
2289.49435181,0.03816438
2291.42315918,0.03791644
2293.35196655,0.03793000
2295.28077393,0.03783926
2297.20958130,0.03777030
2299.13838867,0.03771164
2301.06719604,0.03752825
2302.99600342,0.03740423
2304.92481079,0.03725943
2306.85361816,0.03714171
2308.78242554,0.03681885
2310.71123291,0.03645831
2312.64004028,0.03621767
2314.56884766,0.03582178
2316.49765503,0.03538864
2318.42646240,0.03494598
2320.35526978,0.03464692
2322.28407715,0.03423138
2324.21288452,0.03369945
2326.14169189,0.03337958
2328.07049927,0.03304143
2329.99930664,0.03271231
2331.92811401,0.03238241
2333.85692139,0.03229661
2335.78572876,0.03221945
2337.71453613,0.03216180
2339.64334351,0.03218991
2341.57215088,0.03223787
2343.50095825,0.03287811
2345.42976562,0.03339307
2347.35857300,0.03471380
2349.28738037,0.03589123
2351.21618774,0.03448945
2353.14499512,0.03289895
2355.07380249,0.03179335
2357.00260986,0.03080724
2358.93141724,0.03039526
2360.86022461,0.02997889
2362.78903198,0.02993746
2364.71783936,0.03010717
2366.64664673,0.03057394
2368.57545410,0.03123712
2370.50426147,0.03186418
2372.43306885,0.03280257
2374.36187622,0.03370925
2376.29068359,0.03456758
2378.21949097,0.03531682
2380.14829834,0.03592223
2382.07710571,0.03642456
2384.00591309,0.03663873
2385.93472046,0.03684301
2387.86352783,0.03689039
2389.79233521,0.03674982
2391.72114258,0.03692869
2393.64994995,0.03694379
2395.57875732,0.03680681
2397.50756470,0.03680640
2399.43637207,0.03658975
2401.36517944,0.03673647
2403.29398682,0.03684787
2405.22279419,0.03651058
2407.15160156,0.03648596
2409.08040894,0.03659813
2411.00921631,0.03656974
2412.93802368,0.03654164
2414.86683105,0.03653044
2416.79563843,0.03644091
2418.72444580,0.03649684
2420.65325317,0.03649673
2422.58206055,0.03639272
2424.51086792,0.03636623
2426.43967529,0.03622514
2428.36848267,0.03628509
2430.29729004,0.03626873
2432.22609741,0.03631690
2434.15490479,0.03634292
2436.08371216,0.03620690
2438.01251953,0.03630506
2439.94132690,0.03607750
2441.87013428,0.03610419
2443.79894165,0.03617965
2445.72774902,0.03598843
2447.65655640,0.03603774
2449.58536377,0.03593317
2451.51417114,0.03606323
2453.44297852,0.03599845
2455.37178589,0.03580534
2457.30059326,0.03596172
2459.22940063,0.03581592
2461.15820801,0.03578150
2463.08701538,0.03586332
2465.01582275,0.03572146
2466.94463013,0.03570008
2468.87343750,0.03574237
2470.80224487,0.03572011
2472.73105225,0.03569432
2474.65985962,0.03568539
2476.58866699,0.03567268
2478.51747437,0.03556516
2480.44628174,0.03550735
2482.37508911,0.03541570
2484.30389648,0.03534399
2486.23270386,0.03560472
2488.16151123,0.03562550
2490.09031860,0.03542924
2492.01912598,0.03532805
2493.94793335,0.03531739
2495.87674072,0.03547344
2497.80554810,0.03541378
2499.73435547,0.03530698
2501.66316284,0.03530419
2503.59197021,0.03529739
2505.52077759,0.03519916
2507.44958496,0.03510551
2509.37839233,0.03514197
2511.30719971,0.03519505
2513.23600708,0.03518821
2515.16481445,0.03497781
2517.09362183,0.03504100
2519.02242920,0.03508207
2520.95123657,0.03502677
2522.88004395,0.03508048
2524.80885132,0.03493387
2526.73765869,0.03505624
2528.66646606,0.03497467
2530.59527344,0.03488591
2532.52408081,0.03488992
2534.45288818,0.03469568
2536.38169556,0.03480203
2538.31050293,0.03469405
2540.23931030,0.03469199
2542.16811768,0.03473088
2544.09692505,0.03459153
2546.02573242,0.03466053
2547.95453979,0.03459468
2549.88334717,0.03454710
2551.81215454,0.03455420
2553.74096191,0.03453705
2555.66976929,0.03449429
2557.59857666,0.03449367
2559.52738403,0.03444140
2561.45619141,0.03438621
2563.38499878,0.03445802
2565.31380615,0.03440572
2567.24261353,0.03442988
2569.17142090,0.03444932
2571.10022827,0.03445785
2573.02903564,0.03437873
2574.95784302,0.03423052
2576.88665039,0.03422944
2578.81545776,0.03424642
2580.74426514,0.03425387
2582.67307251,0.03410064
2584.60187988,0.03416477
2586.53068726,0.03415878
2588.45949463,0.03396705
2590.38830200,0.03399733
2592.31710937,0.03396364
2594.24591675,0.03397235
2596.17472412,0.03394594
2598.10353149,0.03400939
2600.03233887,0.03389128
2601.96114624,0.03372087
2603.88995361,0.03384202
2605.81876099,0.03376575
2607.74756836,0.03383392
2609.67637573,0.03374716
2611.60518311,0.03364389
2613.53399048,0.03372806
2615.46279785,0.03361920
2617.39160522,0.03370036
2619.32041260,0.03358714
2621.24921997,0.03353836
2623.17802734,0.03364041
2625.10683472,0.03339349
2627.03564209,0.03342523
2628.96444946,0.03356145
2630.89325684,0.03339570
2632.82206421,0.03341421
2634.75087158,0.03342904
2636.67967895,0.03333756
2638.60848633,0.03342660
2640.53729370,0.03321228
2642.46610107,0.03312579
2644.39490845,0.03328381
2646.32371582,0.03312417
2648.25252319,0.03318525
2650.18133057,0.03314236
2652.11013794,0.03305492
2654.03894531,0.03317266
2655.96775269,0.03295869
2657.89656006,0.03286704
2659.82536743,0.03294372
2661.75417480,0.03296630
2663.68298218,0.03293415
2665.61178955,0.03279439
2667.54059692,0.03276969
2669.46940430,0.03281701
2671.39821167,0.03284802
2673.32701904,0.03273486
2675.25582642,0.03268836
2677.18463379,0.03271447
2679.11344116,0.03261450
2681.04224854,0.03267605
2682.97105591,0.03261810
2684.89986328,0.03249912
2686.82867065,0.03247994
2688.75747803,0.03242743
2690.68628540,0.03249983
2692.61509277,0.03237538
2694.54390015,0.03240917
2696.47270752,0.03250695
2698.40151489,0.03227653
2700.33032227,0.03233809
2702.25912964,0.03229081
2704.18793701,0.03214185
2706.11674438,0.03225318
2708.04555176,0.03225406
2709.97435913,0.03220893
2711.90316650,0.03212903
2713.83197388,0.03210072
2715.76078125,0.03210455
2717.68958862,0.03209727
2719.61839600,0.03207788
2721.54720337,0.03191841
2723.47601074,0.03192785
2725.40481812,0.03199776
2727.33362549,0.03184824
2729.26243286,0.03179566
2731.19124023,0.03183872
2733.12004761,0.03180170
2735.04885498,0.03178157
2736.97766235,0.03168098
2738.90646973,0.03167610
2740.83527710,0.03173167
2742.76408447,0.03150725
2744.69289185,0.03145410
2746.62169922,0.03159890
2748.55050659,0.03152002
2750.47931396,0.03141264
2752.40812134,0.03146797
2754.33692871,0.03150791
2756.26573608,0.03142288
2758.19454346,0.03137676
2760.12335083,0.03132937
2762.05215820,0.03115554
2763.98096558,0.03106762
2765.90977295,0.03117976
2767.83858032,0.03113313
2769.76738770,0.03103562
2771.69619507,0.03112905
2773.62500244,0.03104013
2775.55380981,0.03091728
2777.48261719,0.03104419
2779.41142456,0.03108156
2781.34023193,0.03089521
2783.26903931,0.03082221
2785.19784668,0.03076632
2787.12665405,0.03066560
2789.05546143,0.03069496
2790.98426880,0.03072012
2792.91307617,0.03073505
2794.84188354,0.03056891
2796.77069092,0.03050645
2798.69949829,0.03052265
2800.62830566,0.03047416
2802.55711304,0.03053102
2804.48592041,0.03036056
2806.41472778,0.03047141
2808.34353516,0.03048576
2810.27234253,0.03024271
2812.20114990,0.03025701
2814.12995728,0.03010041
2816.05876465,0.03012471
2817.98757202,0.03011982
2819.91637939,0.03005678
2821.84518677,0.03004519
2823.77399414,0.02999889
2825.70280151,0.03008765
2827.63160889,0.02984081
2829.56041626,0.02975515
2831.48922363,0.02984667
2833.41803101,0.02978091
2835.34683838,0.02971845
2837.27564575,0.02965873
2839.20445312,0.02962359
2841.13326050,0.02944751
2843.06206787,0.02945173
2844.99087524,0.02938326
2846.91968262,0.02916470
2848.84848999,0.02902678
2850.77729736,0.02888981
2852.70610474,0.02891621
2854.63491211,0.02892394
2856.56371948,0.02895723
2858.49252686,0.02890658
2860.42133423,0.02881854
2862.35014160,0.02880409
2864.27894897,0.02878422
2866.20775635,0.02879412
2868.13656372,0.02865133
2870.06537109,0.02859430
2871.99417847,0.02863919
2873.92298584,0.02859799
2875.85179321,0.02851673
2877.78060059,0.02856194
2879.70940796,0.02856841
2881.63821533,0.02843518
2883.56702270,0.02847913
2885.49583008,0.02847546
2887.42463745,0.02848801
2889.35344482,0.02854606
2891.28225220,0.02848834
2893.21105957,0.02828591
2895.13986694,0.02814805
2897.06867432,0.02829864
2898.99748169,0.02818115
2900.92628906,0.02796091
2902.85509644,0.02789557
2904.78390381,0.02788983
2906.71271118,0.02789045
2908.64151855,0.02768299
2910.57032593,0.02766757
2912.49913330,0.02775026
2914.42794067,0.02752983
2916.35674805,0.02734378
2918.28555542,0.02739484
2920.21436279,0.02731358
2922.14317017,0.02723331
2924.07197754,0.02726390
2926.00078491,0.02718444
2927.92959229,0.02724111
2929.85839966,0.02720050
2931.78720703,0.02714833
2933.71601440,0.02723835
2935.64482178,0.02718761
2937.57362915,0.02718773
2939.50243652,0.02721152
2941.43124390,0.02714632
2943.36005127,0.02709597
2945.28885864,0.02714153
2947.21766602,0.02709880
2949.14647339,0.02709477
2951.07528076,0.02717316
2953.00408813,0.02700565
2954.93289551,0.02687598
2956.86170288,0.02687976
2958.79051025,0.02683977
2960.71931763,0.02674256
2962.64812500,0.02666446
2964.57693237,0.02659594
2966.50573975,0.02657801
2968.43454712,0.02658959
2970.36335449,0.02658340
2972.29216187,0.02677267
2974.22096924,0.02673466
2976.14977661,0.02664338
2978.07858398,0.02676685
2980.00739136,0.02667019
2981.93619873,0.02667687
2983.86500610,0.02676068
2985.79381348,0.02670211
2987.72262085,0.02666357
2989.65142822,0.02670684
2991.58023560,0.02673493
2993.50904297,0.02664631
2995.43785034,0.02658726
2997.36665771,0.02659414
2999.29546509,0.02657604
3001.22427246,0.02643679
3003.15307983,0.02639820
3005.08188721,0.02643370
3007.01069458,0.02637450
3008.93950195,0.02630206
3010.86830933,0.02621807
3012.79711670,0.02627636
3014.72592407,0.02617736
3016.65473145,0.02610733
3018.58353882,0.02624682
3020.51234619,0.02609038
3022.44115356,0.02604026
3024.36996094,0.02603267
3026.29876831,0.02589696
3028.22757568,0.02585902
3030.15638306,0.02573043
3032.08519043,0.02583160
3034.01399780,0.02583029
3035.94280518,0.02563875
3037.87161255,0.02571423
3039.80041992,0.02566940
3041.72922729,0.02568766
3043.65803467,0.02564351
3045.58684204,0.02546944
3047.51564941,0.02552319
3049.44445679,0.02543322
3051.37326416,0.02533699
3053.30207153,0.02529607
3055.23087891,0.02525762
3057.15968628,0.02519691
3059.08849365,0.02505580
3061.01730103,0.02516285
3062.94610840,0.02521954
3064.87491577,0.02507979
3066.80372314,0.02509820
3068.73253052,0.02518330
3070.66133789,0.02505583
3072.59014526,0.02499254
3074.51895264,0.02498330
3076.44776001,0.02489788
3078.37656738,0.02491244
3080.30537476,0.02473017
3082.23418213,0.02474995
3084.16298950,0.02482603
3086.09179687,0.02469711
3088.02060425,0.02477619
3089.94941162,0.02463775
3091.87821899,0.02454005
3093.80702637,0.02462578
3095.73583374,0.02455851
3097.66464111,0.02436270
3099.59344849,0.02429876
3101.52225586,0.02440889
3103.45106323,0.02431516
3105.37987061,0.02429771
3107.30867798,0.02426816
3109.23748535,0.02417355
3111.16629272,0.02414441
3113.09510010,0.02410214
3115.02390747,0.02406570
3116.95271484,0.02394395
3118.88152222,0.02406036
3120.81032959,0.02401576
3122.73913696,0.02379819
3124.66794434,0.02384324
3126.59675171,0.02376032
3128.52555908,0.02369873
3130.45436645,0.02369156
3132.38317383,0.02357589
3134.31198120,0.02358277
3136.24078857,0.02357732
3138.16959595,0.02344948
3140.09840332,0.02344340
3142.02721069,0.02339238
3143.95601807,0.02333425
3145.88482544,0.02332023
3147.81363281,0.02316100
3149.74244019,0.02311878
3151.67124756,0.02306532
3153.60005493,0.02306066
3155.52886230,0.02308743
3157.45766968,0.02294839
3159.38647705,0.02284186
3161.31528442,0.02275771
3163.24409180,0.02279263
3165.17289917,0.02281791
3167.10170654,0.02273404
3169.03051392,0.02266076
3170.95932129,0.02261086
3172.88812866,0.02246321
3174.81693604,0.02242753
3176.74574341,0.02243464
3178.67455078,0.02226000
3180.60335815,0.02234236
3182.53216553,0.02231055
3184.46097290,0.02231186
3186.38978027,0.02232336
3188.31858765,0.02207362
3190.24739502,0.02207218
3192.17620239,0.02204095
3194.10500977,0.02215142
3196.03381714,0.02210700
3197.96262451,0.02194045
3199.89143188,0.02190159
3201.82023926,0.02178518
3203.74904663,0.02193587
3205.67785400,0.02182553
3207.60666138,0.02178123
3209.53546875,0.02177592
3211.46427612,0.02162557
3213.39308350,0.02171485
3215.32189087,0.02153121
3217.25069824,0.02149521
3219.17950562,0.02155809
3221.10831299,0.02146151
3223.03712036,0.02150579
3224.96592773,0.02148298
3226.89473511,0.02141139
3228.82354248,0.02141104
3230.75234985,0.02134583
3232.68115723,0.02128996
3234.60996460,0.02131718
3236.53877197,0.02121358
3238.46757935,0.02124038
3240.39638672,0.02125977
3242.32519409,0.02112052
3244.25400146,0.02107988
3246.18280884,0.02115978
3248.11161621,0.02117857
3250.04042358,0.02107694
3251.96923096,0.02114157
3253.89803833,0.02102057
3255.82684570,0.02102559
3257.75565308,0.02103691
3259.68446045,0.02086508
3261.61326782,0.02098461
3263.54207520,0.02092450
3265.47088257,0.02096512
3267.39968994,0.02090553
3269.32849731,0.02093266
3271.25730469,0.02100437
3273.18611206,0.02071761
3275.11491943,0.02080389
3277.04372681,0.02077755
3278.97253418,0.02077143
3280.90134155,0.02077579
3282.83014893,0.02077641
3284.75895630,0.02080321
3286.68776367,0.02061718
3288.61657104,0.02079198
3290.54537842,0.02068491
3292.47418579,0.02061771
3294.40299316,0.02070674
3296.33180054,0.02059914
3298.26060791,0.02066060
3300.18941528,0.02065422
3302.11822266,0.02061767
3304.04703003,0.02041608
3305.97583740,0.02046993
3307.90464478,0.02053902
3309.83345215,0.02040491
3311.76225952,0.02043396
3313.69106689,0.02037755
3315.61987427,0.02042935
3317.54868164,0.02033297
3319.47748901,0.02028679
3321.40629639,0.02034155
3323.33510376,0.02025446
3325.26391113,0.02026772
3327.19271851,0.02019803
3329.12152588,0.02017479
3331.05033325,0.02017339
3332.97914062,0.02014848
3334.90794800,0.02011033
3336.83675537,0.02003286
3338.76556274,0.02008663
3340.69437012,0.02014278
3342.62317749,0.02008962
3344.55198486,0.02000375
3346.48079224,0.02001880
3348.40959961,0.02003934
3350.33840698,0.01996901
3352.26721436,0.02003023
3354.19602173,0.01998171
3356.12482910,0.01974472
3358.05363647,0.01986231
3359.98244385,0.01987368
3361.91125122,0.01972920
3363.84005859,0.01972272
3365.76886597,0.01961527
3367.69767334,0.01969332
3369.62648071,0.01959861
3371.55528809,0.01958619
3373.48409546,0.01970677
3375.41290283,0.01955795
3377.34171020,0.01951098
3379.27051758,0.01942189
3381.19932495,0.01949726
3383.12813232,0.01951563
3385.05693970,0.01938701
3386.98574707,0.01935157
3388.91455444,0.01931689
3390.84336182,0.01929631
3392.77216919,0.01924327
3394.70097656,0.01923336
3396.62978394,0.01905062
3398.55859131,0.01912472
3400.48739868,0.01918511
3402.41620605,0.01911163
3404.34501343,0.01914950
3406.27382080,0.01899510
3408.20262817,0.01908799
3410.13143555,0.01898924
3412.06024292,0.01895588
3413.98905029,0.01899714
3415.91785767,0.01890193
3417.84666504,0.01894231
3419.77547241,0.01871092
3421.70427979,0.01875570
3423.63308716,0.01873520
3425.56189453,0.01875008
3427.49070190,0.01887621
3429.41950928,0.01872652
3431.34831665,0.01870978
3433.27712402,0.01858599
3435.20593140,0.01859741
3437.13473877,0.01852414
3439.06354614,0.01848915
3440.99235352,0.01851985
3442.92116089,0.01837987
3444.84996826,0.01839058
3446.77877563,0.01822491
3448.70758301,0.01831198
3450.63639038,0.01851811
3452.56519775,0.01852014
3454.49400513,0.01845791
3456.42281250,0.01826462
3458.35161987,0.01825453
3460.28042725,0.01825604
3462.20923462,0.01820899
3464.13804199,0.01826630
3466.06684937,0.01827299
3467.99565674,0.01816202
3469.92446411,0.01814389
3471.85327148,0.01822975
3473.78207886,0.01822402
3475.71088623,0.01805967
3477.63969360,0.01807077
3479.56850098,0.01815865
3481.49730835,0.01796723
3483.42611572,0.01800295
3485.35492310,0.01802871
3487.28373047,0.01799804
3489.21253784,0.01808473
3491.14134521,0.01809362
3493.07015259,0.01809400
3494.99895996,0.01795719
3496.92776733,0.01802629
3498.85657471,0.01809210
3500.78538208,0.01793725
3502.71418945,0.01766690
3504.64299683,0.01772537
3506.57180420,0.01807488
3508.50061157,0.01786478
3510.42941895,0.01777931
3512.35822632,0.01795784
3514.28703369,0.01799173
3516.21584106,0.01793670
3518.14464844,0.01791292
3520.07345581,0.01795630
3522.00226318,0.01777679
3523.93107056,0.01766503
3525.85987793,0.01762985
3527.78868530,0.01764287
3529.71749268,0.01771664
3531.64630005,0.01789130
3533.57510742,0.01793429
3535.50391479,0.01774503
3537.43272217,0.01779472
3539.36152954,0.01792769
3541.29033691,0.01795405
3543.21914429,0.01775482
3545.14795166,0.01735374
3547.07675903,0.01714599
3549.00556641,0.01776586
3550.93437378,0.01792793
3552.86318115,0.01747422
3554.79198853,0.01786851
3556.72079590,0.01792898
3558.64960327,0.01784317
3560.57841064,0.01761091
3562.50721802,0.01756512
3564.43602539,0.01768241
3566.36483276,0.01635883
3568.29364014,0.01615382
3570.22244751,0.01744848
3572.15125488,0.01787153
3574.08006226,0.01771462
3576.00886963,0.01774821
3577.93767700,0.01766378
3579.86648437,0.01757603
3581.79529175,0.01769168
3583.72409912,0.01770665
3585.65290649,0.01729247
3587.58171387,0.01595233
3589.51052124,0.01644625
3591.43932861,0.01787959
3593.36813599,0.01731281
3595.29694336,0.01700098
3597.22575073,0.01731224
3599.15455811,0.01746466
3601.08336548,0.01732215
3603.01217285,0.01747862
3604.94098022,0.01778596
3606.86978760,0.01713363
3608.79859497,0.01613734
3610.72740234,0.01654822
3612.65620972,0.01692206
3614.58501709,0.01640967
3616.51382446,0.01749848
3618.44263184,0.01622832
3620.37143921,0.01586215
3622.30024658,0.01772222
3624.22905395,0.01716273
3626.15786133,0.01807765
3628.08666870,0.01544286
3630.01547607,0.01407325
3631.94428345,0.01742164
3633.87309082,0.01704577
3635.80189819,0.01737899
3637.73070557,0.01766154
3639.65951294,0.01746465
3641.58832031,0.01759458
3643.51712769,0.01741625
3645.44593506,0.01753658
3647.37474243,0.01575734
3649.30354980,0.01463455
3651.23235718,0.01480064
3653.16116455,0.01743918
3655.08997192,0.01720356
3657.01877930,0.01548843
3658.94758667,0.01780425
3660.87639404,0.01732269
3662.80520142,0.01748162
3664.73400879,0.01744819
3666.66281616,0.01724517
3668.59162354,0.01689012
3670.52043091,0.01398733
3672.44923828,0.01668806
3674.37804565,0.01586789
3676.30685303,0.01325221
3678.23566040,0.01661064
3680.16446777,0.01689228
3682.09327515,0.01696133
3684.02208252,0.01744414
3685.95088989,0.01697677
3687.87969727,0.01560100
3689.80850464,0.01443253
3691.73731201,0.01622026
3693.66611938,0.01664790
3695.59492676,0.01698545
3697.52373413,0.01707244
3699.45254150,0.01686756
3701.38134888,0.01649081
3703.31015625,0.01582672
3705.23896362,0.01734195
3707.16777100,0.01659698
3709.09657837,0.01617229
3711.02538574,0.01534680
3712.95419312,0.01425396
3714.88300049,0.01668981
3716.81180786,0.01653777
3718.74061523,0.01656578
3720.66942261,0.01639651
3722.59822998,0.01573966
3724.52703735,0.01624141
3726.45584473,0.01514220
3728.38465210,0.01628293
3730.31345947,0.01617236
3732.24226685,0.01497858
3734.17107422,0.01468648
3736.09988159,0.01396316
3738.02868896,0.01467988
3739.95749634,0.01583225
3741.88630371,0.01656221
3743.81511108,0.01298784
3745.74391846,0.01232028
3747.67272583,0.01581202
3749.60153320,0.01372048
3751.53034058,0.01285619
3753.45914795,0.01451865
3755.38795532,0.01543555
3757.31676270,0.01608735
3759.24557007,0.01491460
3761.17437744,0.01548394
3763.10318481,0.01634898
3765.03199219,0.01525001
3766.96079956,0.01563942
3768.88960693,0.01549617
3770.81841431,0.01483739
3772.74722168,0.01595495
3774.67602905,0.01599377
3776.60483643,0.01601006
3778.53364380,0.01558346
3780.46245117,0.01504155
3782.39125854,0.01600512
3784.32006592,0.01568791
3786.24887329,0.01552493
3788.17768066,0.01583866
3790.10648804,0.01577811
3792.03529541,0.01556190
3793.96410278,0.01588907
3795.89291016,0.01504119
3797.82171753,0.01482337
3799.75052490,0.01565251
3801.67933228,0.01253456
3803.60813965,0.01453755
3805.53694702,0.01573381
3807.46575439,0.01288009
3809.39456177,0.01554514
3811.32336914,0.01528916
3813.25217651,0.01559568
3815.18098389,0.01421914
3817.10979126,0.01263903
3819.03859863,0.01570556
3820.96740601,0.01292710
3822.89621338,0.01350933
3824.82502075,0.01563500
3826.75382812,0.01423969
3828.68263550,0.01523735
3830.61144287,0.01471377
3832.54025024,0.01420511
3834.46905762,0.01451709
3836.39786499,0.01383770
3838.32667236,0.01249016
3840.25547974,0.01346328
3842.18428711,0.01438179
3844.11309448,0.01376573
3846.04190186,0.01508781
3847.97070923,0.01484501
3849.89951660,0.01477614
3851.82832397,0.01347866
3853.75713135,0.01017011
3855.68593872,0.01193022
3857.61474609,0.01483318
3859.54355347,0.01439308
3861.47236084,0.01439627
3863.40116821,0.01403191
3865.32997559,0.01307327
3867.25878296,0.01459536
3869.18759033,0.01329806
3871.11639770,0.01231708
3873.04520508,0.01452479
3874.97401245,0.01344074
3876.90281982,0.01431455
3878.83162720,0.01466069
3880.76043457,0.01280872
3882.68924194,0.01448053
3884.61804932,0.01360737
3886.54685669,0.01257990
3888.47566406,0.01454597
3890.40447144,0.01380238
3892.33327881,0.01296656
3894.26208618,0.01408714
3896.19089355,0.01442300
3898.11970093,0.01380476
3900.04850830,0.01294904
3901.97731567,0.01282397
3903.90612305,0.01276531
3905.83493042,0.01299038
3907.76373779,0.01410446
3909.69254517,0.01412073
3911.62135254,0.01401355
3913.55015991,0.01420894
3915.47896728,0.01376769
3917.40777466,0.01329884
3919.33658203,0.01326339
3921.26538940,0.01378633
3923.19419678,0.01374367
3925.12300415,0.01352742
3927.05181152,0.01364633
3928.98061890,0.01379267
3930.90942627,0.01351252
3932.83823364,0.01312310
3934.76704102,0.01362823
3936.69584839,0.01366739
3938.62465576,0.01361793
3940.55346313,0.01370433
3942.48227051,0.01315751
3944.41107788,0.01332618
3946.33988525,0.01361530
3948.26869263,0.01321393
3950.19750000,0.01323143
3952.12630737,0.01346732
3954.05511475,0.01347703
3955.98392212,0.01353820
3957.91272949,0.01335364
3959.84153687,0.01336122
3961.77034424,0.01329594
3963.69915161,0.01321498
3965.62795898,0.01346746
3967.55676636,0.01330686
3969.48557373,0.01330778
3971.41438110,0.01319580
3973.34318848,0.01314522
3975.27199585,0.01322761
3977.20080322,0.01306439
3979.12961060,0.01322015
3981.05841797,0.01311560
3982.98722534,0.01306795
3984.91603271,0.01306472
3986.84484009,0.01306384
3988.77364746,0.01308955
3990.70245483,0.01292944
3992.63126221,0.01302181
3994.56006958,0.01295754
3996.48887695,0.01288662
3998.41768433,0.01286699
4000.34649170,0.01288693
4002.27529907,0.01283222
4004.20410645,0.01282978
4006.13291382,0.01289075
4008.06172119,0.01273139
4009.99052856,0.01277904
4011.91933594,0.01270375
4013.84814331,0.01277912
4015.77695068,0.01276946
4017.70575806,0.01269512
4019.63456543,0.01273872
4021.56337280,0.01255260
4023.49218018,0.01262444
4025.42098755,0.01249297
4027.34979492,0.01249667
4029.27860229,0.01251534
4031.20740967,0.01243180
4033.13621704,0.01253582
4035.06502441,0.01243049
4036.99383179,0.01245589
4038.92263916,0.01240973
4040.85144653,0.01244080
4042.78025391,0.01232185
4044.70906128,0.01222143
4046.63786865,0.01233005
4048.56667603,0.01229065
4050.49548340,0.01233075
4052.42429077,0.01225461
4054.35309814,0.01237117
4056.28190552,0.01226365
4058.21071289,0.01212526
4060.13952026,0.01219100
4062.06832764,0.01210201
4063.99713501,0.01216288
4065.92594238,0.01208182
4067.85474976,0.01203215
4069.78355713,0.01194966
4071.71236450,0.01201482
4073.64117187,0.01202902
4075.56997925,0.01192840
4077.49878662,0.01198515
4079.42759399,0.01179451
4081.35640137,0.01185897
4083.28520874,0.01185358
4085.21401611,0.01176786
4087.14282349,0.01174637
4089.07163086,0.01173149
4091.00043823,0.01181650
4092.92924561,0.01166321
4094.85805298,0.01174409
4096.78686035,0.01169920
4098.71566772,0.01157842
4100.64447510,0.01161995
4102.57328247,0.01158579
4104.50208984,0.01165459
4106.43089722,0.01164246
4108.35970459,0.01158703
4110.28851196,0.01153452
4112.21731934,0.01153828
4114.14612671,0.01140814
4116.07493408,0.01137140
4118.00374145,0.01142542
4119.93254883,0.01143943
4121.86135620,0.01152734
4123.79016357,0.01131229
4125.71897095,0.01131476
4127.64777832,0.01134860
4129.57658569,0.01124789
4131.50539307,0.01131713
4133.43420044,0.01124184
4135.36300781,0.01125457
4137.29181519,0.01125487
4139.22062256,0.01118192
4141.14942993,0.01117847
4143.07823730,0.01113330
4145.00704468,0.01108731
4146.93585205,0.01107621
4148.86465942,0.01098674
4150.79346680,0.01103805
4152.72227417,0.01112022
4154.65108154,0.01095475
4156.57988892,0.01096433
4158.50869629,0.01093540
4160.43750366,0.01085992
4162.36631103,0.01090367
4164.29511841,0.01093782
4166.22392578,0.01088772
4168.15273315,0.01076744
4170.08154053,0.01084162
4172.01034790,0.01078763
4173.93915527,0.01079995
4175.86796265,0.01083891
4177.79677002,0.01075278
4179.72557739,0.01071546
4181.65438477,0.01062565
4183.58319214,0.01071345
4185.51199951,0.01066530
4187.44080688,0.01061045
4189.36961426,0.01058788
4191.29842163,0.01054541
4193.22722900,0.01056179
4195.15603638,0.01049819
4197.08484375,0.01061483
4199.01365112,0.01049038
4200.94245850,0.01043241
4202.87126587,0.01049640
4204.80007324,0.01039372
4206.72888062,0.01044605
4208.65768799,0.01038666
4210.58649536,0.01043703
4212.51530273,0.01043075
4214.44411011,0.01029712
4216.37291748,0.01032192
4218.30172485,0.01028478
4220.23053223,0.01029917
4222.15933960,0.01028910
4224.08814697,0.01021257
4226.01695435,0.01020878
4227.94576172,0.01019080
4229.87456909,0.01020207
4231.80337646,0.01020518
4233.73218384,0.01006115
4235.66099121,0.01003878
4237.58979858,0.01008769
4239.51860596,0.01003357
4241.44741333,0.01000832
4243.37622070,0.00994637
4245.30502808,0.00996227
4247.23383545,0.00999909
4249.16264282,0.00996889
4251.09145020,0.00993097
4253.02025757,0.00991465
4254.94906494,0.00988520
4256.87787231,0.00982156
4258.80667969,0.00985770
4260.73548706,0.00987614
4262.66429443,0.00986813
4264.59310181,0.00981820
4266.52190918,0.00971816
4268.45071655,0.00965436
4270.37952393,0.00976009
4272.30833130,0.00983196
4274.23713867,0.00974273
4276.16594604,0.00976784
4278.09475342,0.00962782
4280.02356079,0.00960223
4281.95236816,0.00965360
4283.88117554,0.00960585
4285.80998291,0.00963649
4287.73879028,0.00950551
4289.66759766,0.00954339
4291.59640503,0.00948596
4293.52521240,0.00941195
4295.45401978,0.00945011
4297.38282715,0.00942136
4299.31163452,0.00948380
4301.24044189,0.00934782
4303.16924927,0.00939145
4305.09805664,0.00939869
4307.02686401,0.00926532
4308.95567139,0.00935874
4310.88447876,0.00936119
4312.81328613,0.00928312
4314.74209351,0.00927881
4316.67090088,0.00929471
4318.59970825,0.00920465
4320.52851562,0.00922208
4322.45732300,0.00912637
4324.38613037,0.00907912
4326.31493774,0.00918753
4328.24374512,0.00913527
4330.17255249,0.00918953
4332.10135986,0.00905874
4334.03016724,0.00900328
4335.95897461,0.00909048
4337.88778198,0.00911859
4339.81658936,0.00906197
4341.74539673,0.00887616
4343.67420410,0.00899733
4345.60301147,0.00898392
4347.53181885,0.00892114
4349.46062622,0.00894025
4351.38943359,0.00890478
4353.31824097,0.00892554
4355.24704834,0.00883199
4357.17585571,0.00886440
4359.10466309,0.00883114
4361.03347046,0.00877404
4362.96227783,0.00879153
4364.89108520,0.00881743
4366.81989258,0.00882572
4368.74869995,0.00869734
4370.67750732,0.00870826
4372.60631470,0.00873317
4374.53512207,0.00869413
4376.46392944,0.00866711
4378.39273682,0.00861882
4380.32154419,0.00860033
4382.25035156,0.00868220
4384.17915894,0.00862378
4386.10796631,0.00850902
4388.03677368,0.00859815
4389.96558105,0.00851594
4391.89438843,0.00846852
4393.82319580,0.00844728
4395.75200317,0.00842509
4397.68081055,0.00847248
4399.60961792,0.00842049
4401.53842529,0.00843625
4403.46723267,0.00835429
4405.39604004,0.00839471
4407.32484741,0.00842109
4409.25365478,0.00830324
4411.18246216,0.00827448
4413.11126953,0.00824841
4415.04007690,0.00825578
4416.96888428,0.00821823
4418.89769165,0.00827526
4420.82649902,0.00824677
4422.75530640,0.00819149
4424.68411377,0.00819011
4426.61292114,0.00814593
4428.54172852,0.00813278
4430.47053589,0.00803242
4432.39934326,0.00809923
4434.32815063,0.00810107
4436.25695801,0.00804863
4438.18576538,0.00805911
4440.11457275,0.00804879
4442.04338013,0.00808180
4443.97218750,0.00794150
4445.90099487,0.00792834
4447.82980225,0.00797377
4449.75860962,0.00792172
4451.68741699,0.00791997
4453.61622437,0.00794991
4455.54503174,0.00789626
4457.47383911,0.00784221
4459.40264648,0.00788387
4461.33145386,0.00784763
4463.26026123,0.00789312
4465.18906860,0.00779512
4467.11787598,0.00780891
4469.04668335,0.00785732
4470.97549072,0.00769340
4472.90429810,0.00777924
4474.83310547,0.00769189
4476.76191284,0.00772911
4478.69072021,0.00776336
4480.61952759,0.00759286
4482.54833496,0.00768387
4484.47714233,0.00760120
4486.40594971,0.00759383
4488.33475708,0.00766104
4490.26356445,0.00754776
4492.19237183,0.00751095
4494.12117920,0.00751333
4496.04998657,0.00747907
4497.97879395,0.00750890
4499.90760132,0.00753950
4501.83640869,0.00747208
4503.76521606,0.00752211
4505.69402344,0.00749004
4507.62283081,0.00740831
4509.55163818,0.00738473
4511.48044556,0.00734206
4513.40925293,0.00735304
4515.33806030,0.00730153
4517.26686768,0.00729812
4519.19567505,0.00733096
4521.12448242,0.00738592
4523.05328979,0.00735612
4524.98209717,0.00731091
4526.91090454,0.00728504
4528.83971191,0.00722377
4530.76851929,0.00733649
4532.69732666,0.00721132
4534.62613403,0.00712865
4536.55494141,0.00723112
4538.48374878,0.00718065
4540.41255615,0.00723676
4542.34136353,0.00712335
4544.27017090,0.00705618
4546.19897827,0.00716763
4548.12778564,0.00705615
4550.05659302,0.00702490
4551.98540039,0.00707311
4553.91420776,0.00702712
4555.84301514,0.00704631
4557.77182251,0.00702584
4559.70062988,0.00697119
4561.62943726,0.00695153
4563.55824463,0.00687234
4565.48705200,0.00684029
4567.41585937,0.00689521
4569.34466675,0.00693125
4571.27347412,0.00683769
4573.20228149,0.00683299
4575.13108887,0.00690109
4577.05989624,0.00679321
4578.98870361,0.00679814
4580.91751099,0.00680269
4582.84631836,0.00676550
4584.77512573,0.00679216
4586.70393311,0.00674532
4588.63274048,0.00673210
4590.56154785,0.00667589
4592.49035522,0.00669739
4594.41916260,0.00678430
4596.34796997,0.00668824
4598.27677734,0.00662144
4600.20558472,0.00668823
4602.13439209,0.00667777
4604.06319946,0.00662136
4605.99200684,0.00661392
4607.92081421,0.00658452
4609.84962158,0.00657747
4611.77842895,0.00657707
4613.70723633,0.00651335
4615.63604370,0.00644243
4617.56485107,0.00652979
4619.49365845,0.00657742
4621.42246582,0.00650635
4623.35127319,0.00650707
4625.28008057,0.00646343
4627.20888794,0.00647695
4629.13769531,0.00642280
4631.06650269,0.00638946
4632.99531006,0.00639487
4634.92411743,0.00632065
4636.85292480,0.00642063
4638.78173218,0.00639412
4640.71053955,0.00638140
4642.63934692,0.00635671
4644.56815430,0.00629173
4646.49696167,0.00635455
4648.42576904,0.00626087
4650.35457642,0.00626896
4652.28338379,0.00624430
4654.21219116,0.00623740
4656.14099853,0.00626717
4658.06980591,0.00614141
4659.99861328,0.00612585
4661.92742065,0.00611777
4663.85622803,0.00615200
4665.78503540,0.00612201
4667.71384277,0.00606649
4669.64265015,0.00610412
4671.57145752,0.00611473
4673.50026489,0.00609338
4675.42907227,0.00605837
4677.35787964,0.00607792
4679.28668701,0.00603428
4681.21549438,0.00604745
4683.14430176,0.00603976
4685.07310913,0.00600384
4687.00191650,0.00599429
4688.93072388,0.00596240
4690.85953125,0.00599317
4692.78833862,0.00586501
4694.71714600,0.00589976
4696.64595337,0.00597545
4698.57476074,0.00590436
4700.50356812,0.00595869
4702.43237549,0.00590954
4704.36118286,0.00589140
4706.28999023,0.00591370
4708.21879761,0.00590317
4710.14760498,0.00585336
4712.07641235,0.00581078
4714.00521973,0.00581997
4715.93402710,0.00572761
4717.86283447,0.00573734
4719.79164185,0.00576228
4721.72044922,0.00575299
4723.64925659,0.00578218
4725.57806396,0.00573990
4727.50687134,0.00569987
4729.43567871,0.00572172
4731.36448608,0.00572992
4733.29329346,0.00564030
4735.22210083,0.00565162
4737.15090820,0.00570295
4739.07971558,0.00567976
4741.00852295,0.00564812
4742.93733032,0.00557108
4744.86613770,0.00556342
4746.79494507,0.00551810
4748.72375244,0.00551286
4750.65255981,0.00563780
4752.58136719,0.00554412
4754.51017456,0.00541784
4756.43898193,0.00546892
4758.36778931,0.00547391
4760.29659668,0.00549264
4762.22540405,0.00549687
4764.15421143,0.00549205
4766.08301880,0.00546418
4768.01182617,0.00530836
4769.94063354,0.00534464
4771.86944092,0.00541594
4773.79824829,0.00537711
4775.72705566,0.00539380
4777.65586304,0.00534943
4779.58467041,0.00536072
4781.51347778,0.00537813
4783.44228516,0.00537558
4785.37109253,0.00536809
4787.29989990,0.00532656
4789.22870728,0.00535753
4791.15751465,0.00531453
4793.08632202,0.00523485
4795.01512939,0.00520927
4796.94393677,0.00519415
4798.87274414,0.00518543
4800.80155151,0.00519234
4802.73035889,0.00518646
4804.65916626,0.00513114
4806.58797363,0.00512469
4808.51678101,0.00518148
4810.44558838,0.00524237
4812.37439575,0.00519744
4814.30320312,0.00514087
4816.23201050,0.00513643
4818.16081787,0.00507330
4820.08962524,0.00509439
4822.01843262,0.00513896
4823.94723999,0.00507552
4825.87604736,0.00501618
4827.80485474,0.00507518
4829.73366211,0.00507896
4831.66246948,0.00493840
4833.59127686,0.00495923
4835.52008423,0.00501777
4837.44889160,0.00498540
4839.37769897,0.00499204
4841.30650635,0.00497697
4843.23531372,0.00495155
4845.16412109,0.00489236
4847.09292847,0.00489318
4849.02173584,0.00495148
4850.95054321,0.00490060
4852.87935059,0.00487116
4854.80815796,0.00488259
4856.73696533,0.00486502
4858.66577270,0.00486351
4860.59458008,0.00486829
4862.52338745,0.00487512
4864.45219482,0.00481207
4866.38100220,0.00473772
4868.30980957,0.00478227
4870.23861694,0.00478199
4872.16742432,0.00471819
4874.09623169,0.00474472
4876.02503906,0.00473971
4877.95384644,0.00470221
4879.88265381,0.00468338
4881.81146118,0.00463285
4883.74026855,0.00465685
4885.66907593,0.00464441
4887.59788330,0.00463900
4889.52669067,0.00470640
4891.45549805,0.00463872
4893.38430542,0.00463657
4895.31311279,0.00464666
4897.24192017,0.00457556
4899.17072754,0.00463835
4901.09953491,0.00463102
4903.02834228,0.00454397
4904.95714966,0.00454670
4906.88595703,0.00452643
4908.81476440,0.00452723
4910.74357178,0.00465340
4912.67237915,0.00462246
4914.60118652,0.00448298
4916.52999390,0.00450646
4918.45880127,0.00442919
4920.38760864,0.00443363
4922.31641602,0.00456736
4924.24522339,0.00450003
4926.17403076,0.00449408
4928.10283813,0.00449341
4930.03164551,0.00441897
4931.96045288,0.00442648
4933.88926025,0.00440365
4935.81806763,0.00437806
4937.74687500,0.00432758
4939.67568237,0.00430611
4941.60448975,0.00436688
4943.53329712,0.00435976
4945.46210449,0.00438907
4947.39091187,0.00439633
4949.31971924,0.00427012
4951.24852661,0.00426642
4953.17733398,0.00429033
4955.10614136,0.00422085
4957.03494873,0.00429546
4958.96375610,0.00431784
4960.89256348,0.00421234
4962.82137085,0.00422731
4964.75017822,0.00419360
4966.67898560,0.00417353
4968.60779297,0.00420898
4970.53660034,0.00419486
4972.46540771,0.00426295
4974.39421509,0.00420841
4976.32302246,0.00414432
4978.25182983,0.00416697
4980.18063721,0.00411514
4982.10944458,0.00412506
4984.03825195,0.00408689
4985.96705933,0.00406875
4987.89586670,0.00410314
4989.82467407,0.00408552
4991.75348145,0.00409199
4993.68228882,0.00407904
4995.61109619,0.00403737
4997.53990356,0.00401985
4999.46871094,0.00407050
5001.39751831,0.00404019
5003.32632568,0.00400088
5005.25513306,0.00400137
5007.18394043,0.00401270
5009.11274780,0.00407206
5011.04155518,0.00396081
5012.97036255,0.00391211
5014.89916992,0.00396441
5016.82797729,0.00394547
5018.75678467,0.00393238
5020.68559204,0.00390395
5022.61439941,0.00390845
5024.54320679,0.00393169
5026.47201416,0.00391225
5028.40082153,0.00381399
5030.32962891,0.00386089
5032.25843628,0.00390071
5034.18724365,0.00387109
5036.11605103,0.00391153
5038.04485840,0.00382551
5039.97366577,0.00380964
5041.90247314,0.00376786
5043.83128052,0.00379559
5045.76008789,0.00383648
5047.68889526,0.00374975
5049.61770264,0.00378607
5051.54651001,0.00374187
5053.47531738,0.00376817
5055.40412476,0.00373262
5057.33293213,0.00366733
5059.26173950,0.00367662
5061.19054687,0.00368795
5063.11935425,0.00380180
5065.04816162,0.00371047
5066.97696899,0.00372348
5068.90577637,0.00370126
5070.83458374,0.00362941
5072.76339111,0.00371522
5074.69219849,0.00365858
5076.62100586,0.00363958
5078.54981323,0.00359868
5080.47862061,0.00363332
5082.40742798,0.00362859
5084.33623535,0.00361482
5086.26504272,0.00359916
5088.19385010,0.00351862
5090.12265747,0.00362383
5092.05146484,0.00351622
5093.98027222,0.00351237
5095.90907959,0.00354169
5097.83788696,0.00345025
5099.76669434,0.00354141
5101.69550171,0.00350186
5103.62430908,0.00354144
5105.55311645,0.00355407
5107.48192383,0.00346779
5109.41073120,0.00341027
5111.33953857,0.00342437
5113.26834595,0.00349332
5115.19715332,0.00341044
5117.12596069,0.00342089
5119.05476807,0.00341448
5120.98357544,0.00341952
5122.91238281,0.00348343
5124.84119019,0.00341879
5126.76999756,0.00339885
5128.69880493,0.00343249
5130.62761230,0.00338944
5132.55641968,0.00334734
5134.48522705,0.00341274
5136.41403442,0.00332185
5138.34284180,0.00329648
5140.27164917,0.00339805
5142.20045654,0.00331803
5144.12926392,0.00332329
5146.05807129,0.00333749
5147.98687866,0.00331057
5149.91568603,0.00328155
5151.84449341,0.00327444
5153.77330078,0.00335305
5155.70210815,0.00331073
5157.63091553,0.00325036
5159.55972290,0.00324507
5161.48853027,0.00326327
5163.41733765,0.00324696
5165.34614502,0.00318652
5167.27495239,0.00323652
5169.20375977,0.00321290
5171.13256714,0.00313851
5173.06137451,0.00318009
5174.99018188,0.00316199
5176.91898926,0.00315427
5178.84779663,0.00313840
5180.77660400,0.00308801
5182.70541138,0.00315144
5184.63421875,0.00314261
5186.56302612,0.00312674
5188.49183350,0.00314800
5190.42064087,0.00310113
5192.34944824,0.00310700
5194.27825562,0.00313610
5196.20706299,0.00311746
5198.13587036,0.00308422
5200.06467773,0.00309153
5201.99348511,0.00308848
5203.92229248,0.00309493
5205.85109985,0.00301617
5207.77990723,0.00298413
5209.70871460,0.00306379
5211.63752197,0.00301380
5213.56632935,0.00306825
5215.49513672,0.00302180
5217.42394409,0.00296564
5219.35275146,0.00303880
5221.28155884,0.00302091
5223.21036621,0.00306554
5225.13917358,0.00289455
5227.06798096,0.00290077
5228.99678833,0.00302034
5230.92559570,0.00289275
5232.85440308,0.00293814
5234.78321045,0.00290674
5236.71201782,0.00290757
5238.64082520,0.00298877
5240.56963257,0.00296721
5242.49843994,0.00288525
5244.42724731,0.00284119
5246.35605469,0.00297207
5248.28486206,0.00287525
5250.21366943,0.00279925
5252.14247681,0.00294726
5254.07128418,0.00286358
5256.00009155,0.00277472
5257.92889893,0.00284153
5259.85770630,0.00284139
5261.78651367,0.00283963
5263.71532104,0.00278382
5265.64412842,0.00272605
5267.57293579,0.00286515
5269.50174316,0.00286158
5271.43055054,0.00277292
5273.35935791,0.00284850
5275.28816528,0.00282140
5277.21697266,0.00278910
5279.14578003,0.00284600
5281.07458740,0.00280624
5283.00339478,0.00278715
5284.93220215,0.00275622
5286.86100952,0.00267623
5288.78981689,0.00275446
5290.71862427,0.00278624
5292.64743164,0.00277568
5294.57623901,0.00274142
5296.50504639,0.00268658
5298.43385376,0.00274377
5300.36266113,0.00267293
5302.29146851,0.00270449
5304.22027588,0.00272043
5306.14908325,0.00264964
5308.07789062,0.00270173
5310.00669800,0.00266633
5311.93550537,0.00264248
5313.86431274,0.00258561
5315.79312012,0.00264801
5317.72192749,0.00268662
5319.65073486,0.00265176
5321.57954224,0.00270036
5323.50834961,0.00264237
5325.43715698,0.00268515
5327.36596436,0.00261752
5329.29477173,0.00257188
5331.22357910,0.00258146
5333.15238647,0.00253849
5335.08119385,0.00268356
5337.01000122,0.00259441
5338.93880859,0.00242567
5340.86761597,0.00252087
5342.79642334,0.00257315
5344.72523071,0.00242240
5346.65403809,0.00244714
5348.58284546,0.00252794
5350.51165283,0.00247131
5352.44046020,0.00247496
5354.36926758,0.00241705
5356.29807495,0.00247746
5358.22688232,0.00246425
5360.15568970,0.00251275
5362.08449707,0.00254364
5364.01330444,0.00241470
5365.94211182,0.00251683
5367.87091919,0.00243980
5369.79972656,0.00250633
5371.72853394,0.00250428
5373.65734131,0.00234603
5375.58614868,0.00241054
5377.51495605,0.00231247
5379.44376343,0.00240908
5381.37257080,0.00242009
5383.30137817,0.00235744
5385.23018555,0.00240791
5387.15899292,0.00235582
5389.08780029,0.00237453
5391.01660767,0.00231636
5392.94541504,0.00234278
5394.87422241,0.00234709
5396.80302978,0.00234519
5398.73183716,0.00239779
5400.66064453,0.00239069
5402.58945190,0.00238906
5404.51825928,0.00228447
5406.44706665,0.00227165
5408.37587402,0.00232573
5410.30468140,0.00233554
5412.23348877,0.00226918
5414.16229614,0.00226997
5416.09110352,0.00231619
5418.01991089,0.00225036
5419.94871826,0.00230173
5421.87752563,0.00233658
5423.80633301,0.00231608
5425.73514038,0.00230746
5427.66394775,0.00227948
5429.59275513,0.00218783
5431.52156250,0.00218407
5433.45036987,0.00227219
5435.37917725,0.00218709
5437.30798462,0.00226470
5439.23679199,0.00229714
5441.16559936,0.00217985
5443.09440674,0.00225297
5445.02321411,0.00220281
5446.95202148,0.00211736
5448.88082886,0.00220083
5450.80963623,0.00223159
5452.73844360,0.00217888
5454.66725098,0.00213811
5456.59605835,0.00215776
5458.52486572,0.00221207
5460.45367310,0.00214961
5462.38248047,0.00211812
5464.31128784,0.00213171
5466.24009521,0.00213962
5468.16890259,0.00215744
5470.09770996,0.00202997
5472.02651733,0.00214497
5473.95532471,0.00221140
5475.88413208,0.00203297
5477.81293945,0.00203290
5479.74174683,0.00204278
5481.67055420,0.00208043
5483.59936157,0.00204360
5485.52816895,0.00208335
5487.45697632,0.00211954
5489.38578369,0.00204125
5491.31459106,0.00209283
5493.24339844,0.00203904
5495.17220581,0.00206802
5497.10101318,0.00204927
5499.02982056,0.00197666
5500.95862793,0.00205110
5502.88743530,0.00203963
5504.81624268,0.00204773
5506.74505005,0.00205307
5508.67385742,0.00201978
5510.60266479,0.00200475
5512.53147217,0.00206657
5514.46027954,0.00199376
5516.38908691,0.00194270
5518.31789429,0.00205904
5520.24670166,0.00194123
5522.17550903,0.00192105
5524.10431641,0.00197632
5526.03312378,0.00195425
5527.96193115,0.00196726
5529.89073853,0.00189300
5531.81954590,0.00193066
5533.74835327,0.00195778
5535.67716064,0.00189959
5537.60596802,0.00195391
5539.53477539,0.00196141
5541.46358276,0.00184424
5543.39239014,0.00184769
5545.32119751,0.00188834
5547.25000488,0.00189089
5549.17881226,0.00188255
5551.10761963,0.00183865
5553.03642700,0.00191956
5554.96523437,0.00183141
5556.89404175,0.00178823
5558.82284912,0.00190294
5560.75165649,0.00184242
5562.68046387,0.00185270
5564.60927124,0.00182093
5566.53807861,0.00187338
5568.46688599,0.00191930
5570.39569336,0.00180649
5572.32450073,0.00185512
5574.25330811,0.00188384
5576.18211548,0.00181466
5578.11092285,0.00173345
5580.03973022,0.00183862
5581.96853760,0.00186837
5583.89734497,0.00176174
5585.82615234,0.00185147
5587.75495972,0.00182971
5589.68376709,0.00179773
5591.61257446,0.00177903
5593.54138184,0.00177702
5595.47018921,0.00181918
5597.39899658,0.00178778
5599.32780395,0.00180616
5601.25661133,0.00168502
5603.18541870,0.00174352
5605.11422607,0.00183693
5607.04303345,0.00174902
5608.97184082,0.00182111
5610.90064819,0.00172819
5612.82945557,0.00170718
5614.75826294,0.00178364
5616.68707031,0.00171918
5618.61587769,0.00168247
5620.54468506,0.00166164
5622.47349243,0.00175696
5624.40229980,0.00172342
5626.33110718,0.00168688
5628.25991455,0.00173368
5630.18872192,0.00169311
5632.11752930,0.00170912
5634.04633667,0.00167040
5635.97514404,0.00170881
5637.90395142,0.00170135
5639.83275879,0.00165675
5641.76156616,0.00171835
5643.69037353,0.00164800
5645.61918091,0.00167033
5647.54798828,0.00169941
5649.47679565,0.00163971
5651.40560303,0.00165551
5653.33441040,0.00162100
5655.26321777,0.00162693
5657.19202515,0.00166607
5659.12083252,0.00158511
5661.04963989,0.00159756
5662.97844727,0.00165167
5664.90725464,0.00155200
5666.83606201,0.00159379
5668.76486938,0.00163677
5670.69367676,0.00160154
5672.62248413,0.00162656
5674.55129150,0.00162630
5676.48009888,0.00165161
5678.40890625,0.00155759
5680.33771362,0.00160977
5682.26652100,0.00162903
5684.19532837,0.00148178
5686.12413574,0.00161177
5688.05294311,0.00160840
5689.98175049,0.00153576
5691.91055786,0.00154957
5693.83936523,0.00149034
5695.76817261,0.00147607
5697.69697998,0.00151591
5699.62578735,0.00158624
5701.55459473,0.00151334
5703.48340210,0.00150330
5705.41220947,0.00157041
5707.34101685,0.00153395
5709.26982422,0.00150382
5711.19863159,0.00152926
5713.12743896,0.00151846
5715.05624634,0.00140661
5716.98505371,0.00148497
5718.91386108,0.00153232
5720.84266846,0.00140834
5722.77147583,0.00143822
5724.70028320,0.00156611
5726.62909058,0.00153726
5728.55789795,0.00139037
5730.48670532,0.00145476
5732.41551270,0.00143494
5734.34432007,0.00139028
5736.27312744,0.00148541
5738.20193481,0.00140524
5740.13074219,0.00142098
5742.05954956,0.00147816
5743.98835693,0.00143679
5745.91716431,0.00142216
5747.84597168,0.00143294
5749.77477905,0.00143836
5751.70358643,0.00139545
5753.63239380,0.00139630
5755.56120117,0.00142345
5757.49000854,0.00143755
5759.41881592,0.00137924
5761.34762329,0.00139608
5763.27643066,0.00144915
5765.20523804,0.00139007
5767.13404541,0.00141186
5769.06285278,0.00138038
5770.99166016,0.00133554
5772.92046753,0.00135708
5774.84927490,0.00135437
5776.77808228,0.00136979
5778.70688965,0.00133711
5780.63569702,0.00134114
5782.56450439,0.00139047
5784.49331177,0.00139695
5786.42211914,0.00134258
5788.35092651,0.00134487
5790.27973389,0.00140743
5792.20854126,0.00134707
5794.13734863,0.00128646
5796.06615601,0.00125644
5797.99496338,0.00129057
5799.92377075,0.00136169
5801.85257812,0.00131589
5803.78138550,0.00133643
5805.71019287,0.00132428
5807.63900024,0.00125840
5809.56780762,0.00131088
5811.49661499,0.00129556
5813.42542236,0.00126158
5815.35422974,0.00126449
5817.28303711,0.00125451
5819.21184448,0.00127518
5821.14065186,0.00124920
5823.06945923,0.00121068
5824.99826660,0.00125169
5826.92707397,0.00129050
5828.85588135,0.00119780
5830.78468872,0.00119421
5832.71349609,0.00128884
5834.64230347,0.00121667
5836.57111084,0.00119017
5838.49991821,0.00124365
5840.42872559,0.00126036
5842.35753296,0.00123972
5844.28634033,0.00119608
5846.21514770,0.00120725
5848.14395508,0.00119696
5850.07276245,0.00120089
5852.00156982,0.00120160
5853.93037720,0.00120595
5855.85918457,0.00118652
5857.78799194,0.00110696
5859.71679932,0.00114214
5861.64560669,0.00116741
5863.57441406,0.00119170
5865.50322144,0.00122913
5867.43202881,0.00115180
5869.36083618,0.00110931
5871.28964355,0.00113315
5873.21845093,0.00118582
5875.14725830,0.00118864
5877.07606567,0.00115957
5879.00487305,0.00114637
5880.93368042,0.00107775
5882.86248779,0.00109214
5884.79129517,0.00113262
5886.72010254,0.00111556
5888.64890991,0.00114067
5890.57771728,0.00111843
5892.50652466,0.00108764
5894.43533203,0.00110224
5896.36413940,0.00115526
5898.29294678,0.00117102
5900.22175415,0.00109570
5902.15056152,0.00111968
5904.07936890,0.00113325
5906.00817627,0.00113997
5907.93698364,0.00115773
5909.86579102,0.00108629
5911.79459839,0.00115053
5913.72340576,0.00119485
5915.65221313,0.00114055
5917.58102051,0.00108672
5919.50982788,0.00106568
5921.43863525,0.00107820
5923.36744263,0.00102847
5925.29625000,0.00106203
5927.22505737,0.00104440
5929.15386475,0.00104832
5931.08267212,0.00108870
5933.01147949,0.00103902
5934.94028686,0.00108661
5936.86909424,0.00104760
5938.79790161,0.00104029
5940.72670898,0.00105774
5942.65551636,0.00099359
5944.58432373,0.00098737
5946.51313110,0.00098655
5948.44193848,0.00102372
5950.37074585,0.00098755
5952.29955322,0.00102373
5954.22836060,0.00102695
5956.15716797,0.00094788
5958.08597534,0.00101810
5960.01478271,0.00099946
5961.94359009,0.00102856
5963.87239746,0.00106977
5965.80120483,0.00101415
5967.73001221,0.00100039
5969.65881958,0.00095129
5971.58762695,0.00097847
5973.51643433,0.00099509
5975.44524170,0.00091569
5977.37404907,0.00094970
5979.30285645,0.00101453
5981.23166382,0.00095886
5983.16047119,0.00097435
5985.08927856,0.00097229
5987.01808594,0.00092855
5988.94689331,0.00100620
5990.87570068,0.00095340
5992.80450806,0.00095170
5994.73331543,0.00101230
5996.66212280,0.00094800
5998.59093018,0.00097164
6000.51973755,0.00097781
