399.26312622,0.00079286
401.19193359,0.00021348
403.12074097,0.00049632
405.04954834,0.00017057
406.97835571,0.00049406
408.90716309,0.00045826
410.83597046,-0.00019014
412.76477783,0.00069105
414.69358521,0.00040681
416.62239258,0.00056772
418.55119995,0.00061939
420.48000732,0.00029381
422.40881470,0.00046593
424.33762207,0.00025281
426.26642944,0.00049651
428.19523682,-0.00006414
430.12404419,0.00033527
432.05285156,0.00076708
433.98165894,0.00013179
435.91046631,0.00047124
437.83927368,0.00017173
439.76808105,0.00012750
441.69688843,0.00039771
443.62569580,0.00046424
445.55450317,0.00046691
447.48331055,-0.00013140
449.41211792,0.00019248
451.34092529,0.00044720
453.26973267,0.00043047
455.19854004,0.00086372
457.12734741,0.00056562
459.05615479,0.00045369
460.98496216,0.00056287
462.91376953,0.00011233
464.84257690,0.00040412
466.77138428,0.00052388
468.70019165,-0.00019564
470.62899902,0.00002619
472.55780640,0.00040187
474.48661377,0.00020303
476.41542114,0.00005701
478.34422852,-0.00002984
480.27303589,0.00026385
482.20184326,0.00021101
484.13065063,0.00008259
486.05945801,0.00039760
487.98826538,-0.00003951
489.91707275,-0.00008236
491.84588013,-0.00000590
493.77468750,-0.00043666
495.70349487,0.00026713
497.63230225,0.00049851
499.56110962,-0.00022444
501.48991699,0.00021716
503.41872437,0.00019249
505.34753174,-0.00008721
507.27633911,0.00029226
509.20514648,0.00012751
511.13395386,0.00025591
513.06276123,0.00031000
514.99156860,0.00031016
516.92037598,0.00004348
518.84918335,0.00007194
520.77799072,0.00023249
522.70679810,-0.00002410
524.63560547,0.00010109
526.56441284,0.00015659
528.49322021,0.00009912
530.42202759,-0.00012118
532.35083496,0.00031288
534.27964233,0.00041200
536.20844971,-0.00011798
538.13725708,0.00022216
540.06606445,0.00004190
541.99487183,-0.00007846
543.92367920,0.00018504
545.85248657,0.00009777
547.78129395,0.00028863
549.71010132,-0.00001860
551.63890869,0.00026875
553.56771606,0.00034535
555.49652344,0.00001237
557.42533081,0.00034479
559.35413818,-0.00002457
561.28294556,0.00017116
563.21175293,0.00024987
565.14056030,-0.00004460
567.06936768,0.00003969
568.99817505,0.00011275
570.92698242,0.00030005
572.85578979,-0.00005578
574.78459717,0.00020095
576.71340454,0.00007260
578.64221191,0.00005287
580.57101929,0.00046693
582.49982666,0.00011886
584.42863403,0.00024163
586.35744141,0.00012963
588.28624878,0.00020979
590.21505615,0.00020174
592.14386353,0.00006548
594.07267090,0.00027146
596.00147827,0.00006062
597.93028564,-0.00000105
599.85909302,-0.00011751
601.78790039,-0.00000440
603.71670776,0.00014556
605.64551514,0.00004133
607.57432251,-0.00016138
609.50312988,-0.00022797
611.43193726,0.00008120
613.36074463,-0.00002850
615.28955200,0.00039134
617.21835938,0.00053302
619.14716675,0.00005714
621.07597412,0.00011373
623.00478149,0.00011445
624.93358887,0.00009522
626.86239624,0.00015415
628.79120361,0.00004101
630.72001099,-0.00017782
632.64881836,0.00010713
634.57762573,0.00032481
636.50643311,0.00026143
638.43524048,0.00053899
640.36404785,0.00072776
642.29285522,0.00063823
644.22166260,0.00036687
646.15046997,0.00048344
648.07927734,0.00046150
650.00808472,0.00057446
651.93689209,0.00107739
653.86569946,0.00061824
655.79450684,0.00061131
657.72331421,0.00066975
659.65212158,0.00036839
661.58092896,0.00092724
663.50973633,0.00096279
665.43854370,0.00085001
667.36735107,0.00078761
669.29615845,0.00081716
671.22496582,0.00114311
673.15377319,0.00078133
675.08258057,0.00112214
677.01138794,0.00143835
678.94019531,0.00096022
680.86900269,0.00107365
682.79781006,0.00104024
684.72661743,0.00092583
686.65542480,0.00110034
688.58423218,0.00110649
690.51303955,0.00092715
692.44184692,0.00117912
694.37065430,0.00162272
696.29946167,0.00141242
698.22826904,0.00157830
700.15707642,0.00166537
702.08588379,0.00145684
704.01469116,0.00181755
705.94349854,0.00162996
707.87230591,0.00138783
709.80111328,0.00107257
711.72992065,0.00043388
713.65872803,0.00053519
715.58753540,0.00032510
717.51634277,0.00019146
719.44515015,0.00034011
721.37395752,-0.00004016
723.30276489,0.00014931
725.23157227,0.00025095
727.16037964,0.00002101
729.08918701,0.00016494
731.01799438,0.00017428
732.94680176,0.00011568
734.87560913,-0.00010111
736.80441650,0.00015669
738.73322388,0.00036958
740.66203125,-0.00004086
742.59083862,0.00001690
744.51964600,0.00029502
746.44845337,0.00019695
748.37726074,-0.00010343
750.30606812,0.00000066
752.23487549,0.00041114
754.16368286,0.00030700
756.09249023,0.00014417
758.02129761,0.00020260
759.95010498,0.00008633
761.87891235,0.00034298
763.80771973,0.00020553
765.73652710,0.00023035
767.66533447,0.00054537
769.59414185,-0.00002064
771.52294922,0.00009587
773.45175659,0.00025912
775.38056396,0.00007293
777.30937134,0.00018832
779.23817871,0.00019070
781.16698608,0.00030031
783.09579346,0.00026411
785.02460083,0.00029337
786.95340820,0.00045803
788.88221558,0.00041881
790.81102295,0.00018025
792.73983032,-0.00000215
794.66863770,0.00031559
796.59744507,0.00046411
798.52625244,0.00030485
800.45505981,0.00040712
802.38386719,0.00016044
804.31267456,0.00003989
806.24148193,0.00027898
808.17028931,0.00017991
810.09909668,0.00019650
812.02790405,0.00006265
813.95671143,-0.00001555
815.88551880,0.00028003
817.81432617,0.00017748
819.74313354,0.00013442
821.67194092,0.00017262
823.60074829,0.00001203
825.52955566,0.00044251
827.45836304,0.00034371
829.38717041,0.00002172
831.31597778,0.00037663
833.24478516,0.00036013
835.17359253,0.00040640
837.10239990,0.00056128
839.03120728,0.00065964
840.96001465,0.00050124
842.88882202,0.00037116
844.81762939,0.00061829
846.74643677,0.00001292
848.67524414,0.00006553
850.60405151,0.00062886
852.53285889,0.00007617
854.46166626,0.00021715
856.39047363,0.00045966
858.31928101,0.00015323
860.24808838,0.00030338
862.17689575,0.00035514
864.10570313,0.00033784
866.03451050,0.00022732
867.96331787,0.00003603
869.89212524,0.00018068
871.82093262,0.00020071
873.74973999,0.00007141
875.67854736,0.00030072
877.60735474,0.00031380
879.53616211,0.00018969
881.46496948,0.00042801
883.39377686,0.00032719
885.32258423,0.00034200
887.25139160,0.00040543
889.18019897,0.00031542
891.10900635,0.00047963
893.03781372,0.00033502
894.96662109,0.00018946
896.89542847,0.00000991
898.82423584,0.00005370
900.75304321,0.00013244
902.68185059,0.00000354
904.61065796,0.00025010
906.53946533,0.00024944
908.46827271,0.00041443
910.39708008,0.00039925
912.32588745,0.00032508
914.25469482,0.00033644
916.18350220,0.00010634
918.11230957,0.00062152
920.04111694,0.00065140
921.96992432,0.00060954
923.89873169,0.00063945
925.82753906,0.00024547
927.75634644,0.00069350
929.68515381,0.00072872
931.61396118,0.00061828
933.54276855,0.00082658
935.47157593,0.00058014
937.40038330,0.00052445
939.32919067,0.00061919
941.25799805,0.00072485
943.18680542,0.00081460
945.11561279,0.00076294
947.04442017,0.00056996
948.97322754,0.00064234
950.90203491,0.00085219
952.83084229,0.00077732
954.75964966,0.00069169
956.68845703,0.00070668
958.61726440,0.00099584
960.54607178,0.00091626
962.47487915,0.00060752
964.40368652,0.00076033
966.33249390,0.00074037
968.26130127,0.00072286
970.19010864,0.00092832
972.11891602,0.00086247
974.04772339,0.00081474
975.97653076,0.00108595
977.90533813,0.00115242
979.83414551,0.00108457
981.76295288,0.00121336
983.69176025,0.00132801
985.62056763,0.00141264
987.54937500,0.00156389
989.47818237,0.00174653
991.40698975,0.00181083
993.33579712,0.00196337
995.26460449,0.00217522
997.19341187,0.00230756
999.12221924,0.00258515
1001.05102661,0.00275952
1002.97983398,0.00285344
1004.90864136,0.00322046
1006.83744873,0.00344350
1008.76625610,0.00358853
1010.69506348,0.00395002
1012.62387085,0.00389889
1014.55267822,0.00417380
1016.48148560,0.00464917
1018.41029297,0.00441680
1020.33910034,0.00457514
1022.26790771,0.00496110
1024.19671509,0.00527006
1026.12552246,0.00533408
1028.05432983,0.00536574
1029.98313721,0.00600121
1031.91194458,0.00604500
1033.84075195,0.00588444
1035.76955933,0.00614051
1037.69836670,0.00631454
1039.62717407,0.00626862
1041.55598145,0.00609335
1043.48478882,0.00618260
1045.41359619,0.00611775
1047.34240356,0.00608842
1049.27121094,0.00604335
1051.20001831,0.00575891
1053.12882568,0.00575257
1055.05763306,0.00560798
1056.98644043,0.00536751
1058.91524780,0.00535727
1060.84405518,0.00527649
1062.77286255,0.00502960
1064.70166992,0.00492065
1066.63047729,0.00493746
1068.55928467,0.00467911
1070.48809204,0.00448895
1072.41689941,0.00426779
1074.34570679,0.00380932
1076.27451416,0.00394833
1078.20332153,0.00388365
1080.13212891,0.00335327
1082.06093628,0.00350217
1083.98974365,0.00333881
1085.91855103,0.00302943
1087.84735840,0.00306429
1089.77616577,0.00286367
1091.70497314,0.00280935
1093.63378052,0.00260426
1095.56258789,0.00259748
1097.49139526,0.00265536
1099.42020264,0.00249884
1101.34901001,0.00250087
1103.27781738,0.00220541
1105.20662476,0.00214478
1107.13543213,0.00214858
1109.06423950,0.00209218
1110.99304687,0.00228469
1112.92185425,0.00219420
1114.85066162,0.00219699
1116.77946899,0.00236137
1118.70827637,0.00240870
1120.63708374,0.00222908
1122.56589111,0.00203746
1124.49469849,0.00229157
1126.42350586,0.00236769
1128.35231323,0.00230983
1130.28112061,0.00254722
1132.20992798,0.00237265
1134.13873535,0.00239130
1136.06754272,0.00283286
1137.99635010,0.00286582
1139.92515747,0.00305307
1141.85396484,0.00317349
1143.78277222,0.00321501
1145.71157959,0.00348333
1147.64038696,0.00371322
1149.56919434,0.00398684
1151.49800171,0.00408417
1153.42680908,0.00430227
1155.35561646,0.00431486
1157.28442383,0.00430490
1159.21323120,0.00452537
1161.14203857,0.00470948
1163.07084595,0.00515641
1164.99965332,0.00531994
1166.92846069,0.00552047
1168.85726807,0.00563236
1170.78607544,0.00581240
1172.71488281,0.00630001
1174.64369019,0.00638072
1176.57249756,0.00663222
1178.50130493,0.00699241
1180.43011230,0.00727218
1182.35891968,0.00734828
1184.28772705,0.00785197
1186.21653442,0.00829763
1188.14534180,0.00817703
1190.07414917,0.00897832
1192.00295654,0.00947159
1193.93176392,0.00976814
1195.86057129,0.01025513
1197.78937866,0.01047597
1199.71818604,0.01117512
1201.64699341,0.01169835
1203.57580078,0.01228894
1205.50460815,0.01266415
1207.43341553,0.01293624
1209.36222290,0.01342352
1211.29103027,0.01379337
1213.21983765,0.01431704
1215.14864502,0.01450850
1217.07745239,0.01493203
1219.00625977,0.01528369
1220.93506714,0.01539688
1222.86387451,0.01572271
1224.79268188,0.01585863
1226.72148926,0.01603660
1228.65029663,0.01594831
1230.57910400,0.01592633
1232.50791138,0.01595236
1234.43671875,0.01600701
1236.36552612,0.01630546
1238.29433350,0.01607258
1240.22314087,0.01598945
1242.15194824,0.01617439
1244.08075562,0.01614369
1246.00956299,0.01607038
1247.93837036,0.01583785
1249.86717773,0.01579291
1251.79598511,0.01566893
1253.72479248,0.01554486
1255.65359985,0.01562381
1257.58240723,0.01523509
1259.51121460,0.01496927
1261.44002197,0.01478244
1263.36882935,0.01449977
1265.29763672,0.01447070
1267.22644409,0.01415932
1269.15525146,0.01412914
1271.08405884,0.01400669
1273.01286621,0.01359704
1274.94167358,0.01357101
1276.87048096,0.01330721
1278.79928833,0.01299810
1280.72809570,0.01278764
1282.65690308,0.01262975
1284.58571045,0.01227681
1286.51451782,0.01200763
1288.44332520,0.01196825
1290.37213257,0.01155022
1292.30093994,0.01163889
1294.22974731,0.01169805
1296.15855469,0.01148716
1298.08736206,0.01156793
1300.01616943,0.01154424
1301.94497681,0.01169209
1303.87378418,0.01169476
1305.80259155,0.01182292
1307.73139893,0.01208713
1309.66020630,0.01216090
1311.58901367,0.01232627
1313.51782104,0.01259720
1315.44662842,0.01303233
1317.37543579,0.01316273
1319.30424316,0.01354932
1321.23305054,0.01415963
1323.16185791,0.01439630
1325.09066528,0.01504292
1327.01947266,0.01554021
1328.94828003,0.01564483
1330.87708740,0.01615550
1332.80589478,0.01664761
1334.73470215,0.01696355
1336.66350952,0.01708383
1338.59231689,0.01674864
1340.52112427,0.01703826
1342.44993164,0.01776631
1344.37873901,0.01779314
1346.30754639,0.01792128
1348.23635376,0.01800130
1350.16516113,0.01782063
1352.09396851,0.01774205
1354.02277588,0.01744696
1355.95158325,0.01745661
1357.88039062,0.01727474
1359.80919800,0.01684843
1361.73800537,0.01643667
1363.66681274,0.01628384
1365.59562012,0.01696491
1367.52442749,0.01657163
1369.45323486,0.01638116
1371.38204224,0.01670788
1373.31084961,0.01574307
1375.23965698,0.01592961
1377.16846436,0.01647928
1379.09727173,0.01649453
1381.02607910,0.01646128
1382.95488647,0.01637397
1384.88369385,0.01668346
1386.81250122,0.01591911
1388.74130859,0.01599578
1390.67011597,0.01729068
1392.59892334,0.01683146
1394.52773071,0.01586173
1396.45653809,0.01648664
1398.38534546,0.01639914
1400.31415283,0.01642847
1402.24296021,0.01799545
1404.17176758,0.01711386
1406.10057495,0.01696872
1408.02938232,0.01749040
1409.95818970,0.01698856
1411.88699707,0.01749245
1413.81580444,0.01648473
1415.74461182,0.01685829
1417.67341919,0.01547295
1419.60222656,0.01379075
1421.53103394,0.01614950
1423.45984131,0.01543390
1425.38864868,0.01487383
1427.31745605,0.01525173
1429.24626343,0.01405187
1431.17507080,0.01368794
1433.10387817,0.01390945
1435.03268555,0.01283707
1436.96149292,0.01088422
1438.89030029,0.01238221
1440.81910767,0.01263537
1442.74791504,0.01164840
1444.67672241,0.01235921
1446.60552979,0.01131120
1448.53433716,0.01153288
1450.46314453,0.01190156
1452.39195190,0.01204013
1454.32075928,0.01239844
1456.24956665,0.01042821
1458.17837402,0.01110240
1460.10718140,0.01450806
1462.03598877,0.01549339
1463.96479614,0.01532494
1465.89360352,0.01594333
1467.82241089,0.01814600
1469.75121826,0.01936787
1471.68002563,0.01737249
1473.60883301,0.01832553
1475.53764038,0.02082697
1477.46644775,0.02242812
1479.39525513,0.02475374
1481.32406250,0.02494383
1483.25286987,0.02634950
1485.18167725,0.02733731
1487.11048462,0.02687165
1489.03929199,0.02679080
1490.96809937,0.02710529
1492.89690674,0.03132271
1494.82571411,0.03043812
1496.75452148,0.02762797
1498.68332886,0.03119987
1500.61213623,0.03206551
1502.54094360,0.03436143
1504.46975098,0.03239357
1506.39855835,0.02405291
1508.32736572,0.02919021
1510.25617310,0.03396831
1512.18498047,0.03307098
1514.11378784,0.03568718
1516.04259521,0.03245746
1517.97140259,0.03368666
1519.90020996,0.03233481
1521.82901733,0.02844030
1523.75782471,0.03451920
1525.68663208,0.03393262
1527.61543945,0.03399003
1529.54424683,0.03720645
1531.47305420,0.03589183
1533.40186157,0.03331131
1535.33066895,0.03522257
1537.25947632,0.03736381
1539.18828369,0.02714318
1541.11709106,0.02864978
1543.04589844,0.03396131
1544.97470581,0.03262489
1546.90351318,0.03829756
1548.83232056,0.03573884
1550.76112793,0.03690960
1552.68993530,0.03659923
1554.61874268,0.03342244
1556.54755005,0.03565949
1558.47635742,0.02570247
1560.40516479,0.02791450
1562.33397217,0.03894310
1564.26277954,0.03691712
1566.19158691,0.03779434
1568.12039429,0.03732456
1570.04920166,0.03332465
1571.97800903,0.03837521
1573.90681641,0.03866407
1575.83562378,0.03106068
1577.76443115,0.03506254
1579.69323853,0.03921618
1581.62204590,0.03789401
1583.55085327,0.03872198
1585.47966064,0.03812273
1587.40846802,0.03856888
1589.33727539,0.03817730
1591.26608276,0.03841349
1593.19489014,0.03836190
1595.12369751,0.03783259
1597.05250488,0.03846889
1598.98131226,0.03821403
1600.91011963,0.03835761
1602.83892700,0.03770847
1604.76773437,0.03838869
1606.69654175,0.03797086
1608.62534912,0.03804158
1610.55415649,0.03786481
1612.48296387,0.03822540
1614.41177124,0.03867957
1616.34057861,0.03199364
1618.26938599,0.03477392
1620.19819336,0.03990949
1622.12700073,0.03573799
1624.05580811,0.03591298
1625.98461548,0.03772670
1627.91342285,0.03754557
1629.84223022,0.03711266
1631.77103760,0.03970533
1633.69984497,0.03657038
1635.62865234,0.03060808
1637.55745972,0.03544568
1639.48626709,0.03879218
1641.41507446,0.03803620
1643.34388184,0.03894443
1645.27268921,0.03529115
1647.20149658,0.03135050
1649.13030396,0.03882381
1651.05911133,0.03643043
1652.98791870,0.02399109
1654.91672607,0.03252503
1656.84553345,0.04000222
1658.77434082,0.03847588
1660.70314819,0.03947896
1662.63195557,0.03598284
1664.56076294,0.03804648
1666.48957031,0.04059196
1668.41837769,0.03571463
1670.34718506,0.03476426
1672.27599243,0.03922850
1674.20479980,0.03639653
1676.13360718,0.03508047
1678.06241455,0.04017227
1679.99122192,0.03864183
1681.92002930,0.03821429
1683.84883667,0.03126355
1685.77764404,0.03127461
1687.70645142,0.04219336
1689.63525879,0.03651643
1691.56406616,0.04035050
1693.49287354,0.04089748
1695.42168091,0.03017452
1697.35048828,0.03713106
1699.27929565,0.03275691
1701.20810303,0.02991705
1703.13691040,0.04002415
1705.06571777,0.03685702
1706.99452515,0.03737894
1708.92333252,0.04026530
1710.85213989,0.03875325
1712.78094727,0.03927045
1714.70975464,0.03661669
1716.63856201,0.03312494
1718.56736938,0.03258106
1720.49617676,0.03853046
1722.42498413,0.03966740
1724.35379150,0.03715467
1726.28259888,0.04042181
1728.21140625,0.03710289
1730.14021362,0.03768089
1732.06902100,0.03664013
1733.99782837,0.02818731
1735.92663574,0.03498825
1737.85544312,0.03847080
1739.78425049,0.03445394
1741.71305786,0.03738251
1743.64186523,0.03791940
1745.57067261,0.03789683
1747.49947998,0.03831413
1749.42828735,0.03694124
1751.35709473,0.03520121
1753.28590210,0.03894471
1755.21470947,0.04069977
1757.14351685,0.03725773
1759.07232422,0.04090875
1761.00113159,0.03836314
1762.92993896,0.03723957
1764.85874634,0.04231666
1766.78755371,0.03821547
1768.71636108,0.03883497
1770.64516846,0.03843258
1772.57397583,0.03466917
1774.50278320,0.03871660
1776.43159058,0.04084239
1778.36039795,0.04017358
1780.28920532,0.03972409
1782.21801270,0.04009893
1784.14682007,0.04003298
1786.07562744,0.03939864
1788.00443481,0.04130712
1789.93324219,0.04032937
1791.86204956,0.03673726
1793.79085693,0.03825410
1795.71966431,0.04093738
1797.64847168,0.04031248
1799.57727905,0.03982293
1801.50608643,0.03923455
1803.43489380,0.04034991
1805.36370117,0.04121963
1807.29250854,0.04072133
1809.22131592,0.04094404
1811.15012329,0.03991437
1813.07893066,0.04106824
1815.00773804,0.04134756
1816.93654541,0.04089225
1818.86535278,0.04127871
1820.79416016,0.04128505
1822.72296753,0.04180525
1824.65177490,0.03913871
1826.58058228,0.04044849
1828.50938965,0.04063758
1830.43819702,0.03838939
1832.36700439,0.04143248
1834.29581177,0.04131315
1836.22461914,0.04142243
1838.15342651,0.04114996
1840.08223389,0.04145104
1842.01104126,0.04149944
1843.93984863,0.03699214
1845.86865601,0.03942448
1847.79746338,0.04152915
1849.72627075,0.04065707
1851.65507812,0.04184933
1853.58388550,0.04098783
1855.51269287,0.04143547
1857.44150024,0.04127506
1859.37030762,0.04100729
1861.29911499,0.04128580
1863.22792236,0.04082879
1865.15672974,0.04134575
1867.08553711,0.03986191
1869.01434448,0.03829952
1870.94315186,0.03995432
1872.87195923,0.04134420
1874.80076660,0.04087638
1876.72957397,0.04108170
1878.65838135,0.04092766
1880.58718872,0.04073057
1882.51599609,0.04101077
1884.44480347,0.04039818
1886.37361084,0.04092506
1888.30241821,0.04024546
1890.23122559,0.03952734
1892.16003296,0.04088856
1894.08884033,0.04037611
1896.01764771,0.04020870
1897.94645508,0.04071597
1899.87526245,0.04044244
1901.80406982,0.04066368
1903.73287720,0.04050304
1905.66168457,0.04054222
1907.59049194,0.04029451
1909.51929932,0.04010686
1911.44810669,0.04017572
1913.37691406,0.04032798
1915.30572144,0.04077398
1917.23452881,0.03888203
1919.16333618,0.03905644
1921.09214355,0.04057646
1923.02095093,0.03926752
1924.94975830,0.04013977
1926.87856567,0.04051720
1928.80737305,0.04006130
1930.73618042,0.04060199
1932.66498779,0.04008820
1934.59379517,0.04049719
1936.52260254,0.04030017
1938.45140991,0.04040632
1940.38021729,0.04026168
1942.30902466,0.03910179
1944.23783203,0.03982739
1946.16663940,0.04020155
1948.09544678,0.04021172
1950.02425415,0.04034306
1951.95306152,0.04026294
1953.88186890,0.04027031
1955.81067627,0.04004693
1957.73948364,0.04019790
1959.66829102,0.04008543
1961.59709839,0.04014566
1963.52590576,0.04050639
1965.45471313,0.04021570
1967.38352051,0.03964329
1969.31232788,0.04006259
1971.24113525,0.04047138
1973.16994263,0.04006685
1975.09875000,0.04021592
1977.02755737,0.04018291
1978.95636475,0.04014815
1980.88517212,0.04014805
1982.81397949,0.04013263
1984.74278687,0.04028181
1986.67159424,0.03985042
1988.60040161,0.03978509
1990.52920898,0.03949717
1992.45801636,0.03931244
1994.38682373,0.03983164
1996.31563110,0.03990804
1998.24443848,0.03987772
2000.17324585,0.03981354
2002.10205322,0.03978903
2004.03086060,0.03975920
2005.95966797,0.03949746
2007.88847534,0.03942224
2009.81728271,0.03951304
2011.74609009,0.03949676
2013.67489746,0.03944354
2015.60370483,0.03910723
2017.53251221,0.03886207
2019.46131958,0.03924183
2021.39012695,0.03917435
2023.31893433,0.03897733
2025.24774170,0.03907063
2027.17654907,0.03900344
2029.10535645,0.03908224
2031.03416382,0.03892481
2032.96297119,0.03880581
2034.89177856,0.03883351
2036.82058594,0.03872051
2038.74939331,0.03873024
2040.67820068,0.03856296
2042.60700806,0.03844828
2044.53581543,0.03853829
2046.46462280,0.03837600
2048.39343018,0.03827877
2050.32223755,0.03828472
2052.25104492,0.03815889
2054.17985229,0.03828567
2056.10865967,0.03830212
2058.03746704,0.03805115
2059.96627441,0.03803330
2061.89508179,0.03803236
2063.82388916,0.03777705
2065.75269653,0.03767045
2067.68150391,0.03787521
2069.61031128,0.03783771
2071.53911865,0.03787489
2073.46792603,0.03795949
2075.39673340,0.03767215
2077.32554077,0.03759152
2079.25434814,0.03756681
2081.18315552,0.03749065
2083.11196289,0.03762422
2085.04077026,0.03758412
2086.96957764,0.03731869
2088.89838501,0.03725848
2090.82719238,0.03718088
2092.75599976,0.03716914
2094.68480713,0.03733460
2096.61361450,0.03716618
2098.54242187,0.03725211
2100.47122925,0.03719454
2102.40003662,0.03685758
2104.32884399,0.03706802
2106.25765137,0.03703725
2108.18645874,0.03697453
2110.11526611,0.03702807
2112.04407349,0.03687076
2113.97288086,0.03692520
2115.90168823,0.03681254
2117.83049561,0.03672181
2119.75930298,0.03685364
2121.68811035,0.03674471
2123.61691772,0.03664574
2125.54572510,0.03660271
2127.47453247,0.03661604
2129.40333984,0.03670690
2131.33214722,0.03659478
2133.26095459,0.03660044
2135.18976196,0.03650718
2137.11856934,0.03638615
2139.04737671,0.03651680
2140.97618408,0.03634475
2142.90499146,0.03631080
2144.83379883,0.03640310
2146.76260620,0.03632347
2148.69141357,0.03629587
2150.62022095,0.03628563
2152.54902832,0.03629837
2154.47783569,0.03619152
2156.40664307,0.03623001
2158.33545044,0.03625295
2160.26425781,0.03618448
2162.19306519,0.03616750
2164.12187256,0.03620508
2166.05067993,0.03627102
2167.97948730,0.03601281
2169.90829468,0.03612829
2171.83710205,0.03626975
2173.76590942,0.03595545
2175.69471680,0.03597632
2177.62352417,0.03600735
2179.55233154,0.03597940
2181.48113892,0.03597035
2183.40994629,0.03591260
2185.33875366,0.03600527
2187.26756104,0.03594717
2189.19636841,0.03589496
2191.12517578,0.03595939
2193.05398315,0.03579583
2194.98279053,0.03578206
2196.91159790,0.03591509
2198.84040527,0.03583612
2200.76921265,0.03578398
2202.69802002,0.03566427
2204.62682739,0.03566807
2206.55563477,0.03576691
2208.48444214,0.03572650
2210.41324951,0.03580700
2212.34205688,0.03568981
2214.27086426,0.03545843
2216.19967163,0.03554704
2218.12847900,0.03566873
2220.05728638,0.03554958
2221.98609375,0.03545431
2223.91490112,0.03535821
2225.84370850,0.03535432
2227.77251587,0.03550972
2229.70132324,0.03537714
2231.63013062,0.03528328
2233.55893799,0.03525548
2235.48774536,0.03526635
2237.41655273,0.03522374
2239.34536011,0.03501336
2241.27416748,0.03515904
2243.20297485,0.03524500
2245.13178223,0.03513816
2247.06058960,0.03503761
2248.98939697,0.03504654
2250.91820435,0.03497341
2252.84701172,0.03484366
2254.77581909,0.03500228
2256.70462646,0.03485674
2258.63343384,0.03487293
2260.56224121,0.03489018
2262.49104858,0.03464204
2264.41985596,0.03474941
2266.34866333,0.03472348
2268.27747070,0.03476801
2270.20627808,0.03484252
2272.13508545,0.03477190
2274.06389282,0.03471413
2275.99270020,0.03457995
2277.92150757,0.03464947
2279.85031494,0.03468581
2281.77912231,0.03461371
2283.70792969,0.03462299
2285.63673706,0.03458221
2287.56554443,0.03451660
2289.49435181,0.03444082
2291.42315918,0.03423231
2293.35196655,0.03417058
2295.28077393,0.03417105
2297.20958130,0.03402790
2299.13838867,0.03404614
2301.06719604,0.03395554
2302.99600342,0.03376556
2304.92481079,0.03364542
2306.85361816,0.03343629
2308.78242554,0.03315855
2310.71123291,0.03297719
2312.64004028,0.03271978
2314.56884766,0.03227386
2316.49765503,0.03200571
2318.42646240,0.03156665
2320.35526978,0.03112751
2322.28407715,0.03076733
2324.21288452,0.03043292
2326.14169189,0.03030540
2328.07049927,0.02977069
2329.99930664,0.02939030
2331.92811401,0.02936713
2333.85692139,0.02920929
2335.78572876,0.02900437
2337.71453613,0.02905665
2339.64334351,0.02912201
2341.57215088,0.02908508
2343.50095825,0.02960286
2345.42976562,0.03011108
2347.35857300,0.03130533
2349.28738037,0.03235544
2351.21618774,0.03132008
2353.14499512,0.02985289
2355.07380249,0.02863895
2357.00260986,0.02781228
2358.93141724,0.02736158
2360.86022461,0.02701017
2362.78903198,0.02708597
2364.71783936,0.02726972
2366.64664673,0.02758582
2368.57545410,0.02795603
2370.50426147,0.02868196
2372.43306885,0.02953550
2374.36187622,0.03027162
2376.29068359,0.03118298
2378.21949097,0.03192991
2380.14829834,0.03241447
2382.07710571,0.03271054
2384.00591309,0.03307278
2385.93472046,0.03313987
2387.86352783,0.03312682
2389.79233521,0.03325946
2391.72114258,0.03312737
2393.64994995,0.03314073
2395.57875732,0.03316059
2397.50756470,0.03309299
2399.43637207,0.03306143
2401.36517944,0.03313394
2403.29398682,0.03300222
2405.22279419,0.03280032
2407.15160156,0.03299882
2409.08040894,0.03296707
2411.00921631,0.03289715
2412.93802368,0.03287618
2414.86683105,0.03287753
2416.79563843,0.03287626
2418.72444580,0.03266581
2420.65325317,0.03275292
2422.58206055,0.03278441
2424.51086792,0.03269552
2426.43967529,0.03277314
2428.36848267,0.03277272
2430.29729004,0.03262727
2432.22609741,0.03265188
2434.15490479,0.03272133
2436.08371216,0.03260548
2438.01251953,0.03261813
2439.94132690,0.03252449
2441.87013428,0.03258454
2443.79894165,0.03256883
2445.72774902,0.03241522
2447.65655640,0.03252917
2449.58536377,0.03238056
2451.51417114,0.03239975
2453.44297852,0.03239153
2455.37178589,0.03227457
2457.30059326,0.03224786
2459.22940063,0.03211819
2461.15820801,0.03228796
2463.08701538,0.03221801
2465.01582275,0.03216805
2466.94463013,0.03227489
2468.87343750,0.03204997
2470.80224487,0.03192896
2472.73105225,0.03203739
2474.65985962,0.03219247
2476.58866699,0.03210483
2478.51747437,0.03202312
2480.44628174,0.03207095
2482.37508911,0.03199463
2484.30389648,0.03186611
2486.23270386,0.03191127
2488.16151123,0.03196350
2490.09031860,0.03178377
2492.01912598,0.03182072
2493.94793335,0.03183710
2495.87674072,0.03177243
2497.80554810,0.03174941
2499.73435547,0.03167018
2501.66316284,0.03172568
2503.59197021,0.03162248
2505.52077759,0.03161010
2507.44958496,0.03165524
2509.37839233,0.03165587
2511.30719971,0.03161603
2513.23600708,0.03149616
2515.16481445,0.03167184
2517.09362183,0.03158881
2519.02242920,0.03149573
2520.95123657,0.03152681
2522.88004395,0.03137093
2524.80885132,0.03152402
2526.73765869,0.03151105
2528.66646606,0.03125909
2530.59527344,0.03126097
2532.52408081,0.03142028
2534.45288818,0.03139237
2536.38169556,0.03120998
2538.31050293,0.03116735
2540.23931030,0.03118115
2542.16811768,0.03120468
2544.09692505,0.03108589
2546.02573242,0.03106281
2547.95453979,0.03115452
2549.88334717,0.03114735
2551.81215454,0.03112571
2553.74096191,0.03096319
2555.66976929,0.03102263
2557.59857666,0.03110594
2559.52738403,0.03097875
2561.45619141,0.03096604
2563.38499878,0.03093076
2565.31380615,0.03094117
2567.24261353,0.03090741
2569.17142090,0.03085465
2571.10022827,0.03086250
2573.02903564,0.03077288
2574.95784302,0.03078828
2576.88665039,0.03078595
2578.81545776,0.03069247
2580.74426514,0.03072217
2582.67307251,0.03066710
2584.60187988,0.03058267
2586.53068726,0.03065911
2588.45949463,0.03058029
2590.38830200,0.03053812
2592.31710937,0.03061936
2594.24591675,0.03048690
2596.17472412,0.03042181
2598.10353149,0.03036918
2600.03233887,0.03031941
2601.96114624,0.03036971
2603.88995361,0.03028959
2605.81876099,0.03030707
2607.74756836,0.03030062
2609.67637573,0.03019525
2611.60518311,0.03018811
2613.53399048,0.03016987
2615.46279785,0.03011163
2617.39160522,0.03004157
2619.32041260,0.03012804
2621.24921997,0.03011531
2623.17802734,0.02998126
2625.10683472,0.02997621
2627.03564209,0.02992791
2628.96444946,0.03002337
2630.89325684,0.02999934
2632.82206421,0.02993895
2634.75087158,0.03005938
2636.67967895,0.02991436
2638.60848633,0.02985517
2640.53729370,0.02982918
2642.46610107,0.02981590
2644.39490845,0.02985080
2646.32371582,0.02970643
2648.25252319,0.02976388
2650.18133057,0.02976133
2652.11013794,0.02968659
2654.03894531,0.02958646
2655.96775269,0.02957909
2657.89656006,0.02969078
2659.82536743,0.02943916
2661.75417480,0.02946344
2663.68298218,0.02959231
2665.61178955,0.02950672
2667.54059692,0.02945451
2669.46940430,0.02941613
2671.39821167,0.02955766
2673.32701904,0.02938144
2675.25582642,0.02932773
2677.18463379,0.02944074
2679.11344116,0.02922858
2681.04224854,0.02925989
2682.97105591,0.02925117
2684.89986328,0.02914983
2686.82867065,0.02912551
2688.75747803,0.02901561
2690.68628540,0.02908283
2692.61509277,0.02913207
2694.54390015,0.02900430
2696.47270752,0.02910681
2698.40151489,0.02920355
2700.33032227,0.02901829
2702.25912964,0.02897375
2704.18793701,0.02899295
2706.11674438,0.02897722
2708.04555176,0.02882852
2709.97435913,0.02871276
2711.90316650,0.02884004
2713.83197388,0.02879930
2715.76078125,0.02876106
2717.68958862,0.02860995
2719.61839600,0.02854460
2721.54720337,0.02867363
2723.47601074,0.02849651
2725.40481812,0.02848284
2727.33362549,0.02854311
2729.26243286,0.02848591
2731.19124023,0.02851488
2733.12004761,0.02849111
2735.04885498,0.02835713
2736.97766235,0.02828417
2738.90646973,0.02837405
2740.83527710,0.02830698
2742.76408447,0.02826904
2744.69289185,0.02830907
2746.62169922,0.02821176
2748.55050659,0.02816745
2750.47931396,0.02820345
2752.40812134,0.02817645
2754.33692871,0.02809470
2756.26573608,0.02809931
2758.19454346,0.02804138
2760.12335083,0.02803323
2762.05215820,0.02800424
2763.98096558,0.02788760
2765.90977295,0.02793557
2767.83858032,0.02793790
2769.76738770,0.02785063
2771.69619507,0.02769532
2773.62500244,0.02767583
2775.55380981,0.02769726
2777.48261719,0.02767977
2779.41142456,0.02769650
2781.34023193,0.02754830
2783.26903931,0.02756235
2785.19784668,0.02747922
2787.12665405,0.02741324
2789.05546143,0.02747253
2790.98426880,0.02733356
2792.91307617,0.02739120
2794.84188354,0.02734644
2796.77069092,0.02725879
2798.69949829,0.02726501
2800.62830566,0.02726955
2802.55711304,0.02727391
2804.48592041,0.02708405
2806.41472778,0.02717323
2808.34353516,0.02722195
2810.27234253,0.02702926
2812.20114990,0.02697203
2814.12995728,0.02694048
2816.05876465,0.02698675
2817.98757202,0.02693749
2819.91637939,0.02681358
2821.84518677,0.02682392
2823.77399414,0.02688042
2825.70280151,0.02674592
2827.63160889,0.02663702
2829.56041626,0.02672315
2831.48922363,0.02662882
2833.41803101,0.02662874
2835.34683838,0.02657836
2837.27564575,0.02636917
2839.20445312,0.02643894
2841.13326050,0.02632381
2843.06206787,0.02621799
2844.99087524,0.02631009
2846.91968262,0.02601854
2848.84848999,0.02577125
2850.77729736,0.02580545
2852.70610474,0.02583111
2854.63491211,0.02590325
2856.56371948,0.02583347
2858.49252686,0.02570245
2860.42133423,0.02575089
2862.35014160,0.02575907
2864.27894897,0.02575197
2866.20775635,0.02573639
2868.13656372,0.02560505
2870.06537109,0.02558833
2871.99417847,0.02561076
2873.92298584,0.02559802
2875.85179321,0.02557303
2877.78060059,0.02545572
2879.70940796,0.02548568
2881.63821533,0.02543755
2883.56702270,0.02529391
2885.49583008,0.02543548
2887.42463745,0.02551102
2889.35344482,0.02540989
2891.28225220,0.02528519
2893.21105957,0.02524468
2895.13986694,0.02526749
2897.06867432,0.02512895
2898.99748169,0.02508464
2900.92628906,0.02514617
2902.85509644,0.02505465
2904.78390381,0.02489603
2906.71271118,0.02485789
2908.64151855,0.02489141
2910.57032593,0.02473373
2912.49913330,0.02452477
2914.42794067,0.02449435
2916.35674805,0.02450353
2918.28555542,0.02438984
2920.21436279,0.02429792
2922.14317017,0.02433919
2924.07197754,0.02429895
2926.00078491,0.02424521
2927.92959229,0.02436041
2929.85839966,0.02429795
2931.78720703,0.02405019
2933.71601440,0.02417354
2935.64482178,0.02433351
2937.57362915,0.02421010
2939.50243652,0.02419630
2941.43124390,0.02419796
2943.36005127,0.02422405
2945.28885864,0.02422613
2947.21766602,0.02413048
2949.14647339,0.02414448
2951.07528076,0.02407376
2953.00408813,0.02403079
2954.93289551,0.02400457
2956.86170288,0.02386828
2958.79051025,0.02384719
2960.71931763,0.02378670
2962.64812500,0.02375701
2964.57693237,0.02379138
2966.50573975,0.02382881
2968.43454712,0.02389715
2970.36335449,0.02375383
2972.29216187,0.02375540
2974.22096924,0.02393429
2976.14977661,0.02391813
2978.07858398,0.02390214
2980.00739136,0.02389707
2981.93619873,0.02390293
2983.86500610,0.02387429
2985.79381348,0.02379491
2987.72262085,0.02380612
2989.65142822,0.02384597
2991.58023560,0.02380361
2993.50904297,0.02368043
2995.43785034,0.02371765
2997.36665771,0.02372224
2999.29546509,0.02359103
3001.22427246,0.02356031
3003.15307983,0.02348226
3005.08188721,0.02343088
3007.01069458,0.02348077
3008.93950195,0.02346503
3010.86830933,0.02332134
3012.79711670,0.02328789
3014.72592407,0.02335257
3016.65473145,0.02327397
3018.58353882,0.02321715
3020.51234619,0.02319119
3022.44115356,0.02319528
3024.36996094,0.02315659
3026.29876831,0.02313074
3028.22757568,0.02311353
3030.15638306,0.02296713
3032.08519043,0.02298227
3034.01399780,0.02294193
3035.94280518,0.02286588
3037.87161255,0.02289663
3039.80041992,0.02290602
3041.72922729,0.02294362
3043.65803467,0.02283905
3045.58684204,0.02275446
3047.51564941,0.02271215
3049.44445679,0.02270960
3051.37326416,0.02263014
3053.30207153,0.02252812
3055.23087891,0.02257926
3057.15968628,0.02240087
3059.08849365,0.02239705
3061.01730103,0.02245434
3062.94610840,0.02235545
3064.87491577,0.02233462
3066.80372314,0.02220689
3068.73253052,0.02227449
3070.66133789,0.02222291
3072.59014526,0.02220235
3074.51895264,0.02231020
3076.44776001,0.02212181
3078.37656738,0.02218712
3080.30537476,0.02214832
3082.23418213,0.02201979
3084.16298950,0.02212270
3086.09179687,0.02202080
3088.02060425,0.02199804
3089.94941162,0.02193907
3091.87821899,0.02184557
3093.80702637,0.02194120
3095.73583374,0.02186540
3097.66464111,0.02178057
3099.59344849,0.02172513
3101.52225586,0.02158817
3103.45106323,0.02165928
3105.37987061,0.02174056
3107.30867798,0.02159496
3109.23748535,0.02151193
3111.16629272,0.02145831
3113.09510010,0.02134634
3115.02390747,0.02139008
3116.95271484,0.02130214
3118.88152222,0.02120403
3120.81032959,0.02135627
3122.73913696,0.02126568
3124.66794434,0.02116028
3126.59675171,0.02114728
3128.52555908,0.02110064
3130.45436645,0.02114390
3132.38317383,0.02102340
3134.31198120,0.02102960
3136.24078857,0.02101970
3138.16959595,0.02084717
3140.09840332,0.02080618
3142.02721069,0.02076561
3143.95601807,0.02075137
3145.88482544,0.02065359
3147.81363281,0.02068373
3149.74244019,0.02066032
3151.67124756,0.02051437
3153.60005493,0.02057320
3155.52886230,0.02046611
3157.45766968,0.02043805
3159.38647705,0.02037825
3161.31528442,0.02022118
3163.24409180,0.02022509
3165.17289917,0.02015443
3167.10170654,0.02013975
3169.03051392,0.02010566
3170.95932129,0.02010389
3172.88812866,0.02002897
3174.81693604,0.02001183
3176.74574341,0.02003540
3178.67455078,0.01977862
3180.60335815,0.01988745
3182.53216553,0.01992488
3184.46097290,0.01966125
3186.38978027,0.01972872
3188.31858765,0.01976581
3190.24739502,0.01965136
3192.17620239,0.01963004
3194.10500977,0.01966789
3196.03381714,0.01950885
3197.96262451,0.01941251
3199.89143188,0.01951744
3201.82023926,0.01945720
3203.74904663,0.01942470
3205.67785400,0.01941201
3207.60666138,0.01926135
3209.53546875,0.01923050
3211.46427612,0.01933692
3213.39308350,0.01927284
3215.32189087,0.01910958
3217.25069824,0.01909383
3219.17950562,0.01910382
3221.10831299,0.01906538
3223.03712036,0.01902883
3224.96592773,0.01903795
3226.89473511,0.01900619
3228.82354248,0.01888118
3230.75234985,0.01888813
3232.68115723,0.01892844
3234.60996460,0.01878382
3236.53877197,0.01876222
3238.46757935,0.01880847
3240.39638672,0.01875464
3242.32519409,0.01881078
3244.25400146,0.01874488
3246.18280884,0.01870183
3248.11161621,0.01875377
3250.04042358,0.01867305
3251.96923096,0.01872526
3253.89803833,0.01868325
3255.82684570,0.01856620
3257.75565308,0.01864340
3259.68446045,0.01864482
3261.61326782,0.01859047
3263.54207520,0.01861842
3265.47088257,0.01856803
3267.39968994,0.01845158
3269.32849731,0.01854306
3271.25730469,0.01865817
3273.18611206,0.01849639
3275.11491943,0.01837595
3277.04372681,0.01847918
3278.97253418,0.01846191
3280.90134155,0.01838499
3282.83014893,0.01839266
3284.75895630,0.01836390
3286.68776367,0.01834407
3288.61657104,0.01825165
3290.54537842,0.01816795
3292.47418579,0.01815176
3294.40299316,0.01826532
3296.33180054,0.01828590
3298.26060791,0.01818843
3300.18941528,0.01830576
3302.11822266,0.01820361
3304.04703003,0.01823274
3305.97583740,0.01823111
3307.90464478,0.01796125
3309.83345215,0.01809070
3311.76225952,0.01810726
3313.69106689,0.01809008
3315.61987427,0.01807692
3317.54868164,0.01799666
3319.47748901,0.01801013
3321.40629639,0.01793679
3323.33510376,0.01797981
3325.26391113,0.01793591
3327.19271851,0.01795666
3329.12152588,0.01788113
3331.05033325,0.01782466
3332.97914062,0.01793140
3334.90794800,0.01780955
3336.83675537,0.01787829
3338.76556274,0.01780457
3340.69437012,0.01768812
3342.62317749,0.01778327
3344.55198486,0.01772249
3346.48079224,0.01764689
3348.40959961,0.01764812
3350.33840698,0.01769481
3352.26721436,0.01761796
3354.19602173,0.01761198
3356.12482910,0.01759391
3358.05363647,0.01753920
3359.98244385,0.01750105
3361.91125122,0.01742193
3363.84005859,0.01752112
3365.76886597,0.01748341
3367.69767334,0.01734250
3369.62648071,0.01731293
3371.55528809,0.01739516
3373.48409546,0.01732815
3375.41290283,0.01723324
3377.34171020,0.01729208
3379.27051758,0.01723532
3381.19932495,0.01728328
3383.12813232,0.01717572
3385.05693970,0.01712865
3386.98574707,0.01718536
3388.91455444,0.01710617
3390.84336182,0.01708646
3392.77216919,0.01693803
3394.70097656,0.01698219
3396.62978394,0.01696555
3398.55859131,0.01688240
3400.48739868,0.01691963
3402.41620605,0.01690307
3404.34501343,0.01689579
3406.27382080,0.01684564
3408.20262817,0.01688499
3410.13143555,0.01674703
3412.06024292,0.01677050
3413.98905029,0.01681212
3415.91785767,0.01674850
3417.84666504,0.01674198
3419.77547241,0.01643194
3421.70427979,0.01656706
3423.63308716,0.01668941
3425.56189453,0.01653445
3427.49070190,0.01652210
3429.41950928,0.01646761
3431.34831665,0.01656085
3433.27712402,0.01650782
3435.20593140,0.01648039
3437.13473877,0.01640368
3439.06354614,0.01629800
3440.99235352,0.01634236
3442.92116089,0.01630105
3444.84996826,0.01631341
3446.77877563,0.01617219
3448.70758301,0.01615927
3450.63639038,0.01627258
3452.56519775,0.01623335
3454.49400513,0.01620992
3456.42281250,0.01615341
3458.35161987,0.01621093
3460.28042725,0.01617174
3462.20923462,0.01606845
3464.13804199,0.01618027
3466.06684937,0.01612592
3467.99565674,0.01604839
3469.92446411,0.01611113
3471.85327148,0.01608788
3473.78207886,0.01613661
3475.71088623,0.01603594
3477.63969360,0.01599579
3479.56850098,0.01601059
3481.49730835,0.01578389
3483.42611572,0.01588705
3485.35492310,0.01597376
3487.28373047,0.01594401
3489.21253784,0.01589877
3491.14134521,0.01580906
3493.07015259,0.01596069
3494.99895996,0.01592804
3496.92776733,0.01579546
3498.85657471,0.01578464
3500.78538208,0.01587607
3502.71418945,0.01564142
3504.64299683,0.01553404
3506.57180420,0.01589939
3508.50061157,0.01571022
3510.42941895,0.01560235
3512.35822632,0.01576882
3514.28703369,0.01579654
3516.21584106,0.01578512
3518.14464844,0.01576751
3520.07345581,0.01587648
3522.00226318,0.01567103
3523.93107056,0.01550661
3525.85987793,0.01549824
3527.78868530,0.01550245
3529.71749268,0.01554103
3531.64630005,0.01560444
3533.57510742,0.01584029
3535.50391479,0.01571099
3537.43272217,0.01556633
3539.36152954,0.01568235
3541.29033691,0.01570432
3543.21914429,0.01568380
3545.14795166,0.01537512
3547.07675903,0.01517405
3549.00556641,0.01560086
3550.93437378,0.01567228
3552.86318115,0.01534224
3554.79198853,0.01557294
3556.72079590,0.01579380
3558.64960327,0.01564696
3560.57841064,0.01530410
3562.50721802,0.01543834
3564.43602539,0.01563597
3566.36483276,0.01454740
3568.29364014,0.01417271
3570.22244751,0.01534200
3572.15125488,0.01574668
3574.08006226,0.01544516
3576.00886963,0.01548572
3577.93767700,0.01545699
3579.86648437,0.01552008
3581.79529175,0.01553651
3583.72409912,0.01553687
3585.65290649,0.01522167
3587.58171387,0.01395321
3589.51052124,0.01438607
3591.43932861,0.01565413
3593.36813599,0.01521851
3595.29694336,0.01489740
3597.22575073,0.01522511
3599.15455811,0.01543698
3601.08336548,0.01523050
3603.01217285,0.01534026
3604.94098022,0.01568584
3606.86978760,0.01520210
3608.79859497,0.01419431
3610.72740234,0.01450517
3612.65620972,0.01489154
3614.58501709,0.01440735
3616.51382446,0.01542799
3618.44263184,0.01433486
3620.37143921,0.01382289
3622.30024658,0.01548215
3624.22905395,0.01515423
3626.15786133,0.01580631
3628.08666870,0.01344758
3630.01547607,0.01231171
3631.94428345,0.01532694
3633.87309082,0.01499369
3635.80189819,0.01520447
3637.73070557,0.01556026
3639.65951294,0.01531789
3641.58832031,0.01540150
3643.51712769,0.01527630
3645.44593506,0.01539236
3647.37474243,0.01393646
3649.30354980,0.01283692
3651.23235718,0.01297202
3653.16116455,0.01538096
3655.08997192,0.01511144
3657.01877930,0.01351874
3658.94758667,0.01551428
3660.87639404,0.01517462
3662.80520142,0.01538417
3664.73400879,0.01532906
3666.66281616,0.01516932
3668.59162354,0.01480666
3670.52043091,0.01219318
3672.44923828,0.01460096
3674.37804565,0.01389612
3676.30685303,0.01166985
3678.23566040,0.01454887
3680.16446777,0.01482313
3682.09327515,0.01484977
3684.02208252,0.01521090
3685.95088989,0.01504975
3687.87969727,0.01359626
3689.80850464,0.01257172
3691.73731201,0.01426679
3693.66611938,0.01449347
3695.59492676,0.01499884
3697.52373413,0.01493502
3699.45254150,0.01472965
3701.38134888,0.01443985
3703.31015625,0.01385884
3705.23896362,0.01525328
3707.16777100,0.01444773
3709.09657837,0.01419279
3711.02538574,0.01342293
3712.95419312,0.01250634
3714.88300049,0.01464945
3716.81180786,0.01446820
3718.74061523,0.01455707
3720.66942261,0.01420359
3722.59822998,0.01380511
3724.52703735,0.01428710
3726.45584473,0.01328136
3728.38465210,0.01443679
3730.31345947,0.01429059
3732.24226685,0.01318895
3734.17107422,0.01281615
3736.09988159,0.01223730
3738.02868896,0.01284418
3739.95749634,0.01383337
3741.88630371,0.01462926
3743.81511108,0.01146182
3745.74391846,0.01078931
3747.67272583,0.01385288
3749.60153320,0.01195239
3751.53034058,0.01103099
3753.45914795,0.01263533
3755.38795532,0.01353051
3757.31676270,0.01402206
3759.24557007,0.01300966
3761.17437744,0.01345294
3763.10318481,0.01431505
3765.03199219,0.01344605
3766.96079956,0.01369823
3768.88960693,0.01348363
3770.81841431,0.01296539
3772.74722168,0.01392769
3774.67602905,0.01394212
3776.60483643,0.01402305
3778.53364380,0.01352889
3780.46245117,0.01315832
3782.39125854,0.01399266
3784.32006592,0.01365990
3786.24887329,0.01365999
3788.17768066,0.01376899
3790.10648804,0.01376766
3792.03529541,0.01371191
3793.96410278,0.01393628
3795.89291016,0.01315811
3797.82171753,0.01287770
3799.75052490,0.01363011
3801.67933228,0.01095103
3803.60813965,0.01269033
3805.53694702,0.01371996
3807.46575439,0.01128620
3809.39456177,0.01361316
3811.32336914,0.01330395
3813.25217651,0.01370761
3815.18098389,0.01247132
3817.10979126,0.01096214
3819.03859863,0.01376092
3820.96740601,0.01124224
3822.89621338,0.01168586
3824.82502075,0.01366997
3826.75382812,0.01233582
3828.68263550,0.01321121
3830.61144287,0.01287462
3832.54025024,0.01238400
3834.46905762,0.01270518
3836.39786499,0.01213565
3838.32667236,0.01094970
3840.25547974,0.01183051
3842.18428711,0.01268568
3844.11309448,0.01212513
3846.04190186,0.01304664
3847.97070923,0.01287758
3849.89951660,0.01286184
3851.82832397,0.01161652
3853.75713135,0.00889975
3855.68593872,0.01037744
3857.61474609,0.01288364
3859.54355347,0.01260439
3861.47236084,0.01248913
3863.40116821,0.01222876
3865.32997559,0.01134368
3867.25878296,0.01265861
3869.18759033,0.01168373
3871.11639770,0.01078086
3873.04520508,0.01263201
3874.97401245,0.01168929
3876.90281982,0.01257335
3878.83162720,0.01273761
3880.76043457,0.01095108
3882.68924194,0.01259910
3884.61804932,0.01183459
3886.54685669,0.01091421
3888.47566406,0.01267898
3890.40447144,0.01193086
3892.33327881,0.01129709
3894.26208618,0.01235155
3896.19089355,0.01248333
3898.11970093,0.01197285
3900.04850830,0.01140673
3901.97731567,0.01133314
3903.90612305,0.01108821
3905.83493042,0.01118989
3907.76373779,0.01234915
3909.69254517,0.01230264
3911.62135254,0.01217727
3913.55015991,0.01239110
3915.47896728,0.01190800
3917.40777466,0.01165773
3919.33658203,0.01159755
3921.26538940,0.01192769
3923.19419678,0.01193628
3925.12300415,0.01171189
3927.05181152,0.01184468
3928.98061890,0.01200486
3930.90942627,0.01175657
3932.83823364,0.01139025
3934.76704102,0.01186271
3936.69584839,0.01195089
3938.62465576,0.01187258
3940.55346313,0.01193257
3942.48227051,0.01145053
3944.41107788,0.01153550
3946.33988525,0.01180131
3948.26869263,0.01151414
3950.19750000,0.01147040
3952.12630737,0.01176889
3954.05511475,0.01169801
3955.98392212,0.01162029
3957.91272949,0.01166139
3959.84153687,0.01160758
3961.77034424,0.01156608
3963.69915161,0.01155143
3965.62795898,0.01167333
3967.55676636,0.01158291
3969.48557373,0.01155009
3971.41438110,0.01151471
3973.34318848,0.01146522
3975.27199585,0.01140948
3977.20080322,0.01129852
3979.12961060,0.01145333
3981.05841797,0.01134219
3982.98722534,0.01133641
3984.91603271,0.01136060
3986.84484009,0.01137677
3988.77364746,0.01137266
3990.70245483,0.01107818
3992.63126221,0.01127618
3994.56006958,0.01135694
3996.48887695,0.01120964
3998.41768433,0.01123835
4000.34649170,0.01121424
4002.27529907,0.01113025
4004.20410645,0.01108519
4006.13291382,0.01110897
4008.06172119,0.01104247
4009.99052856,0.01104061
4011.91933594,0.01092831
4013.84814331,0.01097419
4015.77695068,0.01104726
4017.70575806,0.01098725
4019.63456543,0.01094044
4021.56337280,0.01083626
4023.49218018,0.01092564
4025.42098755,0.01081202
4027.34979492,0.01089492
4029.27860229,0.01093478
4031.20740967,0.01075632
4033.13621704,0.01086969
4035.06502441,0.01080133
4036.99383179,0.01075594
4038.92263916,0.01072806
4040.85144653,0.01077127
4042.78025391,0.01070665
4044.70906128,0.01060839
4046.63786865,0.01072690
4048.56667603,0.01063278
4050.49548340,0.01062579
4052.42429077,0.01062679
4054.35309814,0.01060096
4056.28190552,0.01055526
4058.21071289,0.01047805
4060.13952026,0.01048466
4062.06832764,0.01048468
4063.99713501,0.01044333
4065.92594238,0.01031840
4067.85474976,0.01038855
4069.78355713,0.01042494
4071.71236450,0.01038544
4073.64117187,0.01031906
4075.56997925,0.01033823
4077.49878662,0.01041924
4079.42759399,0.01029072
4081.35640137,0.01026887
4083.28520874,0.01021346
4085.21401611,0.01024496
4087.14282349,0.01023456
4089.07163086,0.01019087
4091.00043823,0.01027906
4092.92924561,0.01016011
4094.85805298,0.01012460
4096.78686035,0.01011985
4098.71566772,0.01010302
4100.64447510,0.01008250
4102.57328247,0.01009439
4104.50208984,0.01004929
4106.43089722,0.00995508
4108.35970459,0.00999910
4110.28851196,0.00997046
4112.21731934,0.01006259
4114.14612671,0.00998417
4116.07493408,0.00988100
4118.00374145,0.00994234
4119.93254883,0.00984920
4121.86135620,0.00981463
4123.79016357,0.00981730
4125.71897095,0.00978484
4127.64777832,0.00974386
4129.57658569,0.00981595
4131.50539307,0.00971689
4133.43420044,0.00967832
4135.36300781,0.00972612
4137.29181519,0.00965253
4139.22062256,0.00974952
4141.14942993,0.00959608
4143.07823730,0.00963971
4145.00704468,0.00972498
4146.93585205,0.00960361
4148.86465942,0.00962717
4150.79346680,0.00951825
4152.72227417,0.00960372
4154.65108154,0.00958730
4156.57988892,0.00951379
4158.50869629,0.00952202
4160.43750366,0.00940732
4162.36631103,0.00940772
4164.29511841,0.00934699
4166.22392578,0.00935519
4168.15273315,0.00942073
4170.08154053,0.00935951
4172.01034790,0.00927113
4173.93915527,0.00933538
4175.86796265,0.00940205
4177.79677002,0.00928562
4179.72557739,0.00924584
4181.65438477,0.00923915
4183.58319214,0.00916565
4185.51199951,0.00920597
4187.44080688,0.00919001
4189.36961426,0.00905383
4191.29842163,0.00915118
4193.22722900,0.00908727
4195.15603638,0.00904731
4197.08484375,0.00913659
4199.01365112,0.00898268
4200.94245850,0.00908188
4202.87126587,0.00903688
4204.80007324,0.00894679
4206.72888062,0.00899091
4208.65768799,0.00892862
4210.58649536,0.00890963
4212.51530273,0.00882088
4214.44411011,0.00892896
4216.37291748,0.00890214
4218.30172485,0.00885918
4220.23053223,0.00896289
4222.15933960,0.00893349
4224.08814697,0.00881679
4226.01695435,0.00871233
4227.94576172,0.00877447
4229.87456909,0.00870467
4231.80337646,0.00880936
4233.73218384,0.00878408
4235.66099121,0.00862470
4237.58979858,0.00867626
4239.51860596,0.00863517
4241.44741333,0.00871604
4243.37622070,0.00859183
4245.30502808,0.00860765
4247.23383545,0.00863613
4249.16264282,0.00854161
4251.09145020,0.00857875
4253.02025757,0.00844986
4254.94906494,0.00856582
4256.87787231,0.00848107
4258.80667969,0.00844416
4260.73548706,0.00854070
4262.66429443,0.00840322
4264.59310181,0.00844595
4266.52190918,0.00834065
4268.45071655,0.00830288
4270.37952393,0.00832383
4272.30833130,0.00832275
4274.23713867,0.00839582
4276.16594604,0.00831879
4278.09475342,0.00825982
4280.02356079,0.00825859
4281.95236816,0.00831504
4283.88117554,0.00830890
4285.80998291,0.00818449
4287.73879028,0.00809729
4289.66759766,0.00816895
4291.59640503,0.00819393
4293.52521240,0.00814237
4295.45401978,0.00811786
4297.38282715,0.00808845
4299.31163452,0.00811038
4301.24044189,0.00806104
4303.16924927,0.00809068
4305.09805664,0.00802515
4307.02686401,0.00793919
4308.95567139,0.00799714
4310.88447876,0.00790430
4312.81328613,0.00786114
4314.74209351,0.00790466
4316.67090088,0.00793514
4318.59970825,0.00790266
4320.52851562,0.00792256
4322.45732300,0.00787406
4324.38613037,0.00782215
4326.31493774,0.00791624
4328.24374512,0.00786555
4330.17255249,0.00785020
4332.10135986,0.00776080
4334.03016724,0.00775351
4335.95897461,0.00779180
4337.88778198,0.00770784
4339.81658936,0.00775533
4341.74539673,0.00766483
4343.67420410,0.00765918
4345.60301147,0.00773419
4347.53181885,0.00768007
4349.46062622,0.00758921
4351.38943359,0.00755612
4353.31824097,0.00754920
4355.24704834,0.00750586
4357.17585571,0.00760364
4359.10466309,0.00749098
4361.03347046,0.00740549
4362.96227783,0.00754573
4364.89108520,0.00750580
4366.81989258,0.00745459
4368.74869995,0.00749650
4370.67750732,0.00749043
4372.60631470,0.00740661
4374.53512207,0.00744872
4376.46392944,0.00744871
4378.39273682,0.00735252
4380.32154419,0.00734495
4382.25035156,0.00732352
4384.17915894,0.00737096
4386.10796631,0.00736860
4388.03677368,0.00725660
4389.96558105,0.00727748
4391.89438843,0.00729919
4393.82319580,0.00722948
4395.75200317,0.00726457
4397.68081055,0.00722122
4399.60961792,0.00719476
4401.53842529,0.00718765
4403.46723267,0.00707729
4405.39604004,0.00715852
4407.32484741,0.00715348
4409.25365478,0.00710744
4411.18246216,0.00709767
4413.11126953,0.00711583
4415.04007690,0.00714985
4416.96888428,0.00702746
4418.89769165,0.00703925
4420.82649902,0.00701124
4422.75530640,0.00706080
4424.68411377,0.00706218
4426.61292114,0.00695998
4428.54172852,0.00701105
4430.47053589,0.00691314
4432.39934326,0.00696842
4434.32815063,0.00696644
4436.25695801,0.00683639
4438.18576538,0.00690723
4440.11457275,0.00691051
4442.04338013,0.00681533
4443.97218750,0.00683877
4445.90099487,0.00682419
4447.82980225,0.00670720
4449.75860962,0.00684190
4451.68741699,0.00669173
4453.61622437,0.00658222
4455.54503174,0.00679558
4457.47383911,0.00666371
4459.40264648,0.00670236
4461.33145386,0.00674135
4463.26026123,0.00660857
4465.18906860,0.00663064
4467.11787598,0.00666887
4469.04668335,0.00662902
4470.97549072,0.00655806
4472.90429810,0.00661991
4474.83310547,0.00656108
4476.76191284,0.00649210
4478.69072021,0.00660449
4480.61952759,0.00660905
4482.54833496,0.00647195
4484.47714233,0.00645377
4486.40594971,0.00649883
4488.33475708,0.00649439
4490.26356445,0.00643947
4492.19237183,0.00638714
4494.12117920,0.00646505
4496.04998657,0.00634742
4497.97879395,0.00638143
4499.90760132,0.00645683
4501.83640869,0.00628478
4503.76521606,0.00635237
4505.69402344,0.00636954
4507.62283081,0.00633866
4509.55163818,0.00626527
4511.48044556,0.00628190
4513.40925293,0.00628787
4515.33806030,0.00623464
4517.26686768,0.00634313
4519.19567505,0.00620741
4521.12448242,0.00627153
4523.05328979,0.00626150
4524.98209717,0.00615006
4526.91090454,0.00622083
4528.83971191,0.00615480
4530.76851929,0.00623504
4532.69732666,0.00613904
4534.62613403,0.00609531
4536.55494141,0.00612089
4538.48374878,0.00609323
4540.41255615,0.00615181
4542.34136353,0.00601262
4544.27017090,0.00601378
4546.19897827,0.00607469
4548.12778564,0.00607208
4550.05659302,0.00598393
4551.98540039,0.00595365
4553.91420776,0.00601083
4555.84301514,0.00590194
4557.77182251,0.00587366
4559.70062988,0.00587769
4561.62943726,0.00588427
4563.55824463,0.00587665
4565.48705200,0.00589188
4567.41585937,0.00590113
4569.34466675,0.00584307
4571.27347412,0.00583558
4573.20228149,0.00582204
4575.13108887,0.00581589
4577.05989624,0.00578140
4578.98870361,0.00580421
4580.91751099,0.00575592
4582.84631836,0.00573677
4584.77512573,0.00583383
4586.70393311,0.00576907
4588.63274048,0.00566204
4590.56154785,0.00568845
4592.49035522,0.00576476
4594.41916260,0.00561764
4596.34796997,0.00560674
4598.27677734,0.00565481
4600.20558472,0.00556504
4602.13439209,0.00562899
4604.06319946,0.00555958
4605.99200684,0.00555059
4607.92081421,0.00557234
4609.84962158,0.00552421
4611.77842895,0.00552700
4613.70723633,0.00551900
4615.63604370,0.00557735
4617.56485107,0.00550099
4619.49365845,0.00546263
4621.42246582,0.00546621
4623.35127319,0.00544556
4625.28008057,0.00551043
4627.20888794,0.00546758
4629.13769531,0.00539980
4631.06650269,0.00540763
4632.99531006,0.00540394
4634.92411743,0.00538421
4636.85292480,0.00538325
4638.78173218,0.00537901
4640.71053955,0.00536952
4642.63934692,0.00528155
4644.56815430,0.00527740
4646.49696167,0.00530608
4648.42576904,0.00525749
4650.35457642,0.00530723
4652.28338379,0.00526606
4654.21219116,0.00526671
4656.14099853,0.00527483
4658.06980591,0.00520506
4659.99861328,0.00516864
4661.92742065,0.00515226
4663.85622803,0.00518943
4665.78503540,0.00518277
4667.71384277,0.00526653
4669.64265015,0.00519515
4671.57145752,0.00515098
4673.50026489,0.00518557
4675.42907227,0.00508315
4677.35787964,0.00517862
4679.28668701,0.00512834
4681.21549438,0.00510101
4683.14430176,0.00515978
4685.07310913,0.00509170
4687.00191650,0.00506150
4688.93072388,0.00502713
4690.85953125,0.00499554
4692.78833862,0.00492409
4694.71714600,0.00498752
4696.64595337,0.00494320
4698.57476074,0.00496836
4700.50356812,0.00504936
4702.43237549,0.00490100
4704.36118286,0.00497694
4706.28999023,0.00499361
4708.21879761,0.00496608
4710.14760498,0.00495766
4712.07641235,0.00490159
4714.00521973,0.00487521
4715.93402710,0.00480406
4717.86283447,0.00489413
4719.79164185,0.00487857
4721.72044922,0.00483854
4723.64925659,0.00484429
4725.57806396,0.00481125
4727.50687134,0.00484772
4729.43567871,0.00477936
4731.36448608,0.00471025
4733.29329346,0.00469256
4735.22210083,0.00472923
4737.15090820,0.00479499
4739.07971558,0.00477035
4741.00852295,0.00467155
4742.93733032,0.00467032
4744.86613770,0.00468337
4746.79494507,0.00459275
4748.72375244,0.00462358
4750.65255981,0.00468787
4752.58136719,0.00466455
4754.51017456,0.00457171
4756.43898193,0.00455204
4758.36778931,0.00455156
4760.29659668,0.00452903
4762.22540405,0.00459096
4764.15421143,0.00455010
4766.08301880,0.00453954
4768.01182617,0.00453189
4769.94063354,0.00451116
4771.86944092,0.00451513
4773.79824829,0.00448009
4775.72705566,0.00456099
4777.65586304,0.00456855
4779.58467041,0.00449656
4781.51347778,0.00446990
4783.44228516,0.00448814
4785.37109253,0.00448011
4787.29989990,0.00442371
4789.22870728,0.00444758
4791.15751465,0.00444703
4793.08632202,0.00437300
4795.01512939,0.00434400
4796.94393677,0.00440884
4798.87274414,0.00437379
4800.80155151,0.00432832
4802.73035889,0.00436198
4804.65916626,0.00430676
4806.58797363,0.00431775
4808.51678101,0.00433446
4810.44558838,0.00427078
4812.37439575,0.00426035
4814.30320312,0.00425903
4816.23201050,0.00423983
4818.16081787,0.00425884
4820.08962524,0.00417989
4822.01843262,0.00419129
4823.94723999,0.00431094
4825.87604736,0.00416456
4827.80485474,0.00420511
4829.73366211,0.00428667
4831.66246948,0.00413911
4833.59127686,0.00414992
4835.52008423,0.00410684
4837.44889160,0.00411717
4839.37769897,0.00417382
4841.30650635,0.00414438
4843.23531372,0.00411046
4845.16412109,0.00402567
4847.09292847,0.00409739
4849.02173584,0.00409210
4850.95054321,0.00400046
4852.87935059,0.00407538
4854.80815796,0.00405048
4856.73696533,0.00404845
4858.66577270,0.00405930
4860.59458008,0.00395114
4862.52338745,0.00401947
4864.45219482,0.00402736
4866.38100220,0.00395612
4868.30980957,0.00400044
4870.23861694,0.00398675
4872.16742432,0.00398705
4874.09623169,0.00393932
4876.02503906,0.00393331
4877.95384644,0.00392913
4879.88265381,0.00387135
4881.81146118,0.00391337
4883.74026855,0.00385249
4885.66907593,0.00382735
4887.59788330,0.00389160
4889.52669067,0.00393240
4891.45549805,0.00384580
4893.38430542,0.00372600
4895.31311279,0.00384437
4897.24192017,0.00385104
4899.17072754,0.00377223
4901.09953491,0.00379008
4903.02834228,0.00376554
4904.95714966,0.00379542
4906.88595703,0.00380612
4908.81476440,0.00377677
4910.74357178,0.00382365
4912.67237915,0.00378078
4914.60118652,0.00374440
4916.52999390,0.00380335
4918.45880127,0.00371569
4920.38760864,0.00371694
4922.31641602,0.00375097
4924.24522339,0.00372242
4926.17403076,0.00377205
4928.10283813,0.00371156
4930.03164551,0.00367059
4931.96045288,0.00365803
4933.88926025,0.00364061
4935.81806763,0.00356972
4937.74687500,0.00357430
4939.67568237,0.00367882
4941.60448975,0.00362850
4943.53329712,0.00363040
4945.46210449,0.00354269
4947.39091187,0.00355073
4949.31971924,0.00362498
4951.24852661,0.00349440
4953.17733398,0.00354455
4955.10614136,0.00356847
4957.03494873,0.00349730
4958.96375610,0.00350751
4960.89256348,0.00355159
4962.82137085,0.00355404
4964.75017822,0.00356241
4966.67898560,0.00353786
4968.60779297,0.00344914
4970.53660034,0.00350874
4972.46540771,0.00342302
4974.39421509,0.00336604
4976.32302246,0.00343762
4978.25182983,0.00337378
4980.18063721,0.00341095
4982.10944458,0.00342921
4984.03825195,0.00340804
4985.96705933,0.00341421
4987.89586670,0.00334377
4989.82467407,0.00333517
4991.75348145,0.00341072
4993.68228882,0.00334245
4995.61109619,0.00333213
4997.53990356,0.00338583
4999.46871094,0.00328470
5001.39751831,0.00337442
5003.32632568,0.00340530
5005.25513306,0.00331518
5007.18394043,0.00326827
5009.11274780,0.00320423
5011.04155518,0.00331690
5012.97036255,0.00330993
5014.89916992,0.00326120
5016.82797729,0.00330520
5018.75678467,0.00325125
5020.68559204,0.00319067
5022.61439941,0.00318959
5024.54320679,0.00319899
5026.47201416,0.00316841
5028.40082153,0.00317166
5030.32962891,0.00318798
5032.25843628,0.00322923
5034.18724365,0.00321642
5036.11605103,0.00317044
5038.04485840,0.00313144
5039.97366577,0.00315567
5041.90247314,0.00319995
5043.83128052,0.00307522
5045.76008789,0.00312612
5047.68889526,0.00312222
5049.61770264,0.00304211
5051.54651001,0.00306231
5053.47531738,0.00300822
5055.40412476,0.00308237
5057.33293213,0.00302700
5059.26173950,0.00308678
5061.19054687,0.00307586
5063.11935425,0.00289636
5065.04816162,0.00308750
5066.97696899,0.00306756
5068.90577637,0.00302884
5070.83458374,0.00308242
5072.76339111,0.00299161
5074.69219849,0.00303128
5076.62100586,0.00299226
5078.54981323,0.00295860
5080.47862061,0.00295796
5082.40742798,0.00297694
5084.33623535,0.00297804
5086.26504272,0.00291833
5088.19385010,0.00298264
5090.12265747,0.00296397
5092.05146484,0.00293213
5093.98027222,0.00296019
5095.90907959,0.00297375
5097.83788696,0.00294412
5099.76669434,0.00280729
5101.69550171,0.00288065
5103.62430908,0.00289377
5105.55311645,0.00280284
5107.48192383,0.00294962
5109.41073120,0.00287066
5111.33953857,0.00278570
5113.26834595,0.00290532
5115.19715332,0.00286234
5117.12596069,0.00281688
5119.05476807,0.00285631
5120.98357544,0.00285599
5122.91238281,0.00277737
5124.84119019,0.00279193
5126.76999756,0.00278982
5128.69880493,0.00274884
5130.62761230,0.00282102
5132.55641968,0.00277638
5134.48522705,0.00272799
5136.41403442,0.00271138
5138.34284180,0.00268950
5140.27164917,0.00273601
5142.20045654,0.00277355
5144.12926392,0.00275193
5146.05807129,0.00268452
5147.98687866,0.00266541
5149.91568603,0.00262903
5151.84449341,0.00273226
5153.77330078,0.00277934
5155.70210815,0.00263852
5157.63091553,0.00266219
5159.55972290,0.00264321
5161.48853027,0.00260455
5163.41733765,0.00265439
5165.34614502,0.00265144
5167.27495239,0.00263303
5169.20375977,0.00263824
5171.13256714,0.00262378
5173.06137451,0.00259487
5174.99018188,0.00254866
5176.91898926,0.00249571
5178.84779663,0.00260307
5180.77660400,0.00258234
5182.70541138,0.00255118
5184.63421875,0.00263552
5186.56302612,0.00251893
5188.49183350,0.00252219
5190.42064087,0.00249904
5192.34944824,0.00245708
5194.27825562,0.00256685
5196.20706299,0.00254773
5198.13587036,0.00256938
5200.06467773,0.00254582
5201.99348511,0.00248871
5203.92229248,0.00251564
5205.85109985,0.00240058
5207.77990723,0.00237583
5209.70871460,0.00247468
5211.63752197,0.00249291
5213.56632935,0.00256369
5215.49513672,0.00247652
5217.42394409,0.00240639
5219.35275146,0.00254261
5221.28155884,0.00247523
5223.21036621,0.00239770
5225.13917358,0.00238737
5227.06798096,0.00240863
5228.99678833,0.00240001
5230.92559570,0.00231431
5232.85440308,0.00241504
5234.78321045,0.00245878
5236.71201782,0.00240635
5238.64082520,0.00231785
5240.56963257,0.00236955
5242.49843994,0.00246652
5244.42724731,0.00230456
5246.35605469,0.00230621
5248.28486206,0.00232375
5250.21366943,0.00230514
5252.14247681,0.00235702
5254.07128418,0.00230143
5256.00009155,0.00230028
5257.92889893,0.00232936
5259.85770630,0.00233609
5261.78651367,0.00228195
5263.71532104,0.00225794
5265.64412842,0.00225451
5267.57293579,0.00223150
5269.50174316,0.00220586
5271.43055054,0.00219044
5273.35935791,0.00230399
5275.28816528,0.00228184
5277.21697266,0.00221424
5279.14578003,0.00221814
5281.07458740,0.00219924
5283.00339478,0.00224209
5284.93220215,0.00223007
5286.86100952,0.00223520
5288.78981689,0.00218346
5290.71862427,0.00209711
5292.64743164,0.00216371
5294.57623901,0.00219788
5296.50504639,0.00220016
5298.43385376,0.00219921
5300.36266113,0.00216404
5302.29146851,0.00221599
5304.22027588,0.00221539
5306.14908325,0.00212716
5308.07789062,0.00213797
5310.00669800,0.00214728
5311.93550537,0.00213403
5313.86431274,0.00209516
5315.79312012,0.00205891
5317.72192749,0.00214227
5319.65073486,0.00215546
5321.57954224,0.00210163
5323.50834961,0.00209648
5325.43715698,0.00205564
5327.36596436,0.00202668
5329.29477173,0.00205100
5331.22357910,0.00205431
5333.15238647,0.00207845
5335.08119385,0.00209609
5337.01000122,0.00204281
5338.93880859,0.00200305
5340.86761597,0.00204798
5342.79642334,0.00206013
5344.72523071,0.00190797
5346.65403809,0.00195688
5348.58284546,0.00205410
5350.51165283,0.00197529
5352.44046020,0.00203698
5354.36926758,0.00199113
5356.29807495,0.00197230
5358.22688232,0.00203539
5360.15568970,0.00204621
5362.08449707,0.00202234
5364.01330444,0.00189480
5365.94211182,0.00195224
5367.87091919,0.00196393
5369.79972656,0.00195326
5371.72853394,0.00195191
5373.65734131,0.00194664
5375.58614868,0.00198913
5377.51495605,0.00181791
5379.44376343,0.00187072
5381.37257080,0.00193610
5383.30137817,0.00194211
5385.23018555,0.00195832
5387.15899292,0.00181304
5389.08780029,0.00188868
5391.01660767,0.00187229
5392.94541504,0.00186744
5394.87422241,0.00189920
5396.80302978,0.00186545
5398.73183716,0.00191121
5400.66064453,0.00185996
5402.58945190,0.00190901
5404.51825928,0.00185826
5406.44706665,0.00184620
5408.37587402,0.00186091
5410.30468140,0.00178455
5412.23348877,0.00189096
5414.16229614,0.00184653
5416.09110352,0.00182734
5418.01991089,0.00183168
5419.94871826,0.00181632
5421.87752563,0.00187986
5423.80633301,0.00179486
5425.73514038,0.00185317
5427.66394775,0.00182347
5429.59275513,0.00165598
5431.52156250,0.00171310
5433.45036987,0.00174280
5435.37917725,0.00177563
5437.30798462,0.00182131
5439.23679199,0.00172937
5441.16559936,0.00168208
5443.09440674,0.00173605
5445.02321411,0.00177310
5446.95202148,0.00174657
5448.88082886,0.00172733
5450.80963623,0.00175836
5452.73844360,0.00175793
5454.66725098,0.00168805
5456.59605835,0.00167414
5458.52486572,0.00175323
5460.45367310,0.00170223
5462.38248047,0.00167278
5464.31128784,0.00175985
5466.24009521,0.00170114
5468.16890259,0.00165315
5470.09770996,0.00160643
5472.02651733,0.00160524
5473.95532471,0.00170749
5475.88413208,0.00166153
5477.81293945,0.00163488
5479.74174683,0.00164782
5481.67055420,0.00165717
5483.59936157,0.00167845
5485.52816895,0.00164557
5487.45697632,0.00158637
5489.38578369,0.00155001
5491.31459106,0.00163101
5493.24339844,0.00158648
5495.17220581,0.00153690
5497.10101318,0.00156030
5499.02982056,0.00152645
5500.95862793,0.00161947
5502.88743530,0.00155815
5504.81624268,0.00157111
5506.74505005,0.00169282
5508.67385742,0.00154117
5510.60266479,0.00153984
5512.53147217,0.00158544
5514.46027954,0.00151062
5516.38908691,0.00151954
5518.31789429,0.00157728
5520.24670166,0.00160468
5522.17550903,0.00154245
5524.10431641,0.00154393
5526.03312378,0.00157591
5527.96193115,0.00157307
5529.89073853,0.00157177
5531.81954590,0.00156702
5533.74835327,0.00152836
5535.67716064,0.00151624
5537.60596802,0.00159801
5539.53477539,0.00154421
5541.46358276,0.00157945
5543.39239014,0.00160031
5545.32119751,0.00146222
5547.25000488,0.00153963
5549.17881226,0.00146044
5551.10761963,0.00140576
5553.03642700,0.00150739
5554.96523437,0.00143737
5556.89404175,0.00149722
5558.82284912,0.00152245
5560.75165649,0.00146521
5562.68046387,0.00146150
5564.60927124,0.00146931
5566.53807861,0.00148420
5568.46688599,0.00141155
5570.39569336,0.00140111
5572.32450073,0.00140871
5574.25330811,0.00141728
5576.18211548,0.00143564
5578.11092285,0.00138070
5580.03973022,0.00140489
5581.96853760,0.00143563
5583.89734497,0.00141766
5585.82615234,0.00144123
5587.75495972,0.00144423
5589.68376709,0.00143616
5591.61257446,0.00138766
5593.54138184,0.00130401
5595.47018921,0.00138265
5597.39899658,0.00144425
5599.32780395,0.00138074
5601.25661133,0.00138236
5603.18541870,0.00135707
5605.11422607,0.00132826
5607.04303345,0.00135076
5608.97184082,0.00138534
5610.90064819,0.00136392
5612.82945557,0.00133158
5614.75826294,0.00137142
5616.68707031,0.00138703
5618.61587769,0.00141687
5620.54468506,0.00136294
5622.47349243,0.00137438
5624.40229980,0.00146809
5626.33110718,0.00136730
5628.25991455,0.00132579
5630.18872192,0.00132735
5632.11752930,0.00129953
5634.04633667,0.00132709
5635.97514404,0.00130489
5637.90395142,0.00131342
5639.83275879,0.00133100
5641.76156616,0.00126887
5643.69037353,0.00125567
5645.61918091,0.00126943
5647.54798828,0.00127736
5649.47679565,0.00134502
5651.40560303,0.00128356
5653.33441040,0.00125218
5655.26321777,0.00133891
5657.19202515,0.00132260
5659.12083252,0.00126838
5661.04963989,0.00122410
5662.97844727,0.00128002
5664.90725464,0.00124150
5666.83606201,0.00119457
5668.76486938,0.00126450
5670.69367676,0.00123044
5672.62248413,0.00127252
5674.55129150,0.00126075
5676.48009888,0.00122603
5678.40890625,0.00123753
5680.33771362,0.00120734
5682.26652100,0.00123267
5684.19532837,0.00118662
5686.12413574,0.00116951
5688.05294311,0.00118831
5689.98175049,0.00122701
5691.91055786,0.00121490
5693.83936523,0.00117707
5695.76817261,0.00121214
5697.69697998,0.00115701
5699.62578735,0.00119316
5701.55459473,0.00114646
5703.48340210,0.00111523
5705.41220947,0.00126989
5707.34101685,0.00117945
5709.26982422,0.00112529
5711.19863159,0.00118245
5713.12743896,0.00114817
5715.05624634,0.00114568
5716.98505371,0.00112896
5718.91386108,0.00114235
5720.84266846,0.00111950
5722.77147583,0.00107323
5724.70028320,0.00115210
5726.62909058,0.00117520
5728.55789795,0.00112854
5730.48670532,0.00116188
5732.41551270,0.00118215
5734.34432007,0.00112442
5736.27312744,0.00109924
5738.20193481,0.00116455
5740.13074219,0.00112847
5742.05954956,0.00108011
5743.98835693,0.00113598
5745.91716431,0.00111436
5747.84597168,0.00109907
5749.77477905,0.00106989
5751.70358643,0.00109427
5753.63239380,0.00112039
5755.56120117,0.00105852
5757.49000854,0.00109426
5759.41881592,0.00102693
5761.34762329,0.00107495
5763.27643066,0.00113558
5765.20523804,0.00099569
5767.13404541,0.00108546
5769.06285278,0.00105374
5770.99166016,0.00096848
5772.92046753,0.00105758
5774.84927490,0.00102583
5776.77808228,0.00105980
5778.70688965,0.00106442
5780.63569702,0.00101339
5782.56450439,0.00104084
5784.49331177,0.00103642
5786.42211914,0.00104938
5788.35092651,0.00102202
5790.27973389,0.00101293
5792.20854126,0.00107038
5794.13734863,0.00099721
5796.06615601,0.00095325
5797.99496338,0.00099846
5799.92377075,0.00093137
5801.85257812,0.00095522
5803.78138550,0.00102792
5805.71019287,0.00097756
5807.63900024,0.00099428
5809.56780762,0.00099208
5811.49661499,0.00097373
5813.42542236,0.00097015
5815.35422974,0.00089258
5817.28303711,0.00091765
5819.21184448,0.00096070
5821.14065186,0.00094070
5823.06945923,0.00095791
5824.99826660,0.00097594
5826.92707397,0.00095916
5828.85588135,0.00095202
5830.78468872,0.00098879
5832.71349609,0.00094400
5834.64230347,0.00090129
5836.57111084,0.00088831
5838.49991821,0.00087874
5840.42872559,0.00096709
5842.35753296,0.00097914
5844.28634033,0.00093451
5846.21514770,0.00090826
5848.14395508,0.00092387
5850.07276245,0.00092923
5852.00156982,0.00091330
5853.93037720,0.00100795
5855.85918457,0.00099431
5857.78799194,0.00090223
5859.71679932,0.00085141
5861.64560669,0.00085745
5863.57441406,0.00089384
5865.50322144,0.00089644
5867.43202881,0.00090830
5869.36083618,0.00082891
5871.28964355,0.00085655
5873.21845093,0.00085701
5875.14725830,0.00081955
5877.07606567,0.00092978
5879.00487305,0.00090626
5880.93368042,0.00090742
5882.86248779,0.00087067
5884.79129517,0.00085016
5886.72010254,0.00091076
5888.64890991,0.00083670
5890.57771728,0.00083326
5892.50652466,0.00082342
5894.43533203,0.00083082
5896.36413940,0.00086287
5898.29294678,0.00083312
5900.22175415,0.00079414
5902.15056152,0.00073426
5904.07936890,0.00080330
5906.00817627,0.00086695
5907.93698364,0.00079688
5909.86579102,0.00078190
5911.79459839,0.00086718
5913.72340576,0.00084094
5915.65221313,0.00073676
5917.58102051,0.00077197
5919.50982788,0.00084460
5921.43863525,0.00083994
5923.36744263,0.00085157
5925.29625000,0.00084455
5927.22505737,0.00078369
5929.15386475,0.00084351
5931.08267212,0.00077760
5933.01147949,0.00072451
5934.94028686,0.00084142
5936.86909424,0.00077603
5938.79790161,0.00079129
5940.72670898,0.00076929
5942.65551636,0.00076675
5944.58432373,0.00081151
5946.51313110,0.00068943
5948.44193848,0.00078617
5950.37074585,0.00075365
5952.29955322,0.00070713
5954.22836060,0.00086610
5956.15716797,0.00080505
5958.08597534,0.00073796
5960.01478271,0.00076371
5961.94359009,0.00077008
5963.87239746,0.00072605
5965.80120483,0.00071139
5967.73001221,0.00074032
5969.65881958,0.00078808
5971.58762695,0.00081445
5973.51643433,0.00070803
5975.44524170,0.00068714
5977.37404907,0.00075072
5979.30285645,0.00073920
5981.23166382,0.00071946
5983.16047119,0.00074001
5985.08927856,0.00077793
5987.01808594,0.00079433
5988.94689331,0.00072743
5990.87570068,0.00070532
5992.80450806,0.00074557
5994.73331543,0.00064509
5996.66212280,0.00067182
5998.59093018,0.00074867
6000.51973755,0.00070331
