399.26312622,-0.00001328
401.19193359,0.00019439
403.12074097,0.00019212
405.04954834,0.00021953
406.97835571,0.00015866
408.90716309,0.00008695
410.83597046,0.00012168
412.76477783,0.00024408
414.69358521,0.00028435
416.62239258,0.00031937
418.55119995,0.00030345
420.48000732,0.00013056
422.40881470,0.00013287
424.33762207,0.00020324
426.26642944,0.00000997
428.19523682,0.00001410
430.12404419,0.00030398
432.05285156,0.00013070
433.98165894,-0.00000001
435.91046631,-0.00002216
437.83927368,-0.00012573
439.76808105,0.00017758
441.69688843,0.00017101
443.62569580,0.00002177
445.55450317,0.00012640
447.48331055,0.00022930
449.41211792,0.00019300
451.34092529,-0.00010567
453.26973267,-0.00003215
455.19854004,0.00014198
457.12734741,0.00003264
459.05615479,0.00007544
460.98496216,0.00001896
462.91376953,0.00016791
464.84257690,0.00001276
466.77138428,0.00002431
468.70019165,0.00020244
470.62899902,-0.00001186
472.55780640,0.00016847
474.48661377,0.00015274
476.41542114,0.00008502
478.34422852,0.00002605
480.27303589,0.00007396
482.20184326,-0.00012247
484.13065063,0.00005890
486.05945801,0.00001983
487.98826538,-0.00010309
489.91707275,0.00010047
491.84588013,0.00000115
493.77468750,0.00009341
495.70349487,0.00013254
497.63230225,0.00015305
499.56110962,-0.00001357
501.48991699,-0.00000419
503.41872437,0.00029240
505.34753174,0.00028558
507.27633911,0.00015228
509.20514648,0.00008141
511.13395386,0.00031699
513.06276123,-0.00001016
514.99156860,-0.00016052
516.92037598,0.00032904
518.84918335,0.00012260
520.77799072,0.00016995
522.70679810,0.00017175
524.63560547,-0.00009259
526.56441284,0.00014586
528.49322021,0.00008293
530.42202759,-0.00015542
532.35083496,-0.00008403
534.27964233,0.00016972
536.20844971,0.00020909
538.13725708,0.00024112
540.06606445,0.00012971
541.99487183,0.00002017
543.92367920,0.00025527
545.85248657,0.00018861
547.78129395,0.00027599
549.71010132,0.00014918
551.63890869,-0.00007342
553.56771606,0.00014800
555.49652344,0.00013333
557.42533081,0.00014713
559.35413818,0.00011947
561.28294556,-0.00002702
563.21175293,-0.00000319
565.14056030,0.00008504
567.06936768,-0.00005215
568.99817505,0.00000125
570.92698242,0.00009706
572.85578979,-0.00007800
574.78459717,0.00015729
576.71340454,0.00009414
578.64221191,-0.00013110
580.57101929,0.00010191
582.49982666,0.00022204
584.42863403,0.00013678
586.35744141,0.00007790
588.28624878,0.00002659
590.21505615,0.00001131
592.14386353,0.00015731
594.07267090,0.00013467
596.00147827,0.00007692
597.93028564,0.00019172
599.85909302,0.00001245
601.78790039,0.00005600
603.71670776,-0.00007599
605.64551514,-0.00010304
607.57432251,0.00010377
609.50312988,0.00007928
611.43193726,0.00036783
613.36074463,0.00011856
615.28955200,0.00008576
617.21835938,0.00012082
619.14716675,-0.00001426
621.07597412,0.00016928
623.00478149,0.00003327
624.93358887,0.00023067
626.86239624,0.00028086
628.79120361,0.00021846
630.72001099,0.00023703
632.64881836,-0.00003788
634.57762573,0.00014242
636.50643311,0.00018392
638.43524048,0.00012080
640.36404785,0.00016894
642.29285522,-0.00004637
644.22166260,0.00004081
646.15046997,0.00007382
648.07927734,0.00003909
650.00808472,0.00014745
651.93689209,0.00015214
653.86569946,0.00013550
655.79450684,0.00009008
657.72331421,0.00002563
659.65212158,-0.00007196
661.58092896,0.00004109
663.50973633,0.00027360
665.43854370,0.00031512
667.36735107,0.00005073
669.29615845,0.00009894
671.22496582,0.00036510
673.15377319,0.00002832
675.08258057,-0.00001972
677.01138794,-0.00005048
678.94019531,-0.00001493
680.86900269,0.00033409
682.79781006,0.00009036
684.72661743,0.00000164
686.65542480,-0.00011057
688.58423218,-0.00011539
690.51303955,0.00020793
692.44184692,0.00006156
694.37065430,0.00012149
696.29946167,0.00021809
698.22826904,0.00010025
700.15707642,0.00008267
702.08588379,0.00014078
704.01469116,0.00016364
705.94349854,-0.00013075
707.87230591,0.00007342
709.80111328,0.00046668
711.72992065,0.00018730
713.65872803,0.00005635
715.58753540,0.00012091
717.51634277,0.00000263
719.44515015,0.00004524
721.37395752,0.00023899
723.30276489,0.00014860
725.23157227,0.00006608
727.16037964,0.00002711
729.08918701,-0.00027156
731.01799438,0.00000433
732.94680176,0.00025031
734.87560913,-0.00010792
736.80441650,0.00002952
738.73322388,0.00007778
740.66203125,0.00006095
742.59083862,0.00025871
744.51964600,0.00015582
746.44845337,0.00018408
748.37726074,0.00026723
750.30606812,0.00015192
752.23487549,0.00000761
754.16368286,0.00002557
756.09249023,0.00020908
758.02129761,0.00010882
759.95010498,-0.00012917
761.87891235,0.00007022
763.80771973,0.00011482
765.73652710,0.00000282
767.66533447,0.00016507
769.59414185,0.00011514
771.52294922,0.00001705
773.45175659,-0.00002171
775.38056396,0.00015076
777.30937134,0.00030533
779.23817871,0.00022521
781.16698608,0.00022368
783.09579346,0.00009121
785.02460083,0.00012243
786.95340820,0.00015472
788.88221558,0.00009732
790.81102295,0.00004789
792.73983032,-0.00007657
794.66863770,0.00007302
796.59744507,0.00005375
798.52625244,0.00009704
800.45505981,0.00020644
802.38386719,0.00008614
804.31267456,0.00009673
806.24148193,0.00001193
808.17028931,0.00001917
810.09909668,0.00002404
812.02790405,0.00003840
813.95671143,0.00014482
815.88551880,0.00009067
817.81432617,0.00009985
819.74313354,0.00003607
821.67194092,0.00016177
823.60074829,0.00025462
825.52955566,-0.00004809
827.45836304,0.00022525
829.38717041,0.00041665
831.31597778,0.00018729
833.24478516,0.00018112
835.17359253,-0.00004277
837.10239990,0.00006312
839.03120728,0.00024796
840.96001465,0.00010603
842.88882202,0.00004485
844.81762939,-0.00000002
846.74643677,0.00011368
848.67524414,0.00013097
850.60405151,0.00011978
852.53285889,0.00002333
854.46166626,0.00008685
856.39047363,0.00025748
858.31928101,-0.00002232
860.24808838,0.00014166
862.17689575,0.00023593
864.10570313,0.00000002
866.03451050,0.00016472
867.96331787,0.00009577
869.89212524,0.00016670
871.82093262,0.00019799
873.74973999,0.00002308
875.67854736,0.00017803
877.60735474,0.00014559
879.53616211,0.00020033
881.46496948,0.00022224
883.39377686,0.00021663
885.32258423,0.00034893
887.25139160,0.00017630
889.18019897,0.00017819
891.10900635,0.00020793
893.03781372,0.00004094
894.96662109,-0.00005235
896.89542847,-0.00008114
898.82423584,-0.00002132
900.75304321,0.00015227
902.68185059,0.00020359
904.61065796,0.00000510
906.53946533,0.00005263
908.46827271,0.00002900
910.39708008,0.00001728
912.32588745,0.00026868
914.25469482,0.00006982
916.18350220,0.00005375
918.11230957,0.00029673
920.04111694,0.00019066
921.96992432,0.00013877
923.89873169,0.00005302
925.82753906,-0.00000979
927.75634644,0.00008374
929.68515381,0.00009919
931.61396118,0.00011363
933.54276855,0.00021207
935.47157593,0.00036324
937.40038330,0.00025401
939.32919067,-0.00001540
941.25799805,0.00013475
943.18680542,0.00019125
945.11561279,0.00011409
947.04442017,0.00024163
948.97322754,0.00018785
950.90203491,0.00021355
952.83084229,0.00006768
954.75964966,0.00008782
956.68845703,0.00038980
958.61726440,0.00014571
960.54607178,0.00012893
962.47487915,0.00011992
964.40368652,0.00002708
966.33249390,0.00020951
968.26130127,0.00013874
970.19010864,0.00022695
972.11891602,0.00027851
974.04772339,0.00014992
975.97653076,-0.00001984
977.90533813,-0.00000861
979.83414551,0.00024350
981.76295288,0.00010429
983.69176025,0.00003939
985.62056763,0.00017043
987.54937500,0.00018867
989.47818237,0.00013737
991.40698975,0.00019628
993.33579712,0.00022191
995.26460449,0.00001013
997.19341187,0.00016133
999.12221924,0.00017941
1001.05102661,0.00014097
1002.97983398,0.00026956
1004.90864136,0.00022156
1006.83744873,0.00030484
1008.76625610,0.00014405
1010.69506348,0.00025336
1012.62387085,0.00037781
1014.55267822,0.00021572
1016.48148560,0.00025246
1018.41029297,0.00009857
1020.33910034,0.00021402
1022.26790771,0.00030245
1024.19671509,0.00033158
1026.12552246,0.00040734
1028.05432983,0.00022760
1029.98313721,0.00027557
1031.91194458,0.00025352
1033.84075195,0.00023196
1035.76955933,0.00017010
1037.69836670,0.00011618
1039.62717407,0.00029084
1041.55598145,0.00012824
1043.48478882,0.00000579
1045.41359619,0.00027551
1047.34240356,0.00033159
1049.27121094,0.00018147
1051.20001831,0.00030935
1053.12882568,0.00039348
1055.05763306,0.00029901
1056.98644043,0.00017538
1058.91524780,0.00011433
1060.84405518,0.00023190
1062.77286255,0.00020544
1064.70166992,0.00020514
1066.63047729,0.00018059
1068.55928467,0.00014250
1070.48809204,0.00020474
1072.41689941,0.00022099
1074.34570679,0.00022590
1076.27451416,0.00017913
1078.20332153,0.00032213
1080.13212891,0.00024545
1082.06093628,0.00017856
1083.98974365,0.00035846
1085.91855103,0.00037180
1087.84735840,0.00040387
1089.77616577,0.00022603
1091.70497314,0.00024777
1093.63378052,0.00039138
1095.56258789,0.00029421
1097.49139526,0.00023108
1099.42020264,0.00025856
1101.34901001,0.00028261
1103.27781738,0.00018297
1105.20662476,0.00027464
1107.13543213,0.00011368
1109.06423950,0.00009040
1110.99304687,0.00025466
1112.92185425,0.00013481
1114.85066162,0.00027236
1116.77946899,0.00010999
1118.70827637,0.00015596
1120.63708374,0.00030356
1122.56589111,0.00017053
1124.49469849,0.00024107
1126.42350586,0.00010573
1128.35231323,0.00021449
1130.28112061,0.00020955
1132.20992798,0.00020317
1134.13873535,0.00037054
1136.06754272,0.00010829
1137.99635010,0.00010160
1139.92515747,0.00021367
1141.85396484,0.00019460
1143.78277222,0.00014929
1145.71157959,0.00019894
1147.64038696,0.00026205
1149.56919434,0.00019375
1151.49800171,0.00035070
1153.42680908,0.00039261
1155.35561646,0.00029745
1157.28442383,0.00019502
1159.21323120,0.00018348
1161.14203857,0.00023007
1163.07084595,0.00026597
1164.99965332,0.00033681
1166.92846069,0.00024063
1168.85726807,0.00028716
1170.78607544,0.00019696
1172.71488281,0.00027626
1174.64369019,0.00042011
1176.57249756,0.00012198
1178.50130493,0.00030576
1180.43011230,0.00039761
1182.35891968,0.00016277
1184.28772705,0.00024636
1186.21653442,0.00030927
1188.14534180,0.00032881
1190.07414917,0.00018338
1192.00295654,0.00015548
1193.93176392,0.00047699
1195.86057129,0.00041583
1197.78937866,0.00042488
1199.71818604,0.00067245
1201.64699341,0.00047343
1203.57580078,0.00049734
1205.50460815,0.00048977
1207.43341553,0.00045490
1209.36222290,0.00065351
1211.29103027,0.00032740
1213.21983765,0.00034681
1215.14864502,0.00061217
1217.07745239,0.00043008
1219.00625977,0.00043250
1220.93506714,0.00046488
1222.86387451,0.00035552
1224.79268188,0.00054211
1226.72148926,0.00059091
1228.65029663,0.00034316
1230.57910400,0.00053787
1232.50791138,0.00054448
1234.43671875,0.00038145
1236.36552612,0.00048225
1238.29433350,0.00050855
1240.22314087,0.00059827
1242.15194824,0.00054279
1244.08075562,0.00060978
1246.00956299,0.00056374
1247.93837036,0.00051514
1249.86717773,0.00056602
1251.79598511,0.00034229
1253.72479248,0.00050652
1255.65359985,0.00041071
1257.58240723,0.00033008
1259.51121460,0.00053445
1261.44002197,0.00042087
1263.36882935,0.00060970
1265.29763672,0.00057799
1267.22644409,0.00041431
1269.15525146,0.00052507
1271.08405884,0.00047703
1273.01286621,0.00047506
1274.94167358,0.00051090
1276.87048096,0.00045229
1278.79928833,0.00047614
1280.72809570,0.00057810
1282.65690308,0.00048507
1284.58571045,0.00044713
1286.51451782,0.00047698
1288.44332520,0.00037974
1290.37213257,0.00048253
1292.30093994,0.00053925
1294.22974731,0.00045013
1296.15855469,0.00045408
1298.08736206,0.00039047
1300.01616943,0.00044260
1301.94497681,0.00059451
1303.87378418,0.00046946
1305.80259155,0.00038310
1307.73139893,0.00037499
1309.66020630,0.00036267
1311.58901367,0.00056026
1313.51782104,0.00046576
1315.44662842,0.00029863
1317.37543579,0.00058217
1319.30424316,0.00063882
1321.23305054,0.00049993
1323.16185791,0.00066382
1325.09066528,0.00057486
1327.01947266,0.00048461
1328.94828003,0.00068978
1330.87708740,0.00061777
1332.80589478,0.00062830
1334.73470215,0.00062525
1336.66350952,0.00056883
1338.59231689,0.00072716
1340.52112427,0.00076189
1342.44993164,0.00076013
1344.37873901,0.00076458
1346.30754639,0.00076443
1348.23635376,0.00058255
1350.16516113,0.00064200
1352.09396851,0.00071010
1354.02277588,0.00046628
1355.95158325,0.00074697
1357.88039062,0.00072452
1359.80919800,0.00047410
1361.73800537,0.00052827
1363.66681274,0.00055139
1365.59562012,0.00069393
1367.52442749,0.00068481
1369.45323486,0.00070148
1371.38204224,0.00058509
1373.31084961,0.00055037
1375.23965698,0.00059235
1377.16846436,0.00053177
1379.09727173,0.00070586
1381.02607910,0.00056526
1382.95488647,0.00060918
1384.88369385,0.00066204
1386.81250122,0.00044313
1388.74130859,0.00064864
1390.67011597,0.00067995
1392.59892334,0.00053477
1394.52773071,0.00058026
1396.45653809,0.00062050
1398.38534546,0.00061417
1400.31415283,0.00058409
1402.24296021,0.00058939
1404.17176758,0.00066417
1406.10057495,0.00066067
1408.02938232,0.00067267
1409.95818970,0.00069578
1411.88699707,0.00058297
1413.81580444,0.00065180
1415.74461182,0.00060342
1417.67341919,0.00054144
1419.60222656,0.00069255
1421.53103394,0.00064948
1423.45984131,0.00055647
1425.38864868,0.00051760
1427.31745605,0.00052268
1429.24626343,0.00048729
1431.17507080,0.00056026
1433.10387817,0.00070596
1435.03268555,0.00065927
1436.96149292,0.00051319
1438.89030029,0.00053063
1440.81910767,0.00065664
1442.74791504,0.00048474
1444.67672241,0.00040928
1446.60552979,0.00049334
1448.53433716,0.00051214
1450.46314453,0.00044555
1452.39195190,0.00052215
1454.32075928,0.00065722
1456.24956665,0.00037409
1458.17837402,0.00053205
1460.10718140,0.00063383
1462.03598877,0.00056896
1463.96479614,0.00077120
1465.89360352,0.00054134
1467.82241089,0.00065148
1469.75121826,0.00074219
1471.68002563,0.00066195
1473.60883301,0.00071552
1475.53764038,0.00073512
1477.46644775,0.00090922
1479.39525513,0.00078062
1481.32406250,0.00096172
1483.25286987,0.00112641
1485.18167725,0.00100528
1487.11048462,0.00103170
1489.03929199,0.00101073
1490.96809937,0.00120462
1492.89690674,0.00118951
1494.82571411,0.00116377
1496.75452148,0.00114018
1498.68332886,0.00100908
1500.61213623,0.00115411
1502.54094360,0.00130380
1504.46975098,0.00121000
1506.39855835,0.00096787
1508.32736572,0.00119543
1510.25617310,0.00124472
1512.18498047,0.00119847
1514.11378784,0.00139400
1516.04259521,0.00109423
1517.97140259,0.00118138
1519.90020996,0.00129274
1521.82901733,0.00109041
1523.75782471,0.00115008
1525.68663208,0.00116446
1527.61543945,0.00128142
1529.54424683,0.00123360
1531.47305420,0.00126352
1533.40186157,0.00132172
1535.33066895,0.00121542
1537.25947632,0.00127520
1539.18828369,0.00099411
1541.11709106,0.00101701
1543.04589844,0.00120907
1544.97470581,0.00116110
1546.90351318,0.00145023
1548.83232056,0.00131822
1550.76112793,0.00127725
1552.68993530,0.00142967
1554.61874268,0.00129943
1556.54755005,0.00128734
1558.47635742,0.00094007
1560.40516479,0.00112630
1562.33397217,0.00144648
1564.26277954,0.00124682
1566.19158691,0.00141606
1568.12039429,0.00127704
1570.04920166,0.00115820
1571.97800903,0.00136065
1573.90681641,0.00127240
1575.83562378,0.00110308
1577.76443115,0.00136831
1579.69323853,0.00172005
1581.62204590,0.00141388
1583.55085327,0.00135443
1585.47966064,0.00146957
1587.40846802,0.00143800
1589.33727539,0.00160082
1591.26608276,0.00147629
1593.19489014,0.00138414
1595.12369751,0.00140980
1597.05250488,0.00140191
1598.98131226,0.00148071
1600.91011963,0.00150684
1602.83892700,0.00142661
1604.76773437,0.00139858
1606.69654175,0.00140556
1608.62534912,0.00144486
1610.55415649,0.00156137
1612.48296387,0.00147708
1614.41177124,0.00152701
1616.34057861,0.00132186
1618.26938599,0.00116211
1620.19819336,0.00154271
1622.12700073,0.00143704
1624.05580811,0.00141827
1625.98461548,0.00148794
1627.91342285,0.00136781
1629.84223022,0.00144549
1631.77103760,0.00146764
1633.69984497,0.00142228
1635.62865234,0.00118204
1637.55745972,0.00133626
1639.48626709,0.00152638
1641.41507446,0.00136683
1643.34388184,0.00145809
1645.27268921,0.00143953
1647.20149658,0.00131627
1649.13030396,0.00141009
1651.05911133,0.00137351
1652.98791870,0.00098000
1654.91672607,0.00126703
1656.84553345,0.00173817
1658.77434082,0.00144693
1660.70314819,0.00139185
1662.63195557,0.00143672
1664.56076294,0.00149924
1666.48957031,0.00147378
1668.41837769,0.00127779
1670.34718506,0.00141624
1672.27599243,0.00145320
1674.20479980,0.00137579
1676.13360718,0.00139334
1678.06241455,0.00159908
1679.99122192,0.00167751
1681.92002930,0.00145393
1683.84883667,0.00132638
1685.77764404,0.00135464
1687.70645142,0.00151421
1689.63525879,0.00149587
1691.56406616,0.00152693
1693.49287354,0.00155011
1695.42168091,0.00134792
1697.35048828,0.00142201
1699.27929565,0.00142424
1701.20810303,0.00130422
1703.13691040,0.00141503
1705.06571777,0.00146899
1706.99452515,0.00148709
1708.92333252,0.00157289
1710.85213989,0.00153323
1712.78094727,0.00143879
1714.70975464,0.00143760
1716.63856201,0.00138453
1718.56736938,0.00131237
1720.49617676,0.00148577
1722.42498413,0.00165434
1724.35379150,0.00159269
1726.28259888,0.00163327
1728.21140625,0.00163225
1730.14021362,0.00156778
1732.06902100,0.00144376
1733.99782837,0.00119427
1735.92663574,0.00140885
1737.85544312,0.00161280
1739.78425049,0.00146624
1741.71305786,0.00150408
1743.64186523,0.00155089
1745.57067261,0.00158338
1747.49947998,0.00164924
1749.42828735,0.00158153
1751.35709473,0.00152275
1753.28590210,0.00163358
1755.21470947,0.00159293
1757.14351685,0.00144985
1759.07232422,0.00151752
1761.00113159,0.00150613
1762.92993896,0.00162222
1764.85874634,0.00181050
1766.78755371,0.00162793
1768.71636108,0.00152967
1770.64516846,0.00164323
1772.57397583,0.00153087
1774.50278320,0.00150097
1776.43159058,0.00171262
1778.36039795,0.00163542
1780.28920532,0.00155367
1782.21801270,0.00162132
1784.14682007,0.00158960
1786.07562744,0.00167123
1788.00443481,0.00174367
1789.93324219,0.00163336
1791.86204956,0.00141808
1793.79085693,0.00153315
1795.71966431,0.00181049
1797.64847168,0.00174170
1799.57727905,0.00168900
1801.50608643,0.00165434
1803.43489380,0.00171182
1805.36370117,0.00194941
1807.29250854,0.00193707
1809.22131592,0.00171916
1811.15012329,0.00162829
1813.07893066,0.00171941
1815.00773804,0.00169514
1816.93654541,0.00168871
1818.86535278,0.00178441
1820.79416016,0.00179343
1822.72296753,0.00182161
1824.65177490,0.00176972
1826.58058228,0.00169529
1828.50938965,0.00162228
1830.43819702,0.00165352
1832.36700439,0.00178809
1834.29581177,0.00177480
1836.22461914,0.00174032
1838.15342651,0.00162122
1840.08223389,0.00174862
1842.01104126,0.00184640
1843.93984863,0.00155194
1845.86865601,0.00167839
1847.79746338,0.00176487
1849.72627075,0.00168283
1851.65507812,0.00184343
1853.58388550,0.00177465
1855.51269287,0.00176519
1857.44150024,0.00180643
1859.37030762,0.00170476
1861.29911499,0.00168839
1863.22792236,0.00171762
1865.15672974,0.00174873
1867.08553711,0.00164578
1869.01434448,0.00159116
1870.94315186,0.00174833
1872.87195923,0.00184096
1874.80076660,0.00178967
1876.72957397,0.00173502
1878.65838135,0.00172763
1880.58718872,0.00172163
1882.51599609,0.00174131
1884.44480347,0.00179076
1886.37361084,0.00169710
1888.30241821,0.00166611
1890.23122559,0.00182523
1892.16003296,0.00171585
1894.08884033,0.00166305
1896.01764771,0.00174834
1897.94645508,0.00162929
1899.87526245,0.00172256
1901.80406982,0.00174693
1903.73287720,0.00172428
1905.66168457,0.00188000
1907.59049194,0.00176090
1909.51929932,0.00168520
1911.44810669,0.00174023
1913.37691406,0.00177183
1915.30572144,0.00180491
1917.23452881,0.00171392
1919.16333618,0.00178444
1921.09214355,0.00182220
1923.02095093,0.00170231
1924.94975830,0.00175419
1926.87856567,0.00180324
1928.80737305,0.00183609
1930.73618042,0.00172836
1932.66498779,0.00165581
1934.59379517,0.00182668
1936.52260254,0.00181884
1938.45140991,0.00190483
1940.38021729,0.00183485
1942.30902466,0.00165109
1944.23783203,0.00181615
1946.16663940,0.00181115
1948.09544678,0.00182302
1950.02425415,0.00179081
1951.95306152,0.00177657
1953.88186890,0.00175793
1955.81067627,0.00162249
1957.73948364,0.00186458
1959.66829102,0.00177891
1961.59709839,0.00172214
1963.52590576,0.00184613
1965.45471313,0.00160790
1967.38352051,0.00168929
1969.31232788,0.00179349
1971.24113525,0.00174442
1973.16994263,0.00179268
1975.09875000,0.00181201
1977.02755737,0.00167742
1978.95636475,0.00172346
1980.88517212,0.00191328
1982.81397949,0.00172636
1984.74278687,0.00178716
1986.67159424,0.00188703
1988.60040161,0.00174126
1990.52920898,0.00173410
1992.45801636,0.00169960
1994.38682373,0.00175008
1996.31563110,0.00174351
1998.24443848,0.00169244
2000.17324585,0.00179160
2002.10205322,0.00179722
2004.03086060,0.00161790
2005.95966797,0.00164556
2007.88847534,0.00174183
2009.81728271,0.00173646
2011.74609009,0.00186310
2013.67489746,0.00174371
2015.60370483,0.00164707
2017.53251221,0.00167887
2019.46131958,0.00176667
2021.39012695,0.00187336
2023.31893433,0.00174803
2025.24774170,0.00182459
2027.17654907,0.00174987
2029.10535645,0.00165796
2031.03416382,0.00171652
2032.96297119,0.00164773
2034.89177856,0.00174618
2036.82058594,0.00176478
2038.74939331,0.00176199
2040.67820068,0.00167876
2042.60700806,0.00166190
2044.53581543,0.00177780
2046.46462280,0.00174488
2048.39343018,0.00175010
2050.32223755,0.00169152
2052.25104492,0.00169587
2054.17985229,0.00168876
2056.10865967,0.00172440
2058.03746704,0.00173641
2059.96627441,0.00161030
2061.89508179,0.00170758
2063.82388916,0.00176259
2065.75269653,0.00182129
2067.68150391,0.00180139
2069.61031128,0.00168703
2071.53911865,0.00175557
2073.46792603,0.00178329
2075.39673340,0.00178361
2077.32554077,0.00175785
2079.25434814,0.00175272
2081.18315552,0.00175756
2083.11196289,0.00174714
2085.04077026,0.00177155
2086.96957764,0.00175212
2088.89838501,0.00173651
2090.82719238,0.00177911
2092.75599976,0.00173480
2094.68480713,0.00165289
2096.61361450,0.00175471
2098.54242187,0.00167675
2100.47122925,0.00164382
2102.40003662,0.00178371
2104.32884399,0.00170210
2106.25765137,0.00169074
2108.18645874,0.00163832
2110.11526611,0.00166343
2112.04407349,0.00176854
2113.97288086,0.00172637
2115.90168823,0.00171857
2117.83049561,0.00161503
2119.75930298,0.00160381
2121.68811035,0.00164718
2123.61691772,0.00167979
2125.54572510,0.00174722
2127.47453247,0.00168286
2129.40333984,0.00162928
2131.33214722,0.00161844
2133.26095459,0.00172935
2135.18976196,0.00178907
2137.11856934,0.00164262
2139.04737671,0.00161381
2140.97618408,0.00172069
2142.90499146,0.00170813
2144.83379883,0.00168438
2146.76260620,0.00180869
2148.69141357,0.00180037
2150.62022095,0.00171523
2152.54902832,0.00169413
2154.47783569,0.00163729
2156.40664307,0.00162648
2158.33545044,0.00168736
2160.26425781,0.00183562
2162.19306519,0.00181423
2164.12187256,0.00166588
2166.05067993,0.00174518
2167.97948730,0.00173144
2169.90829468,0.00159866
2171.83710205,0.00160556
2173.76590942,0.00174945
2175.69471680,0.00186920
2177.62352417,0.00160442
2179.55233154,0.00157373
2181.48113892,0.00178704
2183.40994629,0.00154546
2185.33875366,0.00164549
2187.26756104,0.00186172
2189.19636841,0.00166879
2191.12517578,0.00168287
2193.05398315,0.00169413
2194.98279053,0.00164339
2196.91159790,0.00171078
2198.84040527,0.00172685
2200.76921265,0.00163893
2202.69802002,0.00163741
2204.62682739,0.00170938
2206.55563477,0.00166656
2208.48444214,0.00171116
2210.41324951,0.00171645
2212.34205688,0.00171964
2214.27086426,0.00169183
2216.19967163,0.00156046
2218.12847900,0.00170902
2220.05728638,0.00181631
2221.98609375,0.00172408
2223.91490112,0.00159279
2225.84370850,0.00160943
2227.77251587,0.00178980
2229.70132324,0.00172339
2231.63013062,0.00162052
2233.55893799,0.00169073
2235.48774536,0.00183546
2237.41655273,0.00177268
2239.34536011,0.00166942
2241.27416748,0.00187053
2243.20297485,0.00174370
2245.13178223,0.00156568
2247.06058960,0.00176818
2248.98939697,0.00172371
2250.91820435,0.00160194
2252.84701172,0.00169466
2254.77581909,0.00174543
2256.70462646,0.00169558
2258.63343384,0.00165041
2260.56224121,0.00167460
2262.49104858,0.00161939
2264.41985596,0.00157565
2266.34866333,0.00171413
2268.27747070,0.00171140
2270.20627808,0.00165517
2272.13508545,0.00176594
2274.06389282,0.00175209
2275.99270020,0.00166983
2277.92150757,0.00166686
2279.85031494,0.00171736
2281.77912231,0.00166416
2283.70792969,0.00158373
2285.63673706,0.00173947
2287.56554443,0.00168553
2289.49435181,0.00161557
2291.42315918,0.00177112
2293.35196655,0.00167061
2295.28077393,0.00164424
2297.20958130,0.00165051
2299.13838867,0.00158920
2301.06719604,0.00169541
2302.99600342,0.00174205
2304.92481079,0.00173246
2306.85361816,0.00162580
2308.78242554,0.00168306
2310.71123291,0.00173961
2312.64004028,0.00159140
2314.56884766,0.00166475
2316.49765503,0.00161009
2318.42646240,0.00158929
2320.35526978,0.00168336
2322.28407715,0.00159392
2324.21288452,0.00154187
2326.14169189,0.00149427
2328.07049927,0.00157818
2329.99930664,0.00148570
2331.92811401,0.00140956
2333.85692139,0.00158092
2335.78572876,0.00153840
2337.71453613,0.00159304
2339.64334351,0.00151697
2341.57215088,0.00142948
2343.50095825,0.00160202
2345.42976562,0.00161396
2347.35857300,0.00166626
2349.28738037,0.00167469
2351.21618774,0.00160404
2353.14499512,0.00150471
2355.07380249,0.00143178
2357.00260986,0.00150092
2358.93141724,0.00148618
2360.86022461,0.00146488
2362.78903198,0.00143862
2364.71783936,0.00145758
2366.64664673,0.00149379
2368.57545410,0.00153070
2370.50426147,0.00160784
2372.43306885,0.00161343
2374.36187622,0.00158749
2376.29068359,0.00153703
2378.21949097,0.00174157
2380.14829834,0.00177660
2382.07710571,0.00167894
2384.00591309,0.00180747
2385.93472046,0.00161433
2387.86352783,0.00164751
2389.79233521,0.00172748
2391.72114258,0.00163054
2393.64994995,0.00175447
2395.57875732,0.00165756
2397.50756470,0.00166573
2399.43637207,0.00167919
2401.36517944,0.00167150
2403.29398682,0.00170113
2405.22279419,0.00158529
2407.15160156,0.00167515
2409.08040894,0.00164054
2411.00921631,0.00172225
2412.93802368,0.00180712
2414.86683105,0.00162382
2416.79563843,0.00166453
2418.72444580,0.00172792
2420.65325317,0.00176126
2422.58206055,0.00172420
2424.51086792,0.00173323
2426.43967529,0.00172152
2428.36848267,0.00165549
2430.29729004,0.00170444
2432.22609741,0.00158920
2434.15490479,0.00168098
2436.08371216,0.00171206
2438.01251953,0.00158484
2439.94132690,0.00173330
2441.87013428,0.00176048
2443.79894165,0.00170761
2445.72774902,0.00161914
2447.65655640,0.00158843
2449.58536377,0.00158210
2451.51417114,0.00154107
2453.44297852,0.00168334
2455.37178589,0.00169687
2457.30059326,0.00167271
2459.22940063,0.00171049
2461.15820801,0.00172216
2463.08701538,0.00173010
2465.01582275,0.00163856
2466.94463013,0.00166486
2468.87343750,0.00169047
2470.80224487,0.00157921
2472.73105225,0.00161580
2474.65985962,0.00164218
2476.58866699,0.00155788
2478.51747437,0.00164505
2480.44628174,0.00170230
2482.37508911,0.00161638
2484.30389648,0.00158371
2486.23270386,0.00162291
2488.16151123,0.00172615
2490.09031860,0.00168985
2492.01912598,0.00165847
2493.94793335,0.00171418
2495.87674072,0.00162332
2497.80554810,0.00158089
2499.73435547,0.00167223
2501.66316284,0.00179203
2503.59197021,0.00179242
2505.52077759,0.00165561
2507.44958496,0.00157117
2509.37839233,0.00168290
2511.30719971,0.00175515
2513.23600708,0.00154911
2515.16481445,0.00152916
2517.09362183,0.00161032
2519.02242920,0.00152398
2520.95123657,0.00152137
2522.88004395,0.00160718
2524.80885132,0.00172246
2526.73765869,0.00163077
2528.66646606,0.00158175
2530.59527344,0.00166108
2532.52408081,0.00156397
2534.45288818,0.00164756
2536.38169556,0.00166074
2538.31050293,0.00154677
2540.23931030,0.00167399
2542.16811768,0.00167938
2544.09692505,0.00160589
2546.02573242,0.00164870
2547.95453979,0.00169989
2549.88334717,0.00166481
2551.81215454,0.00156278
2553.74096191,0.00159296
2555.66976929,0.00168060
2557.59857666,0.00167166
2559.52738403,0.00157128
2561.45619141,0.00157330
2563.38499878,0.00168594
2565.31380615,0.00165532
2567.24261353,0.00166398
2569.17142090,0.00164531
2571.10022827,0.00151116
2573.02903564,0.00161339
2574.95784302,0.00161755
2576.88665039,0.00151248
2578.81545776,0.00164903
2580.74426514,0.00162339
2582.67307251,0.00154278
2584.60187988,0.00159752
2586.53068726,0.00163629
2588.45949463,0.00170029
2590.38830200,0.00160695
2592.31710937,0.00151106
2594.24591675,0.00156516
2596.17472412,0.00163695
2598.10353149,0.00163199
2600.03233887,0.00164546
2601.96114624,0.00174500
2603.88995361,0.00160212
2605.81876099,0.00157827
2607.74756836,0.00161705
2609.67637573,0.00149488
2611.60518311,0.00165289
2613.53399048,0.00158375
2615.46279785,0.00147779
2617.39160522,0.00162313
2619.32041260,0.00160796
2621.24921997,0.00167226
2623.17802734,0.00164704
2625.10683472,0.00154743
2627.03564209,0.00160283
2628.96444946,0.00164627
2630.89325684,0.00157093
2632.82206421,0.00149481
2634.75087158,0.00160495
2636.67967895,0.00161619
2638.60848633,0.00151774
2640.53729370,0.00158094
2642.46610107,0.00167405
2644.39490845,0.00160520
2646.32371582,0.00154294
2648.25252319,0.00157670
2650.18133057,0.00154511
2652.11013794,0.00153828
2654.03894531,0.00152701
2655.96775269,0.00154280
2657.89656006,0.00158763
2659.82536743,0.00156768
2661.75417480,0.00160689
2663.68298218,0.00163128
2665.61178955,0.00161786
2667.54059692,0.00157877
2669.46940430,0.00151382
2671.39821167,0.00150830
2673.32701904,0.00152684
2675.25582642,0.00152270
2677.18463379,0.00155532
2679.11344116,0.00160991
2681.04224854,0.00165832
2682.97105591,0.00166583
2684.89986328,0.00157866
2686.82867065,0.00158122
2688.75747803,0.00154631
2690.68628540,0.00154752
2692.61509277,0.00158729
2694.54390015,0.00150167
2696.47270752,0.00161837
2698.40151489,0.00157757
2700.33032227,0.00152726
2702.25912964,0.00161111
2704.18793701,0.00153583
2706.11674438,0.00157043
2708.04555176,0.00152058
2709.97435913,0.00155014
2711.90316650,0.00147770
2713.83197388,0.00138936
2715.76078125,0.00162291
2717.68958862,0.00159810
2719.61839600,0.00156643
2721.54720337,0.00158748
2723.47601074,0.00152997
2725.40481812,0.00151841
2727.33362549,0.00153018
2729.26243286,0.00159779
2731.19124023,0.00157591
2733.12004761,0.00151923
2735.04885498,0.00147912
2736.97766235,0.00162433
2738.90646973,0.00162997
2740.83527710,0.00155234
2742.76408447,0.00165514
2744.69289185,0.00153256
2746.62169922,0.00153711
2748.55050659,0.00159246
2750.47931396,0.00154739
2752.40812134,0.00154432
2754.33692871,0.00157030
2756.26573608,0.00168982
2758.19454346,0.00155101
2760.12335083,0.00147917
2762.05215820,0.00154226
2763.98096558,0.00143275
2765.90977295,0.00146341
2767.83858032,0.00157821
2769.76738770,0.00148624
2771.69619507,0.00144818
2773.62500244,0.00157749
2775.55380981,0.00147849
2777.48261719,0.00141770
2779.41142456,0.00144162
2781.34023193,0.00151454
2783.26903931,0.00160498
2785.19784668,0.00143536
2787.12665405,0.00153413
2789.05546143,0.00153948
2790.98426880,0.00142249
2792.91307617,0.00154768
2794.84188354,0.00144643
2796.77069092,0.00147374
2798.69949829,0.00147745
2800.62830566,0.00139622
2802.55711304,0.00147275
2804.48592041,0.00147163
2806.41472778,0.00154326
2808.34353516,0.00149767
2810.27234253,0.00145719
2812.20114990,0.00147504
2814.12995728,0.00148128
2816.05876465,0.00161136
2817.98757202,0.00147443
2819.91637939,0.00144544
2821.84518677,0.00151806
2823.77399414,0.00139725
2825.70280151,0.00151642
2827.63160889,0.00149792
2829.56041626,0.00145119
2831.48922363,0.00150478
2833.41803101,0.00137026
2835.34683838,0.00141053
2837.27564575,0.00139758
2839.20445312,0.00140955
2841.13326050,0.00153739
2843.06206787,0.00149612
2844.99087524,0.00144724
2846.91968262,0.00136254
2848.84848999,0.00143179
2850.77729736,0.00143724
2852.70610474,0.00139641
2854.63491211,0.00151474
2856.56371948,0.00139311
2858.49252686,0.00145387
2860.42133423,0.00152822
2862.35014160,0.00140496
2864.27894897,0.00146573
2866.20775635,0.00138478
2868.13656372,0.00139820
2870.06537109,0.00144997
2871.99417847,0.00135084
2873.92298584,0.00142592
2875.85179321,0.00144003
2877.78060059,0.00142461
2879.70940796,0.00141377
2881.63821533,0.00139445
2883.56702270,0.00141175
2885.49583008,0.00136999
2887.42463745,0.00147374
2889.35344482,0.00143818
2891.28225220,0.00135194
2893.21105957,0.00145194
2895.13986694,0.00138232
2897.06867432,0.00134840
2898.99748169,0.00126347
2900.92628906,0.00122843
2902.85509644,0.00139235
2904.78390381,0.00130749
2906.71271118,0.00131923
2908.64151855,0.00139964
2910.57032593,0.00136006
2912.49913330,0.00145155
2914.42794067,0.00139473
2916.35674805,0.00131846
2918.28555542,0.00137519
2920.21436279,0.00134144
2922.14317017,0.00129779
2924.07197754,0.00128371
2926.00078491,0.00130383
2927.92959229,0.00132802
2929.85839966,0.00135743
2931.78720703,0.00139855
2933.71601440,0.00135059
2935.64482178,0.00136403
2937.57362915,0.00136209
2939.50243652,0.00136377
2941.43124390,0.00146916
2943.36005127,0.00137378
2945.28885864,0.00132898
2947.21766602,0.00137093
2949.14647339,0.00133205
2951.07528076,0.00137448
2953.00408813,0.00136282
2954.93289551,0.00135342
2956.86170288,0.00133972
2958.79051025,0.00126325
2960.71931763,0.00121407
2962.64812500,0.00133396
2964.57693237,0.00140311
2966.50573975,0.00130006
2968.43454712,0.00137886
2970.36335449,0.00131488
2972.29216187,0.00127112
2974.22096924,0.00134570
2976.14977661,0.00132225
2978.07858398,0.00142714
2980.00739136,0.00134472
2981.93619873,0.00132650
2983.86500610,0.00143711
2985.79381348,0.00138657
2987.72262085,0.00128809
2989.65142822,0.00129507
2991.58023560,0.00142425
2993.50904297,0.00137088
2995.43785034,0.00135403
2997.36665771,0.00133751
2999.29546509,0.00140601
3001.22427246,0.00141388
3003.15307983,0.00123878
3005.08188721,0.00142783
3007.01069458,0.00143825
3008.93950195,0.00132688
3010.86830933,0.00129630
3012.79711670,0.00131599
3014.72592407,0.00142854
3016.65473145,0.00128338
3018.58353882,0.00135851
3020.51234619,0.00142163
3022.44115356,0.00133472
3024.36996094,0.00131430
3026.29876831,0.00130567
3028.22757568,0.00138793
3030.15638306,0.00134299
3032.08519043,0.00139721
3034.01399780,0.00137084
3035.94280518,0.00131182
3037.87161255,0.00125831
3039.80041992,0.00119850
3041.72922729,0.00136868
3043.65803467,0.00126528
3045.58684204,0.00129815
3047.51564941,0.00138476
3049.44445679,0.00126077
3051.37326416,0.00130665
3053.30207153,0.00122477
3055.23087891,0.00122346
3057.15968628,0.00124625
3059.08849365,0.00127758
3061.01730103,0.00133602
3062.94610840,0.00117977
3064.87491577,0.00121804
3066.80372314,0.00125446
3068.73253052,0.00120326
3070.66133789,0.00133598
3072.59014526,0.00135682
3074.51895264,0.00131152
3076.44776001,0.00130152
3078.37656738,0.00122246
3080.30537476,0.00121237
3082.23418213,0.00122438
3084.16298950,0.00123401
3086.09179687,0.00127876
3088.02060425,0.00123655
3089.94941162,0.00120995
3091.87821899,0.00126030
3093.80702637,0.00134008
3095.73583374,0.00131949
3097.66464111,0.00120506
3099.59344849,0.00122827
3101.52225586,0.00125037
3103.45106323,0.00123431
3105.37987061,0.00132816
3107.30867798,0.00132779
3109.23748535,0.00120196
3111.16629272,0.00121612
3113.09510010,0.00128029
3115.02390747,0.00128150
3116.95271484,0.00127306
3118.88152222,0.00120935
3120.81032959,0.00121304
3122.73913696,0.00117734
3124.66794434,0.00112290
3126.59675171,0.00125925
3128.52555908,0.00128729
3130.45436645,0.00125791
3132.38317383,0.00129474
3134.31198120,0.00117027
3136.24078857,0.00116390
3138.16959595,0.00132460
3140.09840332,0.00129238
3142.02721069,0.00121400
3143.95601807,0.00117529
3145.88482544,0.00111752
3147.81363281,0.00114485
3149.74244019,0.00119513
3151.67124756,0.00119385
3153.60005493,0.00120858
3155.52886230,0.00121363
3157.45766968,0.00112751
3159.38647705,0.00112528
3161.31528442,0.00114979
3163.24409180,0.00117924
3165.17289917,0.00120335
3167.10170654,0.00114164
3169.03051392,0.00124188
3170.95932129,0.00113602
3172.88812866,0.00104455
3174.81693604,0.00117950
3176.74574341,0.00113367
3178.67455078,0.00118540
3180.60335815,0.00113050
3182.53216553,0.00111510
3184.46097290,0.00116549
3186.38978027,0.00110314
3188.31858765,0.00112783
3190.24739502,0.00108501
3192.17620239,0.00118333
3194.10500977,0.00107165
3196.03381714,0.00097253
3197.96262451,0.00111079
3199.89143188,0.00102778
3201.82023926,0.00114073
3203.74904663,0.00119393
3205.67785400,0.00107932
3207.60666138,0.00112639
3209.53546875,0.00114799
3211.46427612,0.00108863
3213.39308350,0.00113656
3215.32189087,0.00117296
3217.25069824,0.00105426
3219.17950562,0.00110205
3221.10831299,0.00112966
3223.03712036,0.00116730
3224.96592773,0.00115880
3226.89473511,0.00106218
3228.82354248,0.00109656
3230.75234985,0.00100416
3232.68115723,0.00109836
3234.60996460,0.00113818
3236.53877197,0.00106319
3238.46757935,0.00114326
3240.39638672,0.00108888
3242.32519409,0.00113123
3244.25400146,0.00114954
3246.18280884,0.00108959
3248.11161621,0.00110580
3250.04042358,0.00112777
3251.96923096,0.00102604
3253.89803833,0.00102876
3255.82684570,0.00116820
3257.75565308,0.00105024
3259.68446045,0.00108510
3261.61326782,0.00107852
3263.54207520,0.00103810
3265.47088257,0.00118547
3267.39968994,0.00110498
3269.32849731,0.00109885
3271.25730469,0.00109726
3273.18611206,0.00110066
3275.11491943,0.00111115
3277.04372681,0.00098274
3278.97253418,0.00106391
3280.90134155,0.00114350
3282.83014893,0.00103480
3284.75895630,0.00100850
3286.68776367,0.00110948
3288.61657104,0.00104886
3290.54537842,0.00098291
3292.47418579,0.00107580
3294.40299316,0.00104095
3296.33180054,0.00101731
3298.26060791,0.00110293
3300.18941528,0.00108532
3302.11822266,0.00107974
3304.04703003,0.00114978
3305.97583740,0.00104120
3307.90464478,0.00100741
3309.83345215,0.00104299
3311.76225952,0.00101708
3313.69106689,0.00111637
3315.61987427,0.00104745
3317.54868164,0.00107687
3319.47748901,0.00113533
3321.40629639,0.00104344
3323.33510376,0.00112791
3325.26391113,0.00110360
3327.19271851,0.00107086
3329.12152588,0.00100820
3331.05033325,0.00100129
3332.97914062,0.00111199
3334.90794800,0.00098257
3336.83675537,0.00099775
3338.76556274,0.00106010
3340.69437012,0.00105493
3342.62317749,0.00113895
3344.55198486,0.00109428
3346.48079224,0.00111100
3348.40959961,0.00114011
3350.33840698,0.00115218
3352.26721436,0.00117736
3354.19602173,0.00105315
3356.12482910,0.00109862
3358.05363647,0.00114800
3359.98244385,0.00099525
3361.91125122,0.00107383
3363.84005859,0.00117142
3365.76886597,0.00104453
3367.69767334,0.00105047
3369.62648071,0.00114533
3371.55528809,0.00106296
3373.48409546,0.00104863
3375.41290283,0.00116111
3377.34171020,0.00113680
3379.27051758,0.00106954
3381.19932495,0.00102960
3383.12813232,0.00103939
3385.05693970,0.00105271
3386.98574707,0.00108825
3388.91455444,0.00108062
3390.84336182,0.00094931
3392.77216919,0.00101645
3394.70097656,0.00100805
3396.62978394,0.00097642
3398.55859131,0.00106585
3400.48739868,0.00101375
3402.41620605,0.00112816
3404.34501343,0.00111330
3406.27382080,0.00103458
3408.20262817,0.00110880
3410.13143555,0.00105278
3412.06024292,0.00105512
3413.98905029,0.00103248
3415.91785767,0.00110197
3417.84666504,0.00114933
3419.77547241,0.00103501
3421.70427979,0.00103029
3423.63308716,0.00099566
3425.56189453,0.00101842
3427.49070190,0.00104571
3429.41950928,0.00104028
3431.34831665,0.00106359
3433.27712402,0.00101850
3435.20593140,0.00103934
3437.13473877,0.00103035
3439.06354614,0.00106444
3440.99235352,0.00110325
3442.92116089,0.00095177
3444.84996826,0.00094969
3446.77877563,0.00106175
3448.70758301,0.00102386
3450.63639038,0.00096253
3452.56519775,0.00100428
3454.49400513,0.00100652
3456.42281250,0.00092896
3458.35161987,0.00105185
3460.28042725,0.00106821
3462.20923462,0.00092785
3464.13804199,0.00101707
3466.06684937,0.00104105
3467.99565674,0.00103080
3469.92446411,0.00098092
3471.85327148,0.00094352
3473.78207886,0.00109214
3475.71088623,0.00106841
3477.63969360,0.00101508
3479.56850098,0.00091578
3481.49730835,0.00088862
3483.42611572,0.00105631
3485.35492310,0.00096948
3487.28373047,0.00095079
3489.21253784,0.00104831
3491.14134521,0.00103787
3493.07015259,0.00109688
3494.99895996,0.00109796
3496.92776733,0.00104399
3498.85657471,0.00101002
3500.78538208,0.00098403
3502.71418945,0.00101096
3504.64299683,0.00099818
3506.57180420,0.00096710
3508.50061157,0.00105617
3510.42941895,0.00108272
3512.35822632,0.00099996
3514.28703369,0.00099875
3516.21584106,0.00103689
3518.14464844,0.00101583
3520.07345581,0.00095488
3522.00226318,0.00098405
3523.93107056,0.00101587
3525.85987793,0.00102273
3527.78868530,0.00106340
3529.71749268,0.00099041
3531.64630005,0.00098605
3533.57510742,0.00109607
3535.50391479,0.00103256
3537.43272217,0.00095782
3539.36152954,0.00099998
3541.29033691,0.00097380
3543.21914429,0.00101555
3545.14795166,0.00099873
3547.07675903,0.00087093
3549.00556641,0.00097728
3550.93437378,0.00103409
3552.86318115,0.00093776
3554.79198853,0.00090923
3556.72079590,0.00095116
3558.64960327,0.00100019
3560.57841064,0.00099125
3562.50721802,0.00098658
3564.43602539,0.00096119
3566.36483276,0.00092948
3568.29364014,0.00091497
3570.22244751,0.00100814
3572.15125488,0.00103160
3574.08006226,0.00099520
3576.00886963,0.00111363
3577.93767700,0.00105636
3579.86648437,0.00098991
3581.79529175,0.00100805
3583.72409912,0.00101715
3585.65290649,0.00102403
3587.58171387,0.00092050
3589.51052124,0.00096425
3591.43932861,0.00104884
3593.36813599,0.00104258
3595.29694336,0.00102322
3597.22575073,0.00100890
3599.15455811,0.00097592
3601.08336548,0.00101544
3603.01217285,0.00105253
3604.94098022,0.00096945
3606.86978760,0.00102782
3608.79859497,0.00096096
3610.72740234,0.00097108
3612.65620972,0.00103374
3614.58501709,0.00092240
3616.51382446,0.00099309
3618.44263184,0.00090924
3620.37143921,0.00092536
3622.30024658,0.00099139
3624.22905395,0.00101668
3626.15786133,0.00108800
3628.08666870,0.00082025
3630.01547607,0.00086737
3631.94428345,0.00104159
3633.87309082,0.00099600
3635.80189819,0.00103926
3637.73070557,0.00103503
3639.65951294,0.00100011
3641.58832031,0.00100469
3643.51712769,0.00110669
3645.44593506,0.00106046
3647.37474243,0.00097820
3649.30354980,0.00089309
3651.23235718,0.00084037
3653.16116455,0.00107326
3655.08997192,0.00098197
3657.01877930,0.00081434
3658.94758667,0.00098659
3660.87639404,0.00100733
3662.80520142,0.00100490
3664.73400879,0.00106331
3666.66281616,0.00104129
3668.59162354,0.00092244
3670.52043091,0.00081623
3672.44923828,0.00101615
3674.37804565,0.00097717
3676.30685303,0.00080307
3678.23566040,0.00100889
3680.16446777,0.00097889
3682.09327515,0.00101354
3684.02208252,0.00112363
3685.95088989,0.00097408
3687.87969727,0.00089319
3689.80850464,0.00088309
3691.73731201,0.00098542
3693.66611938,0.00092979
3695.59492676,0.00100550
3697.52373413,0.00104460
3699.45254150,0.00092710
3701.38134888,0.00104283
3703.31015625,0.00101114
3705.23896362,0.00107327
3707.16777100,0.00098059
3709.09657837,0.00095609
3711.02538574,0.00096817
3712.95419312,0.00081287
3714.88300049,0.00107339
3716.81180786,0.00101728
3718.74061523,0.00102127
3720.66942261,0.00105805
3722.59822998,0.00093917
3724.52703735,0.00101897
3726.45584473,0.00087257
3728.38465210,0.00098929
3730.31345947,0.00095388
3732.24226685,0.00086276
3734.17107422,0.00090301
3736.09988159,0.00082204
3738.02868896,0.00091641
3739.95749634,0.00090281
3741.88630371,0.00101154
3743.81511108,0.00080821
3745.74391846,0.00071710
3747.67272583,0.00096154
3749.60153320,0.00077527
3751.53034058,0.00084115
3753.45914795,0.00088200
3755.38795532,0.00083855
3757.31676270,0.00098448
3759.24557007,0.00094020
3761.17437744,0.00096517
3763.10318481,0.00099202
3765.03199219,0.00088085
3766.96079956,0.00095344
3768.88960693,0.00103785
3770.81841431,0.00085740
3772.74722168,0.00091086
3774.67602905,0.00102387
3776.60483643,0.00095747
3778.53364380,0.00097136
3780.46245117,0.00092889
3782.39125854,0.00088911
3784.32006592,0.00086092
3786.24887329,0.00093035
3788.17768066,0.00093483
3790.10648804,0.00091023
3792.03529541,0.00101792
3793.96410278,0.00098084
3795.89291016,0.00089762
3797.82171753,0.00087472
3799.75052490,0.00087464
3801.67933228,0.00075777
3803.60813965,0.00086159
3805.53694702,0.00096795
3807.46575439,0.00082183
3809.39456177,0.00095959
3811.32336914,0.00093460
3813.25217651,0.00088454
3815.18098389,0.00085497
3817.10979126,0.00075619
3819.03859863,0.00096089
3820.96740601,0.00089658
3822.89621338,0.00085201
3824.82502075,0.00098078
3826.75382812,0.00092531
3828.68263550,0.00091620
3830.61144287,0.00086740
3832.54025024,0.00081235
3834.46905762,0.00086843
3836.39786499,0.00086398
3838.32667236,0.00077084
3840.25547974,0.00086601
3842.18428711,0.00089696
3844.11309448,0.00075965
3846.04190186,0.00083205
3847.97070923,0.00092179
3849.89951660,0.00093186
3851.82832397,0.00083242
3853.75713135,0.00065647
3855.68593872,0.00070214
3857.61474609,0.00091906
3859.54355347,0.00097512
3861.47236084,0.00086707
3863.40116821,0.00084301
3865.32997559,0.00087391
3867.25878296,0.00092806
3869.18759033,0.00082301
3871.11639770,0.00074479
3873.04520508,0.00088310
3874.97401245,0.00082564
3876.90281982,0.00083866
3878.83162720,0.00087702
3880.76043457,0.00082075
3882.68924194,0.00095010
3884.61804932,0.00080592
3886.54685669,0.00072697
3888.47566406,0.00095427
3890.40447144,0.00087788
3892.33327881,0.00079526
3894.26208618,0.00088779
3896.19089355,0.00092106
3898.11970093,0.00085512
3900.04850830,0.00080656
3901.97731567,0.00086279
3903.90612305,0.00077880
3905.83493042,0.00076393
3907.76373779,0.00089092
3909.69254517,0.00087927
3911.62135254,0.00087939
3913.55015991,0.00092575
3915.47896728,0.00089742
3917.40777466,0.00081143
3919.33658203,0.00089340
3921.26538940,0.00093665
3923.19419678,0.00085242
3925.12300415,0.00094983
3927.05181152,0.00088734
3928.98061890,0.00084866
3930.90942627,0.00087646
3932.83823364,0.00078186
3934.76704102,0.00091635
3936.69584839,0.00088371
3938.62465576,0.00085307
3940.55346313,0.00093225
3942.48227051,0.00076606
3944.41107788,0.00081149
3946.33988525,0.00090565
3948.26869263,0.00086454
3950.19750000,0.00084450
3952.12630737,0.00083002
3954.05511475,0.00085978
3955.98392212,0.00083329
3957.91272949,0.00085594
3959.84153687,0.00086714
3961.77034424,0.00083428
3963.69915161,0.00085179
3965.62795898,0.00084431
3967.55676636,0.00080117
3969.48557373,0.00078734
3971.41438110,0.00086842
3973.34318848,0.00085931
3975.27199585,0.00085901
3977.20080322,0.00087802
3979.12961060,0.00081867
3981.05841797,0.00089476
3982.98722534,0.00087616
3984.91603271,0.00079307
3986.84484009,0.00081097
3988.77364746,0.00082712
3990.70245483,0.00087014
3992.63126221,0.00085836
3994.56006958,0.00081659
3996.48887695,0.00078499
3998.41768433,0.00079486
4000.34649170,0.00083110
4002.27529907,0.00083055
4004.20410645,0.00085016
4006.13291382,0.00086063
4008.06172119,0.00079487
4009.99052856,0.00077709
4011.91933594,0.00081284
4013.84814331,0.00076653
4015.77695068,0.00078669
4017.70575806,0.00076669
4019.63456543,0.00079898
4021.56337280,0.00085115
4023.49218018,0.00070519
4025.42098755,0.00080297
4027.34979492,0.00086106
4029.27860229,0.00084281
4031.20740967,0.00085102
4033.13621704,0.00070891
4035.06502441,0.00083411
4036.99383179,0.00084249
4038.92263916,0.00078620
4040.85144653,0.00088722
4042.78025391,0.00083374
4044.70906128,0.00083567
4046.63786865,0.00086247
4048.56667603,0.00085066
4050.49548340,0.00082280
4052.42429077,0.00084938
4054.35309814,0.00080771
4056.28190552,0.00069954
4058.21071289,0.00076133
4060.13952026,0.00077203
4062.06832764,0.00072501
4063.99713501,0.00076748
4065.92594238,0.00081111
4067.85474976,0.00072978
4069.78355713,0.00076075
4071.71236450,0.00081741
4073.64117187,0.00075757
4075.56997925,0.00086136
4077.49878662,0.00083003
4079.42759399,0.00075801
4081.35640137,0.00077144
4083.28520874,0.00075192
4085.21401611,0.00076786
4087.14282349,0.00075151
4089.07163086,0.00079295
4091.00043823,0.00072350
4092.92924561,0.00075365
4094.85805298,0.00085066
4096.78686035,0.00076202
4098.71566772,0.00075374
4100.64447510,0.00074067
4102.57328247,0.00075204
4104.50208984,0.00076235
4106.43089722,0.00077956
4108.35970459,0.00079310
4110.28851196,0.00076410
4112.21731934,0.00080513
4114.14612671,0.00075342
4116.07493408,0.00072429
4118.00374145,0.00072037
4119.93254883,0.00075132
4121.86135620,0.00077736
4123.79016357,0.00070698
4125.71897095,0.00075762
4127.64777832,0.00076134
4129.57658569,0.00073237
4131.50539307,0.00075598
4133.43420044,0.00078456
4135.36300781,0.00078431
4137.29181519,0.00069380
4139.22062256,0.00069551
4141.14942993,0.00072632
4143.07823730,0.00071827
4145.00704468,0.00070327
4146.93585205,0.00074443
4148.86465942,0.00081937
4150.79346680,0.00078117
4152.72227417,0.00079482
4154.65108154,0.00077547
4156.57988892,0.00071374
4158.50869629,0.00074204
4160.43750366,0.00071136
4162.36631103,0.00076541
4164.29511841,0.00074464
4166.22392578,0.00060543
4168.15273315,0.00073548
4170.08154053,0.00077755
4172.01034790,0.00069963
4173.93915527,0.00077723
4175.86796265,0.00069370
4177.79677002,0.00065186
4179.72557739,0.00077336
4181.65438477,0.00072719
4183.58319214,0.00066140
4185.51199951,0.00066527
4187.44080688,0.00069368
4189.36961426,0.00075668
4191.29842163,0.00072418
4193.22722900,0.00070772
4195.15603638,0.00073668
4197.08484375,0.00067503
4199.01365112,0.00064191
4200.94245850,0.00063818
4202.87126587,0.00063640
4204.80007324,0.00068500
4206.72888062,0.00075486
4208.65768799,0.00075186
4210.58649536,0.00064198
4212.51530273,0.00064545
4214.44411011,0.00071816
4216.37291748,0.00068648
4218.30172485,0.00068335
4220.23053223,0.00073819
4222.15933960,0.00068323
4224.08814697,0.00067233
4226.01695435,0.00075655
4227.94576172,0.00067542
4229.87456909,0.00069756
4231.80337646,0.00074154
4233.73218384,0.00064942
4235.66099121,0.00064881
4237.58979858,0.00064614
4239.51860596,0.00069629
4241.44741333,0.00066788
4243.37622070,0.00065572
4245.30502808,0.00067177
4247.23383545,0.00066548
4249.16264282,0.00078053
4251.09145020,0.00065134
4253.02025757,0.00063422
4254.94906494,0.00069798
4256.87787231,0.00056370
4258.80667969,0.00062459
4260.73548706,0.00072598
4262.66429443,0.00073810
4264.59310181,0.00064878
4266.52190918,0.00067658
4268.45071655,0.00074971
4270.37952393,0.00071952
4272.30833130,0.00072840
4274.23713867,0.00064278
4276.16594604,0.00064888
4278.09475342,0.00066021
4280.02356079,0.00065358
4281.95236816,0.00069205
4283.88117554,0.00065056
4285.80998291,0.00066218
4287.73879028,0.00069804
4289.66759766,0.00074131
4291.59640503,0.00065869
4293.52521240,0.00058774
4295.45401978,0.00061349
4297.38282715,0.00056655
4299.31163452,0.00062191
4301.24044189,0.00066054
4303.16924927,0.00060357
4305.09805664,0.00061863
4307.02686401,0.00063143
4308.95567139,0.00063748
4310.88447876,0.00066933
4312.81328613,0.00061656
4314.74209351,0.00066705
4316.67090088,0.00070240
4318.59970825,0.00056078
4320.52851562,0.00057942
4322.45732300,0.00063032
4324.38613037,0.00069465
4326.31493774,0.00069231
4328.24374512,0.00061829
4330.17255249,0.00069960
4332.10135986,0.00069324
4334.03016724,0.00062074
4335.95897461,0.00057232
4337.88778198,0.00062320
4339.81658936,0.00061000
4341.74539673,0.00058982
4343.67420410,0.00064261
4345.60301147,0.00059604
4347.53181885,0.00073333
4349.46062622,0.00068352
4351.38943359,0.00060047
4353.31824097,0.00066881
4355.24704834,0.00060759
4357.17585571,0.00066806
4359.10466309,0.00062282
4361.03347046,0.00066140
4362.96227783,0.00066460
4364.89108520,0.00056071
4366.81989258,0.00064935
4368.74869995,0.00059758
4370.67750732,0.00059964
4372.60631470,0.00063519
4374.53512207,0.00061466
4376.46392944,0.00063720
4378.39273682,0.00061757
4380.32154419,0.00061916
4382.25035156,0.00060245
4384.17915894,0.00058613
4386.10796631,0.00058691
4388.03677368,0.00058843
4389.96558105,0.00057778
4391.89438843,0.00060628
4393.82319580,0.00058230
4395.75200317,0.00057830
4397.68081055,0.00056814
4399.60961792,0.00053100
4401.53842529,0.00064494
4403.46723267,0.00053968
4405.39604004,0.00059519
4407.32484741,0.00072832
4409.25365478,0.00057394
4411.18246216,0.00061422
4413.11126953,0.00051643
4415.04007690,0.00050507
4416.96888428,0.00065447
4418.89769165,0.00063533
4420.82649902,0.00063030
4422.75530640,0.00052991
4424.68411377,0.00051308
4426.61292114,0.00056432
4428.54172852,0.00061514
4430.47053589,0.00058966
4432.39934326,0.00050054
4434.32815063,0.00052553
4436.25695801,0.00054081
4438.18576538,0.00060200
4440.11457275,0.00060153
4442.04338013,0.00059841
4443.97218750,0.00055391
4445.90099487,0.00050225
4447.82980225,0.00062509
4449.75860962,0.00059795
4451.68741699,0.00060802
4453.61622437,0.00063448
4455.54503174,0.00056361
4457.47383911,0.00057879
4459.40264648,0.00050756
4461.33145386,0.00053929
4463.26026123,0.00060790
4465.18906860,0.00053816
4467.11787598,0.00051598
4469.04668335,0.00052133
4470.97549072,0.00055503
4472.90429810,0.00053912
4474.83310547,0.00052867
4476.76191284,0.00058382
4478.69072021,0.00056530
4480.61952759,0.00054948
4482.54833496,0.00057094
4484.47714233,0.00058383
4486.40594971,0.00054586
4488.33475708,0.00053459
4490.26356445,0.00058117
4492.19237183,0.00058740
4494.12117920,0.00059740
4496.04998657,0.00053672
4497.97879395,0.00051817
4499.90760132,0.00054143
4501.83640869,0.00048959
4503.76521606,0.00051910
4505.69402344,0.00053463
4507.62283081,0.00053342
4509.55163818,0.00055234
4511.48044556,0.00056645
4513.40925293,0.00051508
4515.33806030,0.00047859
4517.26686768,0.00055154
4519.19567505,0.00054013
4521.12448242,0.00058319
4523.05328979,0.00052311
4524.98209717,0.00048358
4526.91090454,0.00058164
4528.83971191,0.00048878
4530.76851929,0.00051579
4532.69732666,0.00051620
4534.62613403,0.00054831
4536.55494141,0.00059336
4538.48374878,0.00046736
4540.41255615,0.00057624
4542.34136353,0.00056352
4544.27017090,0.00047974
4546.19897827,0.00051652
4548.12778564,0.00050450
4550.05659302,0.00054911
4551.98540039,0.00055455
4553.91420776,0.00052737
4555.84301514,0.00049279
4557.77182251,0.00058337
4559.70062988,0.00060101
4561.62943726,0.00049480
4563.55824463,0.00053899
4565.48705200,0.00052775
4567.41585937,0.00048605
4569.34466675,0.00049598
4571.27347412,0.00053910
4573.20228149,0.00056914
4575.13108887,0.00055641
4577.05989624,0.00052228
4578.98870361,0.00047718
4580.91751099,0.00056115
4582.84631836,0.00058104
4584.77512573,0.00050228
4586.70393311,0.00050619
4588.63274048,0.00055488
4590.56154785,0.00057753
4592.49035522,0.00053331
4594.41916260,0.00051926
4596.34796997,0.00051794
4598.27677734,0.00051120
4600.20558472,0.00050657
4602.13439209,0.00046418
4604.06319946,0.00051385
4605.99200684,0.00053603
4607.92081421,0.00041465
4609.84962158,0.00044307
4611.77842895,0.00050629
4613.70723633,0.00048052
4615.63604370,0.00048623
4617.56485107,0.00039749
4619.49365845,0.00046433
4621.42246582,0.00055262
4623.35127319,0.00045937
4625.28008057,0.00048351
4627.20888794,0.00046003
4629.13769531,0.00045822
4631.06650269,0.00051688
4632.99531006,0.00051914
4634.92411743,0.00053814
4636.85292480,0.00047779
4638.78173218,0.00046532
4640.71053955,0.00050748
4642.63934692,0.00049058
4644.56815430,0.00043772
4646.49696167,0.00038558
4648.42576904,0.00040786
4650.35457642,0.00044802
4652.28338379,0.00043771
4654.21219116,0.00045875
4656.14099853,0.00047713
4658.06980591,0.00042990
4659.99861328,0.00050687
4661.92742065,0.00054274
4663.85622803,0.00043617
4665.78503540,0.00046946
4667.71384277,0.00048504
4669.64265015,0.00040795
4671.57145752,0.00046203
4673.50026489,0.00047404
4675.42907227,0.00039022
4677.35787964,0.00047547
4679.28668701,0.00043704
4681.21549438,0.00037911
4683.14430176,0.00051846
4685.07310913,0.00044755
4687.00191650,0.00047633
4688.93072388,0.00049886
4690.85953125,0.00033614
4692.78833862,0.00042864
4694.71714600,0.00049122
4696.64595337,0.00043090
4698.57476074,0.00042109
4700.50356812,0.00045121
4702.43237549,0.00045461
4704.36118286,0.00041652
4706.28999023,0.00048394
4708.21879761,0.00046866
4710.14760498,0.00039388
4712.07641235,0.00043768
4714.00521973,0.00045903
4715.93402710,0.00044856
4717.86283447,0.00043638
4719.79164185,0.00045320
4721.72044922,0.00046050
4723.64925659,0.00041884
4725.57806396,0.00048892
4727.50687134,0.00049680
4729.43567871,0.00043472
4731.36448608,0.00046123
4733.29329346,0.00043524
4735.22210083,0.00046316
4737.15090820,0.00046310
4739.07971558,0.00046130
4741.00852295,0.00043823
4742.93733032,0.00034056
4744.86613770,0.00044194
4746.79494507,0.00042320
4748.72375244,0.00036428
4750.65255981,0.00039595
4752.58136719,0.00040112
4754.51017456,0.00043672
4756.43898193,0.00037466
4758.36778931,0.00046374
4760.29659668,0.00049222
4762.22540405,0.00045040
4764.15421143,0.00046312
4766.08301880,0.00042042
4768.01182617,0.00049467
4769.94063354,0.00043260
4771.86944092,0.00045530
4773.79824829,0.00048956
4775.72705566,0.00037627
4777.65586304,0.00044047
4779.58467041,0.00048604
4781.51347778,0.00043429
4783.44228516,0.00037966
4785.37109253,0.00045568
4787.29989990,0.00044253
4789.22870728,0.00041946
4791.15751465,0.00045660
4793.08632202,0.00032413
4795.01512939,0.00038913
4796.94393677,0.00045463
4798.87274414,0.00042755
4800.80155151,0.00042610
4802.73035889,0.00039253
4804.65916626,0.00042684
4806.58797363,0.00037607
4808.51678101,0.00039094
4810.44558838,0.00044169
4812.37439575,0.00038460
4814.30320312,0.00036820
4816.23201050,0.00042371
4818.16081787,0.00042271
4820.08962524,0.00039509
4822.01843262,0.00041393
4823.94723999,0.00036348
4825.87604736,0.00043684
4827.80485474,0.00046276
4829.73366211,0.00034287
4831.66246948,0.00039357
4833.59127686,0.00042958
4835.52008423,0.00039486
4837.44889160,0.00040017
4839.37769897,0.00040969
4841.30650635,0.00041193
4843.23531372,0.00043000
4845.16412109,0.00044021
4847.09292847,0.00047197
4849.02173584,0.00050283
4850.95054321,0.00045896
4852.87935059,0.00044451
4854.80815796,0.00045379
4856.73696533,0.00047393
4858.66577270,0.00043660
4860.59458008,0.00040784
4862.52338745,0.00039761
4864.45219482,0.00030024
4866.38100220,0.00034052
4868.30980957,0.00040989
4870.23861694,0.00032782
4872.16742432,0.00031007
4874.09623169,0.00046341
4876.02503906,0.00042174
4877.95384644,0.00032467
4879.88265381,0.00044973
4881.81146118,0.00037709
4883.74026855,0.00036853
4885.66907593,0.00041112
4887.59788330,0.00033037
4889.52669067,0.00037306
4891.45549805,0.00033959
4893.38430542,0.00040263
4895.31311279,0.00043736
4897.24192017,0.00032787
4899.17072754,0.00035765
4901.09953491,0.00038309
4903.02834228,0.00036826
4904.95714966,0.00036588
4906.88595703,0.00039240
4908.81476440,0.00040526
4910.74357178,0.00035232
4912.67237915,0.00031631
4914.60118652,0.00034785
4916.52999390,0.00033041
4918.45880127,0.00033729
4920.38760864,0.00039743
4922.31641602,0.00031761
4924.24522339,0.00037042
4926.17403076,0.00042686
4928.10283813,0.00030540
4930.03164551,0.00029354
4931.96045288,0.00030040
4933.88926025,0.00030160
4935.81806763,0.00029855
4937.74687500,0.00033197
4939.67568237,0.00035692
4941.60448975,0.00032875
4943.53329712,0.00037919
4945.46210449,0.00036957
4947.39091187,0.00035240
4949.31971924,0.00032748
4951.24852661,0.00033678
4953.17733398,0.00041192
4955.10614136,0.00033435
4957.03494873,0.00033042
4958.96375610,0.00041390
4960.89256348,0.00036185
4962.82137085,0.00031918
4964.75017822,0.00044140
4966.67898560,0.00049800
4968.60779297,0.00032257
4970.53660034,0.00031708
4972.46540771,0.00041013
4974.39421509,0.00034039
4976.32302246,0.00037316
4978.25182983,0.00040532
4980.18063721,0.00030487
4982.10944458,0.00031033
4984.03825195,0.00037418
4985.96705933,0.00035196
4987.89586670,0.00034482
4989.82467407,0.00031864
4991.75348145,0.00030700
4993.68228882,0.00038027
4995.61109619,0.00034838
4997.53990356,0.00030984
4999.46871094,0.00026313
5001.39751831,0.00026440
5003.32632568,0.00040684
5005.25513306,0.00037016
5007.18394043,0.00037183
5009.11274780,0.00037222
5011.04155518,0.00027518
5012.97036255,0.00034983
5014.89916992,0.00034082
5016.82797729,0.00028661
5018.75678467,0.00027780
5020.68559204,0.00029260
5022.61439941,0.00034734
5024.54320679,0.00033673
5026.47201416,0.00035245
5028.40082153,0.00037645
5030.32962891,0.00033286
5032.25843628,0.00029755
5034.18724365,0.00036289
5036.11605103,0.00036987
5038.04485840,0.00035555
5039.97366577,0.00037188
5041.90247314,0.00029408
5043.83128052,0.00029632
5045.76008789,0.00033682
5047.68889526,0.00032981
5049.61770264,0.00027423
5051.54651001,0.00031260
5053.47531738,0.00033304
5055.40412476,0.00027090
5057.33293213,0.00041104
5059.26173950,0.00035330
5061.19054687,0.00029494
5063.11935425,0.00037181
5065.04816162,0.00030826
5066.97696899,0.00036196
5068.90577637,0.00033651
5070.83458374,0.00030822
5072.76339111,0.00030060
5074.69219849,0.00030950
5076.62100586,0.00035766
5078.54981323,0.00030556
5080.47862061,0.00035313
5082.40742798,0.00030586
5084.33623535,0.00034098
5086.26504272,0.00037883
5088.19385010,0.00025536
5090.12265747,0.00028016
5092.05146484,0.00025594
5093.98027222,0.00033168
5095.90907959,0.00038321
5097.83788696,0.00028251
5099.76669434,0.00031236
5101.69550171,0.00033004
5103.62430908,0.00032245
5105.55311645,0.00031332
5107.48192383,0.00030233
5109.41073120,0.00034089
5111.33953857,0.00038602
5113.26834595,0.00030572
5115.19715332,0.00018054
5117.12596069,0.00023945
5119.05476807,0.00032470
5120.98357544,0.00029918
5122.91238281,0.00030710
5124.84119019,0.00035117
5126.76999756,0.00032178
5128.69880493,0.00031474
5130.62761230,0.00032168
5132.55641968,0.00029477
5134.48522705,0.00027736
5136.41403442,0.00027825
5138.34284180,0.00031979
5140.27164917,0.00025082
5142.20045654,0.00019648
5144.12926392,0.00029347
5146.05807129,0.00031306
5147.98687866,0.00025432
5149.91568603,0.00031554
5151.84449341,0.00038793
5153.77330078,0.00027148
5155.70210815,0.00020002
5157.63091553,0.00024491
5159.55972290,0.00029672
5161.48853027,0.00028145
5163.41733765,0.00024827
5165.34614502,0.00030973
5167.27495239,0.00029757
5169.20375977,0.00033640
5171.13256714,0.00033099
5173.06137451,0.00026945
5174.99018188,0.00031175
5176.91898926,0.00029777
5178.84779663,0.00034779
5180.77660400,0.00031206
5182.70541138,0.00031565
5184.63421875,0.00031536
5186.56302612,0.00018634
5188.49183350,0.00033917
5190.42064087,0.00033241
5192.34944824,0.00019772
5194.27825562,0.00025317
5196.20706299,0.00026470
5198.13587036,0.00027220
5200.06467773,0.00023634
5201.99348511,0.00027990
5203.92229248,0.00034246
5205.85109985,0.00029210
5207.77990723,0.00019958
5209.70871460,0.00021291
5211.63752197,0.00035380
5213.56632935,0.00029174
5215.49513672,0.00026820
5217.42394409,0.00033710
5219.35275146,0.00029193
5221.28155884,0.00029936
5223.21036621,0.00025514
5225.13917358,0.00022880
5227.06798096,0.00026035
5228.99678833,0.00030455
5230.92559570,0.00031681
5232.85440308,0.00021281
5234.78321045,0.00027324
5236.71201782,0.00029803
5238.64082520,0.00022151
5240.56963257,0.00030542
5242.49843994,0.00024648
5244.42724731,0.00020486
5246.35605469,0.00024369
5248.28486206,0.00020773
5250.21366943,0.00029317
5252.14247681,0.00023617
5254.07128418,0.00018502
5256.00009155,0.00027663
5257.92889893,0.00022933
5259.85770630,0.00029357
5261.78651367,0.00034100
5263.71532104,0.00023905
5265.64412842,0.00025652
5267.57293579,0.00027084
5269.50174316,0.00022128
5271.43055054,0.00027404
5273.35935791,0.00032931
5275.28816528,0.00023434
5277.21697266,0.00019917
5279.14578003,0.00025685
5281.07458740,0.00026863
5283.00339478,0.00028044
5284.93220215,0.00027898
5286.86100952,0.00031076
5288.78981689,0.00032193
5290.71862427,0.00024083
5292.64743164,0.00024470
5294.57623901,0.00030036
5296.50504639,0.00025381
5298.43385376,0.00025410
5300.36266113,0.00025383
5302.29146851,0.00019184
5304.22027588,0.00025498
5306.14908325,0.00027416
5308.07789062,0.00023470
5310.00669800,0.00026510
5311.93550537,0.00025470
5313.86431274,0.00021564
5315.79312012,0.00027117
5317.72192749,0.00030208
5319.65073486,0.00020076
5321.57954224,0.00030932
5323.50834961,0.00032631
5325.43715698,0.00016245
5327.36596436,0.00027679
5329.29477173,0.00024367
5331.22357910,0.00012548
5333.15238647,0.00020532
5335.08119385,0.00025476
5337.01000122,0.00023425
5338.93880859,0.00024033
5340.86761597,0.00026483
5342.79642334,0.00020003
5344.72523071,0.00023309
5346.65403809,0.00025050
5348.58284546,0.00026255
5350.51165283,0.00026705
5352.44046020,0.00015899
5354.36926758,0.00021063
5356.29807495,0.00017264
5358.22688232,0.00020183
5360.15568970,0.00027580
5362.08449707,0.00017838
5364.01330444,0.00024020
5365.94211182,0.00022556
5367.87091919,0.00018122
5369.79972656,0.00018381
5371.72853394,0.00018907
5373.65734131,0.00027380
5375.58614868,0.00026859
5377.51495605,0.00024642
5379.44376343,0.00022434
5381.37257080,0.00021220
5383.30137817,0.00022477
5385.23018555,0.00021660
5387.15899292,0.00020747
5389.08780029,0.00029193
5391.01660767,0.00032669
5392.94541504,0.00019602
5394.87422241,0.00021691
5396.80302978,0.00026289
5398.73183716,0.00025560
5400.66064453,0.00024227
5402.58945190,0.00017249
5404.51825928,0.00016820
5406.44706665,0.00018032
5408.37587402,0.00025119
5410.30468140,0.00025808
5412.23348877,0.00026812
5414.16229614,0.00028281
5416.09110352,0.00015783
5418.01991089,0.00021160
5419.94871826,0.00027240
5421.87752563,0.00021638
5423.80633301,0.00021021
5425.73514038,0.00017213
5427.66394775,0.00018665
5429.59275513,0.00024792
5431.52156250,0.00025206
5433.45036987,0.00021072
5435.37917725,0.00017956
5437.30798462,0.00023552
5439.23679199,0.00024535
5441.16559936,0.00016740
5443.09440674,0.00026519
5445.02321411,0.00028938
5446.95202148,0.00016365
5448.88082886,0.00021190
5450.80963623,0.00020911
5452.73844360,0.00021551
5454.66725098,0.00028250
5456.59605835,0.00027464
5458.52486572,0.00027755
5460.45367310,0.00022264
5462.38248047,0.00023108
5464.31128784,0.00023547
5466.24009521,0.00017300
5468.16890259,0.00020872
5470.09770996,0.00022425
5472.02651733,0.00022969
5473.95532471,0.00025280
5475.88413208,0.00018911
5477.81293945,0.00012526
5479.74174683,0.00017848
5481.67055420,0.00026456
5483.59936157,0.00026980
5485.52816895,0.00022756
5487.45697632,0.00018001
5489.38578369,0.00018601
5491.31459106,0.00019960
5493.24339844,0.00016296
5495.17220581,0.00022739
5497.10101318,0.00027185
5499.02982056,0.00021751
5500.95862793,0.00022009
5502.88743530,0.00019271
5504.81624268,0.00018029
5506.74505005,0.00020288
5508.67385742,0.00021690
5510.60266479,0.00021834
5512.53147217,0.00018057
5514.46027954,0.00017450
5516.38908691,0.00019223
5518.31789429,0.00027730
5520.24670166,0.00027794
5522.17550903,0.00024350
5524.10431641,0.00023596
5526.03312378,0.00016814
5527.96193115,0.00020454
5529.89073853,0.00015689
5531.81954590,0.00017689
5533.74835327,0.00023173
5535.67716064,0.00017184
5537.60596802,0.00022000
5539.53477539,0.00019471
5541.46358276,0.00019092
5543.39239014,0.00017535
5545.32119751,0.00017735
5547.25000488,0.00018793
5549.17881226,0.00017353
5551.10761963,0.00019731
5553.03642700,0.00005907
5554.96523437,0.00018449
5556.89404175,0.00030886
5558.82284912,0.00021431
5560.75165649,0.00013572
5562.68046387,0.00005787
5564.60927124,0.00022627
5566.53807861,0.00021260
5568.46688599,0.00018200
5570.39569336,0.00021840
5572.32450073,0.00011081
5574.25330811,0.00020647
5576.18211548,0.00022651
5578.11092285,0.00020612
5580.03973022,0.00021240
5581.96853760,0.00016305
5583.89734497,0.00018063
5585.82615234,0.00020251
5587.75495972,0.00017814
5589.68376709,0.00016673
5591.61257446,0.00018934
5593.54138184,0.00011836
5595.47018921,0.00013860
5597.39899658,0.00015024
5599.32780395,0.00012336
5601.25661133,0.00022213
5603.18541870,0.00024887
5605.11422607,0.00019592
5607.04303345,0.00013036
5608.97184082,0.00019847
5610.90064819,0.00021782
5612.82945557,0.00016285
5614.75826294,0.00015240
5616.68707031,0.00010898
5618.61587769,0.00017661
5620.54468506,0.00019432
5622.47349243,0.00021034
5624.40229980,0.00021734
5626.33110718,0.00018075
5628.25991455,0.00022601
5630.18872192,0.00018405
5632.11752930,0.00015388
5634.04633667,0.00016550
5635.97514404,0.00014200
5637.90395142,0.00012971
5639.83275879,0.00019160
5641.76156616,0.00020339
5643.69037353,0.00016212
5645.61918091,0.00018027
5647.54798828,0.00012813
5649.47679565,0.00016443
5651.40560303,0.00018348
5653.33441040,0.00014738
5655.26321777,0.00018564
5657.19202515,0.00018059
5659.12083252,0.00019255
5661.04963989,0.00012690
5662.97844727,0.00011131
5664.90725464,0.00014277
5666.83606201,0.00014138
5668.76486938,0.00016298
5670.69367676,0.00013744
5672.62248413,0.00017427
5674.55129150,0.00013934
5676.48009888,0.00013382
5678.40890625,0.00014643
5680.33771362,0.00009896
5682.26652100,0.00021311
5684.19532837,0.00022524
5686.12413574,0.00014619
5688.05294311,0.00013939
5689.98175049,0.00014683
5691.91055786,0.00015709
5693.83936523,0.00016357
5695.76817261,0.00017685
5697.69697998,0.00009708
5699.62578735,0.00017269
5701.55459473,0.00026740
5703.48340210,0.00010869
5705.41220947,0.00012907
5707.34101685,0.00015897
5709.26982422,0.00010346
5711.19863159,0.00015288
5713.12743896,0.00010285
5715.05624634,0.00013667
5716.98505371,0.00016807
5718.91386108,0.00015198
5720.84266846,0.00019988
5722.77147583,0.00015933
5724.70028320,0.00020088
5726.62909058,0.00018695
5728.55789795,0.00013351
5730.48670532,0.00017252
5732.41551270,0.00017302
5734.34432007,0.00020220
5736.27312744,0.00014158
5738.20193481,0.00014281
5740.13074219,0.00017727
5742.05954956,0.00011419
5743.98835693,0.00016765
5745.91716431,0.00015882
5747.84597168,0.00013208
5749.77477905,0.00011637
5751.70358643,0.00008760
5753.63239380,0.00022744
5755.56120117,0.00024800
5757.49000854,0.00011479
5759.41881592,0.00009252
5761.34762329,0.00016898
5763.27643066,0.00021556
5765.20523804,0.00015658
5767.13404541,0.00012923
5769.06285278,0.00012384
5770.99166016,0.00010865
5772.92046753,0.00014233
5774.84927490,0.00012178
5776.77808228,0.00012760
5778.70688965,0.00018318
5780.63569702,0.00019753
5782.56450439,0.00015985
5784.49331177,0.00013182
5786.42211914,0.00018159
5788.35092651,0.00012847
5790.27973389,0.00010917
5792.20854126,0.00013493
5794.13734863,0.00010126
5796.06615601,0.00014353
5797.99496338,0.00008787
5799.92377075,0.00011981
5801.85257812,0.00017848
5803.78138550,0.00008239
5805.71019287,0.00010924
5807.63900024,0.00014888
5809.56780762,0.00015423
5811.49661499,0.00018719
5813.42542236,0.00019858
5815.35422974,0.00015862
5817.28303711,0.00016996
5819.21184448,0.00019974
5821.14065186,0.00020599
5823.06945923,0.00021884
5824.99826660,0.00009676
5826.92707397,0.00012787
5828.85588135,0.00017783
5830.78468872,0.00008114
5832.71349609,0.00012180
5834.64230347,0.00015238
5836.57111084,0.00013029
5838.49991821,0.00011249
5840.42872559,0.00013859
5842.35753296,0.00012448
5844.28634033,0.00012945
5846.21514770,0.00014468
5848.14395508,0.00007524
5850.07276245,0.00014419
5852.00156982,0.00014038
5853.93037720,0.00011574
5855.85918457,0.00018139
5857.78799194,0.00017172
5859.71679932,0.00015987
5861.64560669,0.00011649
5863.57441406,0.00017036
5865.50322144,0.00020629
5867.43202881,0.00013791
5869.36083618,0.00017041
5871.28964355,0.00015212
5873.21845093,0.00010071
5875.14725830,0.00016155
5877.07606567,0.00013928
5879.00487305,0.00011364
5880.93368042,0.00013418
5882.86248779,0.00007515
5884.79129517,0.00016108
5886.72010254,0.00017130
5888.64890991,0.00013318
5890.57771728,0.00017806
5892.50652466,0.00008902
5894.43533203,0.00010371
5896.36413940,0.00009950
5898.29294678,0.00013749
5900.22175415,0.00015009
5902.15056152,0.00007674
5904.07936890,0.00017079
5906.00817627,0.00011525
5907.93698364,0.00010751
5909.86579102,0.00012682
5911.79459839,0.00010310
5913.72340576,0.00012806
5915.65221313,0.00006079
5917.58102051,0.00009531
5919.50982788,0.00009529
5921.43863525,0.00014263
5923.36744263,0.00016806
5925.29625000,0.00013036
5927.22505737,0.00014393
5929.15386475,0.00008981
5931.08267212,0.00013811
5933.01147949,0.00015296
5934.94028686,0.00019660
5936.86909424,0.00019890
5938.79790161,0.00013635
5940.72670898,0.00015809
5942.65551636,0.00010474
5944.58432373,0.00015714
5946.51313110,0.00014088
5948.44193848,0.00006372
5950.37074585,0.00008154
5952.29955322,0.00011487
5954.22836060,0.00012064
5956.15716797,0.00003586
5958.08597534,0.00010069
5960.01478271,0.00016893
5961.94359009,0.00018162
5963.87239746,0.00020647
5965.80120483,0.00015928
5967.73001221,0.00013664
5969.65881958,0.00014405
5971.58762695,0.00015297
5973.51643433,0.00008856
5975.44524170,0.00010774
5977.37404907,0.00010841
5979.30285645,0.00004497
5981.23166382,0.00011758
5983.16047119,0.00011316
5985.08927856,0.00008345
5987.01808594,0.00011199
5988.94689331,0.00014121
5990.87570068,0.00017883
5992.80450806,0.00015728
5994.73331543,0.00007791
5996.66212280,0.00007152
5998.59093018,0.00010891
6000.51973755,0.00011137
