399.26312622,0.00012605
401.19193359,0.00005001
403.12074097,0.00052057
405.04954834,0.00049853
406.97835571,0.00003998
408.90716309,0.00020080
410.83597046,0.00065498
412.76477783,0.00059385
414.69358521,0.00030610
416.62239258,0.00013099
418.55119995,0.00053996
420.48000732,0.00069065
422.40881470,0.00029369
424.33762207,0.00005157
426.26642944,0.00051169
428.19523682,0.00051881
430.12404419,0.00042011
432.05285156,0.00064242
433.98165894,0.00026339
435.91046631,0.00055308
437.83927368,0.00053526
439.76808105,0.00046369
441.69688843,0.00039673
443.62569580,0.00006654
445.55450317,0.00077504
447.48331055,0.00049359
449.41211792,0.00019147
451.34092529,0.00037852
453.26973267,-0.00000050
455.19854004,0.00051033
457.12734741,0.00053484
459.05615479,-0.00000959
460.98496216,0.00020465
462.91376953,0.00026589
464.84257690,0.00052376
466.77138428,0.00072929
468.70019165,0.00032322
470.62899902,0.00033325
472.55780640,0.00033697
474.48661377,0.00036197
476.41542114,0.00028327
478.34422852,0.00006332
480.27303589,0.00039687
482.20184326,0.00015494
484.13065063,-0.00008177
486.05945801,0.00007599
487.98826538,0.00018029
489.91707275,0.00014895
491.84588013,-0.00006157
493.77468750,0.00034215
495.70349487,0.00016796
497.63230225,-0.00019061
499.56110962,0.00003288
501.48991699,0.00012889
503.41872437,0.00028655
505.34753174,0.00034503
507.27633911,-0.00004730
509.20514648,0.00007059
511.13395386,0.00059646
513.06276123,0.00031565
514.99156860,0.00008918
516.92037598,-0.00002091
518.84918335,0.00009206
520.77799072,-0.00000737
522.70679810,-0.00012880
524.63560547,0.00040046
526.56441284,0.00010273
528.49322021,0.00001157
530.42202759,0.00022737
532.35083496,-0.00014273
534.27964233,0.00001849
536.20844971,0.00031759
538.13725708,0.00016603
540.06606445,0.00012019
541.99487183,0.00022385
543.92367920,-0.00000629
545.85248657,0.00019827
547.78129395,0.00042790
549.71010132,-0.00013626
551.63890869,-0.00006468
553.56771606,0.00007610
555.49652344,-0.00001101
557.42533081,0.00025559
559.35413818,0.00017865
561.28294556,-0.00000297
563.21175293,0.00010934
565.14056030,0.00036215
567.06936768,0.00052328
568.99817505,0.00051919
570.92698242,0.00028225
572.85578979,0.00024071
574.78459717,0.00028069
576.71340454,0.00021757
578.64221191,0.00012809
580.57101929,-0.00002186
582.49982666,-0.00007325
584.42863403,0.00006948
586.35744141,0.00023032
588.28624878,-0.00007163
590.21505615,0.00023195
592.14386353,0.00032164
594.07267090,0.00006624
596.00147827,0.00030091
597.93028564,-0.00014310
599.85909302,0.00006885
601.78790039,0.00025356
603.71670776,-0.00013120
605.64551514,0.00010716
607.57432251,0.00018177
609.50312988,-0.00008327
611.43193726,-0.00014872
613.36074463,0.00006653
615.28955200,0.00029000
617.21835938,0.00020593
619.14716675,0.00023556
621.07597412,0.00000038
623.00478149,-0.00003307
624.93358887,0.00025835
626.86239624,0.00013524
628.79120361,0.00033125
630.72001099,0.00037946
632.64881836,0.00044765
634.57762573,0.00057878
636.50643311,0.00063461
638.43524048,0.00063458
640.36404785,0.00048282
642.29285522,0.00062635
644.22166260,0.00049036
646.15046997,0.00058928
648.07927734,0.00064555
650.00808472,0.00070537
651.93689209,0.00095036
653.86569946,0.00063744
655.79450684,0.00078435
657.72331421,0.00090782
659.65212158,0.00072348
661.58092896,0.00067768
663.50973633,0.00076327
665.43854370,0.00101089
667.36735107,0.00081516
669.29615845,0.00078454
671.22496582,0.00110557
673.15377319,0.00120646
675.08258057,0.00114951
677.01138794,0.00113188
678.94019531,0.00104743
680.86900269,0.00100188
682.79781006,0.00117074
684.72661743,0.00120039
686.65542480,0.00128268
688.58423218,0.00115228
690.51303955,0.00086017
692.44184692,0.00095057
694.37065430,0.00129637
696.29946167,0.00158796
698.22826904,0.00155451
700.15707642,0.00177674
702.08588379,0.00176601
704.01469116,0.00162277
705.94349854,0.00195082
707.87230591,0.00160261
709.80111328,0.00109351
711.72992065,0.00073596
713.65872803,0.00030408
715.58753540,0.00036117
717.51634277,0.00028938
719.44515015,0.00003886
721.37395752,0.00015056
723.30276489,0.00022204
725.23157227,-0.00012126
727.16037964,-0.00011426
729.08918701,0.00038138
731.01799438,0.00036982
732.94680176,-0.00007561
734.87560913,-0.00022034
736.80441650,-0.00005836
738.73322388,0.00013904
740.66203125,0.00024287
742.59083862,0.00008507
744.51964600,0.00017205
746.44845337,0.00031337
748.37726074,0.00016716
750.30606812,0.00008840
752.23487549,-0.00017022
754.16368286,0.00013635
756.09249023,0.00032068
758.02129761,0.00026499
759.95010498,0.00037406
761.87891235,-0.00009190
763.80771973,0.00034510
765.73652710,0.00044715
767.66533447,0.00004734
769.59414185,0.00029721
771.52294922,-0.00017255
773.45175659,0.00010234
775.38056396,0.00036678
777.30937134,0.00017083
779.23817871,0.00029141
781.16698608,0.00002670
783.09579346,0.00007966
785.02460083,-0.00011874
786.95340820,0.00001004
788.88221558,0.00026023
790.81102295,-0.00001538
792.73983032,0.00008947
794.66863770,0.00030428
796.59744507,0.00044447
798.52625244,0.00019812
800.45505981,0.00018297
802.38386719,0.00017786
804.31267456,-0.00001731
806.24148193,0.00009522
808.17028931,0.00006412
810.09909668,0.00026052
812.02790405,0.00025186
813.95671143,0.00005491
815.88551880,-0.00008490
817.81432617,0.00006914
819.74313354,0.00041876
821.67194092,0.00011733
823.60074829,0.00003962
825.52955566,0.00010234
827.45836304,0.00022811
829.38717041,0.00036065
831.31597778,0.00028974
833.24478516,0.00044565
835.17359253,0.00022266
837.10239990,0.00026071
839.03120728,0.00046141
840.96001465,0.00055517
842.88882202,0.00069045
844.81762939,0.00039943
846.74643677,0.00048058
848.67524414,0.00066222
850.60405151,0.00052507
852.53285889,0.00029264
854.46166626,0.00027478
856.39047363,0.00040575
858.31928101,0.00036036
860.24808838,0.00027396
862.17689575,0.00004062
864.10570313,0.00031580
866.03451050,0.00035445
867.96331787,0.00015815
869.89212524,0.00031609
871.82093262,0.00010162
873.74973999,0.00016074
875.67854736,0.00013532
877.60735474,0.00020077
879.53616211,0.00038552
881.46496948,0.00018654
883.39377686,0.00042988
885.32258423,0.00040837
887.25139160,0.00019524
889.18019897,0.00030609
891.10900635,0.00044984
893.03781372,0.00054048
894.96662109,0.00022297
896.89542847,0.00021072
898.82423584,0.00046131
900.75304321,0.00049363
902.68185059,0.00021489
904.61065796,0.00001977
906.53946533,0.00023651
908.46827271,0.00015516
910.39708008,0.00010916
912.32588745,0.00013283
914.25469482,0.00022639
916.18350220,0.00029281
918.11230957,0.00054788
920.04111694,0.00072903
921.96992432,0.00042496
923.89873169,0.00065893
925.82753906,0.00069029
927.75634644,0.00065176
929.68515381,0.00067349
931.61396118,0.00059593
933.54276855,0.00070072
935.47157593,0.00052786
937.40038330,0.00082251
939.32919067,0.00080992
941.25799805,0.00084401
943.18680542,0.00107736
945.11561279,0.00076441
947.04442017,0.00088464
948.97322754,0.00094511
950.90203491,0.00073648
952.83084229,0.00061871
954.75964966,0.00091114
956.68845703,0.00075932
958.61726440,0.00043720
960.54607178,0.00071594
962.47487915,0.00048499
964.40368652,0.00072480
966.33249390,0.00081733
968.26130127,0.00055254
970.19010864,0.00080627
972.11891602,0.00065463
974.04772339,0.00076637
975.97653076,0.00093510
977.90533813,0.00092969
979.83414551,0.00124070
981.76295288,0.00125624
983.69176025,0.00111913
985.62056763,0.00142580
987.54937500,0.00175377
989.47818237,0.00173392
991.40698975,0.00179302
993.33579712,0.00212870
995.26460449,0.00251077
997.19341187,0.00255782
999.12221924,0.00273918
1001.05102661,0.00299125
1002.97983398,0.00308953
1004.90864136,0.00330477
1006.83744873,0.00335090
1008.76625610,0.00366587
1010.69506348,0.00402783
1012.62387085,0.00425042
1014.55267822,0.00458796
1016.48148560,0.00480599
1018.41029297,0.00490509
1020.33910034,0.00510084
1022.26790771,0.00542778
1024.19671509,0.00535526
1026.12552246,0.00552609
1028.05432983,0.00592216
1029.98313721,0.00599821
1031.91194458,0.00608372
1033.84075195,0.00612431
1035.76955933,0.00634151
1037.69836670,0.00648899
1039.62717407,0.00643454
1041.55598145,0.00626702
1043.48478882,0.00635408
1045.41359619,0.00635768
1047.34240356,0.00608115
1049.27121094,0.00620203
1051.20001831,0.00597569
1053.12882568,0.00592415
1055.05763306,0.00607521
1056.98644043,0.00579100
1058.91524780,0.00554241
1060.84405518,0.00533405
1062.77286255,0.00540506
1064.70166992,0.00530634
1066.63047729,0.00508464
1068.55928467,0.00480793
1070.48809204,0.00446583
1072.41689941,0.00435117
1074.34570679,0.00408473
1076.27451416,0.00388800
1078.20332153,0.00391827
1080.13212891,0.00381854
1082.06093628,0.00344379
1083.98974365,0.00340023
1085.91855103,0.00322970
1087.84735840,0.00297771
1089.77616577,0.00305224
1091.70497314,0.00274822
1093.63378052,0.00267936
1095.56258789,0.00242118
1097.49139526,0.00239880
1099.42020264,0.00275683
1101.34901001,0.00248989
1103.27781738,0.00251300
1105.20662476,0.00247510
1107.13543213,0.00242354
1109.06423950,0.00244746
1110.99304687,0.00232233
1112.92185425,0.00233410
1114.85066162,0.00229371
1116.77946899,0.00238577
1118.70827637,0.00220963
1120.63708374,0.00231575
1122.56589111,0.00243898
1124.49469849,0.00215862
1126.42350586,0.00239001
1128.35231323,0.00258884
1130.28112061,0.00258292
1132.20992798,0.00257953
1134.13873535,0.00257910
1136.06754272,0.00268615
1137.99635010,0.00289396
1139.92515747,0.00304696
1141.85396484,0.00316063
1143.78277222,0.00342946
1145.71157959,0.00353409
1147.64038696,0.00382151
1149.56919434,0.00405339
1151.49800171,0.00416345
1153.42680908,0.00452522
1155.35561646,0.00451937
1157.28442383,0.00467278
1159.21323120,0.00506713
1161.14203857,0.00517575
1163.07084595,0.00535998
1164.99965332,0.00555174
1166.92846069,0.00584316
1168.85726807,0.00622545
1170.78607544,0.00625936
1172.71488281,0.00643546
1174.64369019,0.00687461
1176.57249756,0.00690674
1178.50130493,0.00705509
1180.43011230,0.00758306
1182.35891968,0.00788927
1184.28772705,0.00805122
1186.21653442,0.00845232
1188.14534180,0.00892394
1190.07414917,0.00920846
1192.00295654,0.00973971
1193.93176392,0.01022896
1195.86057129,0.01062591
1197.78937866,0.01128014
1199.71818604,0.01154982
1201.64699341,0.01193830
1203.57580078,0.01268212
1205.50460815,0.01319312
1207.43341553,0.01349268
1209.36222290,0.01381838
1211.29103027,0.01457924
1213.21983765,0.01503767
1215.14864502,0.01529103
1217.07745239,0.01580419
1219.00625977,0.01589305
1220.93506714,0.01612350
1222.86387451,0.01639480
1224.79268188,0.01630703
1226.72148926,0.01646182
1228.65029663,0.01678277
1230.57910400,0.01691983
1232.50791138,0.01680819
1234.43671875,0.01681181
1236.36552612,0.01691337
1238.29433350,0.01698382
1240.22314087,0.01691909
1242.15194824,0.01670500
1244.08075562,0.01679171
1246.00956299,0.01675299
1247.93837036,0.01657674
1249.86717773,0.01667625
1251.79598511,0.01644847
1253.72479248,0.01604193
1255.65359985,0.01613545
1257.58240723,0.01613529
1259.51121460,0.01572348
1261.44002197,0.01540219
1263.36882935,0.01507584
1265.29763672,0.01484057
1267.22644409,0.01471043
1269.15525146,0.01459441
1271.08405884,0.01458776
1273.01286621,0.01436642
1274.94167358,0.01394435
1276.87048096,0.01364218
1278.79928833,0.01351639
1280.72809570,0.01332110
1282.65690308,0.01311327
1284.58571045,0.01274734
1286.51451782,0.01245374
1288.44332520,0.01252851
1290.37213257,0.01230417
1292.30093994,0.01217174
1294.22974731,0.01214931
1296.15855469,0.01207511
1298.08736206,0.01210792
1300.01616943,0.01195999
1301.94497681,0.01208710
1303.87378418,0.01225067
1305.80259155,0.01239832
1307.73139893,0.01261031
1309.66020630,0.01279044
1311.58901367,0.01301765
1313.51782104,0.01322134
1315.44662842,0.01374706
1317.37543579,0.01396669
1319.30424316,0.01410792
1321.23305054,0.01475528
1323.16185791,0.01536499
1325.09066528,0.01565176
1327.01947266,0.01599853
1328.94828003,0.01674499
1330.87708740,0.01691515
1332.80589478,0.01715787
1334.73470215,0.01784273
1336.66350952,0.01785914
1338.59231689,0.01762795
1340.52112427,0.01788396
1342.44993164,0.01871213
1344.37873901,0.01873257
1346.30754639,0.01861802
1348.23635376,0.01899293
1350.16516113,0.01862941
1352.09396851,0.01857454
1354.02277588,0.01850931
1355.95158325,0.01814650
1357.88039062,0.01808121
1359.80919800,0.01791329
1361.73800537,0.01728855
1363.66681274,0.01700547
1365.59562012,0.01789574
1367.52442749,0.01741493
1369.45323486,0.01698105
1371.38204224,0.01757379
1373.31084961,0.01667605
1375.23965698,0.01683350
1377.16846436,0.01743110
1379.09727173,0.01714753
1381.02607910,0.01724005
1382.95488647,0.01726976
1384.88369385,0.01719489
1386.81250122,0.01637068
1388.74130859,0.01669054
1390.67011597,0.01812910
1392.59892334,0.01744353
1394.52773071,0.01647381
1396.45653809,0.01733214
1398.38534546,0.01737725
1400.31415283,0.01741616
1402.24296021,0.01841373
1404.17176758,0.01762189
1406.10057495,0.01787537
1408.02938232,0.01832959
1409.95818970,0.01793926
1411.88699707,0.01829652
1413.81580444,0.01741122
1415.74461182,0.01780711
1417.67341919,0.01618774
1419.60222656,0.01453229
1421.53103394,0.01673729
1423.45984131,0.01614472
1425.38864868,0.01580071
1427.31745605,0.01614803
1429.24626343,0.01473825
1431.17507080,0.01424341
1433.10387817,0.01447669
1435.03268555,0.01327126
1436.96149292,0.01139408
1438.89030029,0.01293704
1440.81910767,0.01314775
1442.74791504,0.01232988
1444.67672241,0.01300337
1446.60552979,0.01184059
1448.53433716,0.01212751
1450.46314453,0.01244392
1452.39195190,0.01291220
1454.32075928,0.01344808
1456.24956665,0.01094174
1458.17837402,0.01162759
1460.10718140,0.01516941
1462.03598877,0.01609247
1463.96479614,0.01605342
1465.89360352,0.01672732
1467.82241089,0.01902453
1469.75121826,0.02032208
1471.68002563,0.01840324
1473.60883301,0.01939283
1475.53764038,0.02209000
1477.46644775,0.02354156
1479.39525513,0.02566339
1481.32406250,0.02632549
1483.25286987,0.02780967
1485.18167725,0.02873009
1487.11048462,0.02835422
1489.03929199,0.02813804
1490.96809937,0.02845700
1492.89690674,0.03289206
1494.82571411,0.03197448
1496.75452148,0.02907053
1498.68332886,0.03286905
1500.61213623,0.03369664
1502.54094360,0.03613468
1504.46975098,0.03406406
1506.39855835,0.02527964
1508.32736572,0.03066367
1510.25617310,0.03544968
1512.18498047,0.03472700
1514.11378784,0.03754528
1516.04259521,0.03385803
1517.97140259,0.03534909
1519.90020996,0.03420286
1521.82901733,0.03004461
1523.75782471,0.03641929
1525.68663208,0.03579038
1527.61543945,0.03575251
1529.54424683,0.03930837
1531.47305420,0.03784576
1533.40186157,0.03481448
1535.33066895,0.03677582
1537.25947632,0.03940078
1539.18828369,0.02876587
1541.11709106,0.03006225
1543.04589844,0.03582206
1544.97470581,0.03419056
1546.90351318,0.03997207
1548.83232056,0.03753009
1550.76112793,0.03890675
1552.68993530,0.03864401
1554.61874268,0.03513613
1556.54755005,0.03768694
1558.47635742,0.02708861
1560.40516479,0.02921316
1562.33397217,0.04083154
1564.26277954,0.03869319
1566.19158691,0.03988244
1568.12039429,0.03941128
1570.04920166,0.03523757
1571.97800903,0.04032028
1573.90681641,0.04065599
1575.83562378,0.03274133
1577.76443115,0.03696440
1579.69323853,0.04148116
1581.62204590,0.03941000
1583.55085327,0.04050530
1585.47966064,0.04027379
1587.40846802,0.04051466
1589.33727539,0.04023901
1591.26608276,0.04031473
1593.19489014,0.04028867
1595.12369751,0.03979338
1597.05250488,0.04045028
1598.98131226,0.04019077
1600.91011963,0.04031596
1602.83892700,0.03973441
1604.76773437,0.04049103
1606.69654175,0.03998220
1608.62534912,0.03999827
1610.55415649,0.03993074
1612.48296387,0.04008159
1614.41177124,0.04060629
1616.34057861,0.03349370
1618.26938599,0.03628051
1620.19819336,0.04208225
1622.12700073,0.03750472
1624.05580811,0.03771773
1625.98461548,0.03951035
1627.91342285,0.03936901
1629.84223022,0.03934100
1631.77103760,0.04174441
1633.69984497,0.03852307
1635.62865234,0.03224860
1637.55745972,0.03729657
1639.48626709,0.04091796
1641.41507446,0.03989757
1643.34388184,0.04090108
1645.27268921,0.03712270
1647.20149658,0.03303853
1649.13030396,0.04078615
1651.05911133,0.03834464
1652.98791870,0.02529140
1654.91672607,0.03406712
1656.84553345,0.04218365
1658.77434082,0.04052284
1660.70314819,0.04147054
1662.63195557,0.03789327
1664.56076294,0.04001329
1666.48957031,0.04270259
1668.41837769,0.03752770
1670.34718506,0.03671363
1672.27599243,0.04149575
1674.20479980,0.03815997
1676.13360718,0.03676143
1678.06241455,0.04228078
1679.99122192,0.04057973
1681.92002930,0.04025052
1683.84883667,0.03296679
1685.77764404,0.03277941
1687.70645142,0.04436874
1689.63525879,0.03853906
1691.56406616,0.04250681
1693.49287354,0.04307389
1695.42168091,0.03205409
1697.35048828,0.03943818
1699.27929565,0.03449239
1701.20810303,0.03149696
1703.13691040,0.04229790
1705.06571777,0.03870691
1706.99452515,0.03918079
1708.92333252,0.04238550
1710.85213989,0.04077350
1712.78094727,0.04153141
1714.70975464,0.03875001
1716.63856201,0.03496831
1718.56736938,0.03454595
1720.49617676,0.04063749
1722.42498413,0.04199891
1724.35379150,0.03936497
1726.28259888,0.04250202
1728.21140625,0.03936651
1730.14021362,0.03987050
1732.06902100,0.03862951
1733.99782837,0.03010272
1735.92663574,0.03705162
1737.85544312,0.04054122
1739.78425049,0.03653120
1741.71305786,0.03953537
1743.64186523,0.04002905
1745.57067261,0.04018443
1747.49947998,0.04042237
1749.42828735,0.03879862
1751.35709473,0.03719518
1753.28590210,0.04115587
1755.21470947,0.04293002
1757.14351685,0.03925081
1759.07232422,0.04308157
1761.00113159,0.04043717
1762.92993896,0.03928004
1764.85874634,0.04472027
1766.78755371,0.04033193
1768.71636108,0.04093686
1770.64516846,0.04065384
1772.57397583,0.03676464
1774.50278320,0.04089910
1776.43159058,0.04316512
1778.36039795,0.04256203
1780.28920532,0.04192379
1782.21801270,0.04232091
1784.14682007,0.04224525
1786.07562744,0.04153381
1788.00443481,0.04368585
1789.93324219,0.04261594
1791.86204956,0.03864055
1793.79085693,0.04031320
1795.71966431,0.04335977
1797.64847168,0.04255599
1799.57727905,0.04190629
1801.50608643,0.04132867
1803.43489380,0.04267824
1805.36370117,0.04369144
1807.29250854,0.04300783
1809.22131592,0.04335973
1811.15012329,0.04229892
1813.07893066,0.04351779
1815.00773804,0.04388320
1816.93654541,0.04336061
1818.86535278,0.04362217
1820.79416016,0.04333397
1822.72296753,0.04405431
1824.65177490,0.04138666
1826.58058228,0.04277249
1828.50938965,0.04288820
1830.43819702,0.04042299
1832.36700439,0.04392378
1834.29581177,0.04361243
1836.22461914,0.04357795
1838.15342651,0.04341869
1840.08223389,0.04372907
1842.01104126,0.04385450
1843.93984863,0.03903181
1845.86865601,0.04155223
1847.79746338,0.04387571
1849.72627075,0.04305799
1851.65507812,0.04415086
1853.58388550,0.04327620
1855.51269287,0.04394396
1857.44150024,0.04364629
1859.37030762,0.04334635
1861.29911499,0.04365199
1863.22792236,0.04303735
1865.15672974,0.04353706
1867.08553711,0.04230287
1869.01434448,0.04075542
1870.94315186,0.04234983
1872.87195923,0.04385093
1874.80076660,0.04317449
1876.72957397,0.04337046
1878.65838135,0.04320890
1880.58718872,0.04302078
1882.51599609,0.04340521
1884.44480347,0.04269824
1886.37361084,0.04339126
1888.30241821,0.04259639
1890.23122559,0.04169441
1892.16003296,0.04323947
1894.08884033,0.04277746
1896.01764771,0.04258104
1897.94645508,0.04312403
1899.87526245,0.04285119
1901.80406982,0.04294417
1903.73287720,0.04271000
1905.66168457,0.04288947
1907.59049194,0.04260429
1909.51929932,0.04223470
1911.44810669,0.04254381
1913.37691406,0.04275930
1915.30572144,0.04312464
1917.23452881,0.04125699
1919.16333618,0.04126197
1921.09214355,0.04292008
1923.02095093,0.04151694
1924.94975830,0.04228809
1926.87856567,0.04296310
1928.80737305,0.04250358
1930.73618042,0.04283144
1932.66498779,0.04226333
1934.59379517,0.04272844
1936.52260254,0.04237852
1938.45140991,0.04265619
1940.38021729,0.04254996
1942.30902466,0.04128605
1944.23783203,0.04236750
1946.16663940,0.04262643
1948.09544678,0.04245925
1950.02425415,0.04265240
1951.95306152,0.04268953
1953.88186890,0.04275599
1955.81067627,0.04243794
1957.73948364,0.04266144
1959.66829102,0.04256876
1961.59709839,0.04255005
1963.52590576,0.04251106
1965.45471313,0.04222496
1967.38352051,0.04214755
1969.31232788,0.04240036
1971.24113525,0.04263446
1973.16994263,0.04252259
1975.09875000,0.04256073
1977.02755737,0.04236618
1978.95636475,0.04264499
1980.88517212,0.04248046
1982.81397949,0.04235156
1984.74278687,0.04260125
1986.67159424,0.04204623
1988.60040161,0.04225295
1990.52920898,0.04192650
1992.45801636,0.04158893
1994.38682373,0.04219957
1996.31563110,0.04222745
1998.24443848,0.04211577
2000.17324585,0.04208183
2002.10205322,0.04217082
2004.03086060,0.04195856
2005.95966797,0.04176851
2007.88847534,0.04189002
2009.81728271,0.04187908
2011.74609009,0.04170588
2013.67489746,0.04169010
2015.60370483,0.04163702
2017.53251221,0.04126406
2019.46131958,0.04147393
2021.39012695,0.04149566
2023.31893433,0.04141266
2025.24774170,0.04152552
2027.17654907,0.04129360
2029.10535645,0.04132523
2031.03416382,0.04122914
2032.96297119,0.04111899
2034.89177856,0.04105093
2036.82058594,0.04100677
2038.74939331,0.04095289
2040.67820068,0.04074220
2042.60700806,0.04074752
2044.53581543,0.04069024
2046.46462280,0.04070843
2048.39343018,0.04062092
2050.32223755,0.04050066
2052.25104492,0.04060539
2054.17985229,0.04051122
2056.10865967,0.04041544
2058.03746704,0.04040305
2059.96627441,0.04028585
2061.89508179,0.04034556
2063.82388916,0.04020710
2065.75269653,0.03989041
2067.68150391,0.04020564
2069.61031128,0.04008747
2071.53911865,0.03981321
2073.46792603,0.04008020
2075.39673340,0.04002362
2077.32554077,0.03994603
2079.25434814,0.03978933
2081.18315552,0.03973358
2083.11196289,0.03969681
2085.04077026,0.03963479
2086.96957764,0.03969078
2088.89838501,0.03955429
2090.82719238,0.03954763
2092.75599976,0.03946240
2094.68480713,0.03946932
2096.61361450,0.03944205
2098.54242187,0.03939566
2100.47122925,0.03933989
2102.40003662,0.03913802
2104.32884399,0.03922977
2106.25765137,0.03922424
2108.18645874,0.03923498
2110.11526611,0.03915462
2112.04407349,0.03912632
2113.97288086,0.03904270
2115.90168823,0.03889315
2117.83049561,0.03901365
2119.75930298,0.03880610
2121.68811035,0.03901526
2123.61691772,0.03901436
2125.54572510,0.03873578
2127.47453247,0.03896637
2129.40333984,0.03882645
2131.33214722,0.03876056
2133.26095459,0.03880611
2135.18976196,0.03882685
2137.11856934,0.03874062
2139.04737671,0.03858393
2140.97618408,0.03870014
2142.90499146,0.03858309
2144.83379883,0.03848369
2146.76260620,0.03857214
2148.69141357,0.03855981
2150.62022095,0.03849747
2152.54902832,0.03855043
2154.47783569,0.03850194
2156.40664307,0.03837999
2158.33545044,0.03840536
2160.26425781,0.03837127
2162.19306519,0.03840248
2164.12187256,0.03839623
2166.05067993,0.03836895
2167.97948730,0.03833205
2169.90829468,0.03827227
2171.83710205,0.03831835
2173.76590942,0.03827052
2175.69471680,0.03824098
2177.62352417,0.03823216
2179.55233154,0.03823571
2181.48113892,0.03826671
2183.40994629,0.03819593
2185.33875366,0.03811590
2187.26756104,0.03818037
2189.19636841,0.03820117
2191.12517578,0.03807972
2193.05398315,0.03809088
2194.98279053,0.03810667
2196.91159790,0.03804172
2198.84040527,0.03788666
2200.76921265,0.03781591
2202.69802002,0.03791768
2204.62682739,0.03780837
2206.55563477,0.03780045
2208.48444214,0.03793503
2210.41324951,0.03774716
2212.34205688,0.03772547
2214.27086426,0.03791413
2216.19967163,0.03779965
2218.12847900,0.03773240
2220.05728638,0.03766637
2221.98609375,0.03760735
2223.91490112,0.03767461
2225.84370850,0.03769927
2227.77251587,0.03772936
2229.70132324,0.03751095
2231.63013062,0.03748654
2233.55893799,0.03746917
2235.48774536,0.03734157
2237.41655273,0.03743587
2239.34536011,0.03731756
2241.27416748,0.03731601
2243.20297485,0.03730721
2245.13178223,0.03730919
2247.06058960,0.03720870
2248.98939697,0.03709671
2250.91820435,0.03725345
2252.84701172,0.03710305
2254.77581909,0.03716963
2256.70462646,0.03714203
2258.63343384,0.03696676
2260.56224121,0.03694735
2262.49104858,0.03689751
2264.41985596,0.03699298
2266.34866333,0.03685948
2268.27747070,0.03683632
2270.20627808,0.03680841
2272.13508545,0.03687108
2274.06389282,0.03684204
2275.99270020,0.03664323
2277.92150757,0.03684358
2279.85031494,0.03674170
2281.77912231,0.03673588
2283.70792969,0.03678001
2285.63673706,0.03670921
2287.56554443,0.03666057
2289.49435181,0.03646004
2291.42315918,0.03650133
2293.35196655,0.03636082
2295.28077393,0.03637069
2297.20958130,0.03637994
2299.13838867,0.03613439
2301.06719604,0.03604077
2302.99600342,0.03591843
2304.92481079,0.03577691
2306.85361816,0.03553485
2308.78242554,0.03535942
2310.71123291,0.03502235
2312.64004028,0.03473150
2314.56884766,0.03451397
2316.49765503,0.03404874
2318.42646240,0.03362494
2320.35526978,0.03313412
2322.28407715,0.03277339
2324.21288452,0.03236578
2326.14169189,0.03197565
2328.07049927,0.03163414
2329.99930664,0.03125617
2331.92811401,0.03113192
2333.85692139,0.03092311
2335.78572876,0.03077789
2337.71453613,0.03083548
2339.64334351,0.03085830
2341.57215088,0.03086498
2343.50095825,0.03140182
2345.42976562,0.03212843
2347.35857300,0.03323038
2349.28738037,0.03441471
2351.21618774,0.03326724
2353.14499512,0.03151810
2355.07380249,0.03043560
2357.00260986,0.02934176
2358.93141724,0.02916647
2360.86022461,0.02876560
2362.78903198,0.02853997
2364.71783936,0.02892012
2366.64664673,0.02920987
2368.57545410,0.02992585
2370.50426147,0.03065801
2372.43306885,0.03144063
2374.36187622,0.03233877
2376.29068359,0.03319224
2378.21949097,0.03386008
2380.14829834,0.03440666
2382.07710571,0.03498451
2384.00591309,0.03515890
2385.93472046,0.03524870
2387.86352783,0.03526360
2389.79233521,0.03528108
2391.72114258,0.03539243
2393.64994995,0.03523071
2395.57875732,0.03520615
2397.50756470,0.03522672
2399.43637207,0.03514337
2401.36517944,0.03514190
2403.29398682,0.03509136
2405.22279419,0.03502493
2407.15160156,0.03502004
2409.08040894,0.03513308
2411.00921631,0.03513179
2412.93802368,0.03495574
2414.86683105,0.03494642
2416.79563843,0.03498633
2418.72444580,0.03491670
2420.65325317,0.03495413
2422.58206055,0.03493668
2424.51086792,0.03477602
2426.43967529,0.03480069
2428.36848267,0.03477282
2430.29729004,0.03461248
2432.22609741,0.03462771
2434.15490479,0.03467874
2436.08371216,0.03470404
2438.01251953,0.03468629
2439.94132690,0.03464715
2441.87013428,0.03463832
2443.79894165,0.03457719
2445.72774902,0.03454949
2447.65655640,0.03459156
2449.58536377,0.03465711
2451.51417114,0.03454975
2453.44297852,0.03436771
2455.37178589,0.03439979
2457.30059326,0.03438202
2459.22940063,0.03427723
2461.15820801,0.03426275
2463.08701538,0.03424197
2465.01582275,0.03423332
2466.94463013,0.03423742
2468.87343750,0.03423380
2470.80224487,0.03425248
2472.73105225,0.03413430
2474.65985962,0.03408476
2476.58866699,0.03415641
2478.51747437,0.03400249
2480.44628174,0.03402006
2482.37508911,0.03411100
2484.30389648,0.03400622
2486.23270386,0.03398224
2488.16151123,0.03395960
2490.09031860,0.03401379
2492.01912598,0.03394976
2493.94793335,0.03392056
2495.87674072,0.03395972
2497.80554810,0.03383617
2499.73435547,0.03385980
2501.66316284,0.03369424
2503.59197021,0.03363752
2505.52077759,0.03375177
2507.44958496,0.03363359
2509.37839233,0.03371373
2511.30719971,0.03376772
2513.23600708,0.03362774
2515.16481445,0.03354989
2517.09362183,0.03365750
2519.02242920,0.03358028
2520.95123657,0.03338537
2522.88004395,0.03352703
2524.80885132,0.03357716
2526.73765869,0.03355886
2528.66646606,0.03347763
2530.59527344,0.03337223
2532.52408081,0.03336920
2534.45288818,0.03330551
2536.38169556,0.03329486
2538.31050293,0.03324871
2540.23931030,0.03331541
2542.16811768,0.03330313
2544.09692505,0.03325086
2546.02573242,0.03322266
2547.95453979,0.03305996
2549.88334717,0.03311789
2551.81215454,0.03307686
2553.74096191,0.03310376
2555.66976929,0.03308383
2557.59857666,0.03289014
2559.52738403,0.03298994
2561.45619141,0.03293384
2563.38499878,0.03285550
2565.31380615,0.03286883
2567.24261353,0.03298859
2569.17142090,0.03297208
2571.10022827,0.03270804
2573.02903564,0.03281432
2574.95784302,0.03279886
2576.88665039,0.03272099
2578.81545776,0.03272480
2580.74426514,0.03263193
2582.67307251,0.03266865
2584.60187988,0.03265528
2586.53068726,0.03268467
2588.45949463,0.03261229
2590.38830200,0.03258750
2592.31710937,0.03254918
2594.24591675,0.03240030
2596.17472412,0.03248985
2598.10353149,0.03239977
2600.03233887,0.03232787
2601.96114624,0.03236864
2603.88995361,0.03230577
2605.81876099,0.03230035
2607.74756836,0.03226545
2609.67637573,0.03235950
2611.60518311,0.03237427
2613.53399048,0.03219821
2615.46279785,0.03219439
2617.39160522,0.03220633
2619.32041260,0.03207096
2621.24921997,0.03204607
2623.17802734,0.03206437
2625.10683472,0.03202777
2627.03564209,0.03207620
2628.96444946,0.03206592
2630.89325684,0.03200272
2632.82206421,0.03199446
2634.75087158,0.03199197
2636.67967895,0.03185734
2638.60848633,0.03182550
2640.53729370,0.03190558
2642.46610107,0.03169703
2644.39490845,0.03167704
2646.32371582,0.03179661
2648.25252319,0.03171446
2650.18133057,0.03165807
2652.11013794,0.03159550
2654.03894531,0.03165112
2655.96775269,0.03166024
2657.89656006,0.03154317
2659.82536743,0.03154071
2661.75417480,0.03152823
2663.68298218,0.03142630
2665.61178955,0.03142404
2667.54059692,0.03140672
2669.46940430,0.03127250
2671.39821167,0.03133382
2673.32701904,0.03134146
2675.25582642,0.03123299
2677.18463379,0.03126074
2679.11344116,0.03124502
2681.04224854,0.03120169
2682.97105591,0.03115684
2684.89986328,0.03109404
2686.82867065,0.03107012
2688.75747803,0.03108262
2690.68628540,0.03103479
2692.61509277,0.03102539
2694.54390015,0.03102803
2696.47270752,0.03087429
2698.40151489,0.03079714
2700.33032227,0.03079932
2702.25912964,0.03085492
2704.18793701,0.03092540
2706.11674438,0.03084134
2708.04555176,0.03071842
2709.97435913,0.03065614
2711.90316650,0.03063998
2713.83197388,0.03068616
2715.76078125,0.03067414
2717.68958862,0.03054710
2719.61839600,0.03052751
2721.54720337,0.03042987
2723.47601074,0.03039519
2725.40481812,0.03050714
2727.33362549,0.03042668
2729.26243286,0.03045458
2731.19124023,0.03044919
2733.12004761,0.03033045
2735.04885498,0.03028170
2736.97766235,0.03030448
2738.90646973,0.03026313
2740.83527710,0.03010967
2742.76408447,0.03020174
2744.69289185,0.03018087
2746.62169922,0.03013442
2748.55050659,0.03012942
2750.47931396,0.03003802
2752.40812134,0.03012807
2754.33692871,0.02996957
2756.26573608,0.02988423
2758.19454346,0.02999456
2760.12335083,0.02991655
2762.05215820,0.02984404
2763.98096558,0.02983266
2765.90977295,0.02986006
2767.83858032,0.02982422
2769.76738770,0.02972733
2771.69619507,0.02960991
2773.62500244,0.02958192
2775.55380981,0.02954463
2777.48261719,0.02951621
2779.41142456,0.02951238
2781.34023193,0.02941759
2783.26903931,0.02945678
2785.19784668,0.02943173
2787.12665405,0.02934853
2789.05546143,0.02930243
2790.98426880,0.02933684
2792.91307617,0.02936662
2794.84188354,0.02922022
2796.77069092,0.02916812
2798.69949829,0.02904238
2800.62830566,0.02896056
2802.55711304,0.02904534
2804.48592041,0.02905557
2806.41472778,0.02896047
2808.34353516,0.02897612
2810.27234253,0.02902885
2812.20114990,0.02883416
2814.12995728,0.02881844
2816.05876465,0.02878103
2817.98757202,0.02872889
2819.91637939,0.02872422
2821.84518677,0.02859981
2823.77399414,0.02869939
2825.70280151,0.02857094
2827.63160889,0.02848528
2829.56041626,0.02853041
2831.48922363,0.02836318
2833.41803101,0.02833738
2835.34683838,0.02836846
2837.27564575,0.02834319
2839.20445312,0.02820942
2841.13326050,0.02818453
2843.06206787,0.02816603
2844.99087524,0.02796005
2846.91968262,0.02773622
2848.84848999,0.02770607
2850.77729736,0.02775265
2852.70610474,0.02756532
2854.63491211,0.02754498
2856.56371948,0.02751509
2858.49252686,0.02753405
2860.42133423,0.02757977
2862.35014160,0.02735896
2864.27894897,0.02745221
2866.20775635,0.02748746
2868.13656372,0.02737365
2870.06537109,0.02735280
2871.99417847,0.02727490
2873.92298584,0.02728373
2875.85179321,0.02725566
2877.78060059,0.02717505
2879.70940796,0.02715402
2881.63821533,0.02720695
2883.56702270,0.02718019
2885.49583008,0.02718135
2887.42463745,0.02717008
2889.35344482,0.02709251
2891.28225220,0.02705121
2893.21105957,0.02691073
2895.13986694,0.02690613
2897.06867432,0.02688016
2898.99748169,0.02683156
2900.92628906,0.02684353
2902.85509644,0.02663716
2904.78390381,0.02648883
2906.71271118,0.02651015
2908.64151855,0.02648813
2910.57032593,0.02640815
2912.49913330,0.02630438
2914.42794067,0.02611049
2916.35674805,0.02610976
2918.28555542,0.02609941
2920.21436279,0.02592757
2922.14317017,0.02598222
2924.07197754,0.02599445
2926.00078491,0.02599714
2927.92959229,0.02591017
2929.85839966,0.02587233
2931.78720703,0.02596685
2933.71601440,0.02589500
2935.64482178,0.02596871
2937.57362915,0.02588214
2939.50243652,0.02579258
2941.43124390,0.02585448
2943.36005127,0.02580505
2945.28885864,0.02590201
2947.21766602,0.02592898
2949.14647339,0.02582564
2951.07528076,0.02575788
2953.00408813,0.02567293
2954.93289551,0.02552389
2956.86170288,0.02560298
2958.79051025,0.02561422
2960.71931763,0.02537081
2962.64812500,0.02537937
2964.57693237,0.02533221
2966.50573975,0.02536590
2968.43454712,0.02540177
2970.36335449,0.02530612
2972.29216187,0.02542996
2974.22096924,0.02542866
2976.14977661,0.02542744
2978.07858398,0.02545300
2980.00739136,0.02544899
2981.93619873,0.02552899
2983.86500610,0.02554301
2985.79381348,0.02553066
2987.72262085,0.02546277
2989.65142822,0.02533665
2991.58023560,0.02531627
2993.50904297,0.02535077
2995.43785034,0.02528512
2997.36665771,0.02537480
2999.29546509,0.02533916
3001.22427246,0.02524848
3003.15307983,0.02528677
3005.08188721,0.02504269
3007.01069458,0.02508711
3008.93950195,0.02510790
3010.86830933,0.02498990
3012.79711670,0.02501590
3014.72592407,0.02483272
3016.65473145,0.02493610
3018.58353882,0.02496058
3020.51234619,0.02487927
3022.44115356,0.02486857
3024.36996094,0.02469742
3026.29876831,0.02475863
3028.22757568,0.02469194
3030.15638306,0.02454329
3032.08519043,0.02454681
3034.01399780,0.02455804
3035.94280518,0.02449786
3037.87161255,0.02436750
3039.80041992,0.02439318
3041.72922729,0.02436924
3043.65803467,0.02432393
3045.58684204,0.02428173
3047.51564941,0.02423888
3049.44445679,0.02429695
3051.37326416,0.02425133
3053.30207153,0.02418448
3055.23087891,0.02413322
3057.15968628,0.02404872
3059.08849365,0.02399312
3061.01730103,0.02395282
3062.94610840,0.02387916
3064.87491577,0.02391165
3066.80372314,0.02399326
3068.73253052,0.02386592
3070.66133789,0.02379987
3072.59014526,0.02384972
3074.51895264,0.02380137
3076.44776001,0.02371909
3078.37656738,0.02368668
3080.30537476,0.02364128
3082.23418213,0.02357698
3084.16298950,0.02363302
3086.09179687,0.02354410
3088.02060425,0.02340486
3089.94941162,0.02355216
3091.87821899,0.02350354
3093.80702637,0.02331612
3095.73583374,0.02339133
3097.66464111,0.02334139
3099.59344849,0.02317555
3101.52225586,0.02315759
3103.45106323,0.02319787
3105.37987061,0.02325974
3107.30867798,0.02317456
3109.23748535,0.02296349
3111.16629272,0.02291450
3113.09510010,0.02302388
3115.02390747,0.02295220
3116.95271484,0.02284142
3118.88152222,0.02291678
3120.81032959,0.02275977
3122.73913696,0.02264144
3124.66794434,0.02272865
3126.59675171,0.02262164
3128.52555908,0.02253393
3130.45436645,0.02253204
3132.38317383,0.02251821
3134.31198120,0.02247987
3136.24078857,0.02242108
3138.16959595,0.02235650
3140.09840332,0.02227453
3142.02721069,0.02222159
3143.95601807,0.02215221
3145.88482544,0.02209582
3147.81363281,0.02205416
3149.74244019,0.02208006
3151.67124756,0.02206463
3153.60005493,0.02198028
3155.52886230,0.02194912
3157.45766968,0.02184060
3159.38647705,0.02184983
3161.31528442,0.02182461
3163.24409180,0.02166695
3165.17289917,0.02172377
3167.10170654,0.02170807
3169.03051392,0.02157216
3170.95932129,0.02151244
3172.88812866,0.02146535
3174.81693604,0.02144762
3176.74574341,0.02136512
3178.67455078,0.02125254
3180.60335815,0.02126669
3182.53216553,0.02130291
3184.46097290,0.02116556
3186.38978027,0.02104689
3188.31858765,0.02111164
3190.24739502,0.02110560
3192.17620239,0.02100484
3194.10500977,0.02087877
3196.03381714,0.02086582
3197.96262451,0.02090352
3199.89143188,0.02072761
3201.82023926,0.02071125
3203.74904663,0.02070542
3205.67785400,0.02062929
3207.60666138,0.02073315
3209.53546875,0.02064582
3211.46427612,0.02063777
3213.39308350,0.02054098
3215.32189087,0.02037646
3217.25069824,0.02054797
3219.17950562,0.02047293
3221.10831299,0.02039617
3223.03712036,0.02036134
3224.96592773,0.02031876
3226.89473511,0.02045350
3228.82354248,0.02029211
3230.75234985,0.02024429
3232.68115723,0.02031912
3234.60996460,0.02024481
3236.53877197,0.02025393
3238.46757935,0.02016038
3240.39638672,0.02012403
3242.32519409,0.02008092
3244.25400146,0.01997820
3246.18280884,0.02006659
3248.11161621,0.02006622
3250.04042358,0.02001274
3251.96923096,0.02003757
3253.89803833,0.02001913
3255.82684570,0.01994536
3257.75565308,0.01994477
3259.68446045,0.02005821
3261.61326782,0.01993963
3263.54207520,0.01988259
3265.47088257,0.01991076
3267.39968994,0.01982185
3269.32849731,0.01994923
3271.25730469,0.01983707
3273.18611206,0.01980588
3275.11491943,0.01991663
3277.04372681,0.01969898
3278.97253418,0.01977353
3280.90134155,0.01978388
3282.83014893,0.01966091
3284.75895630,0.01975919
3286.68776367,0.01968938
3288.61657104,0.01957114
3290.54537842,0.01963031
3292.47418579,0.01963877
3294.40299316,0.01956562
3296.33180054,0.01961429
3298.26060791,0.01953389
3300.18941528,0.01954217
3302.11822266,0.01961958
3304.04703003,0.01949119
3305.97583740,0.01947367
3307.90464478,0.01943715
3309.83345215,0.01947834
3311.76225952,0.01952802
3313.69106689,0.01944350
3315.61987427,0.01938469
3317.54868164,0.01940176
3319.47748901,0.01938597
3321.40629639,0.01926561
3323.33510376,0.01930740
3325.26391113,0.01920963
3327.19271851,0.01917961
3329.12152588,0.01929247
3331.05033325,0.01924376
3332.97914062,0.01919691
3334.90794800,0.01905440
3336.83675537,0.01908620
3338.76556274,0.01905685
3340.69437012,0.01901109
3342.62317749,0.01904075
3344.55198486,0.01892579
3346.48079224,0.01899114
3348.40959961,0.01897162
3350.33840698,0.01894825
3352.26721436,0.01891477
3354.19602173,0.01886767
3356.12482910,0.01890914
3358.05363647,0.01877325
3359.98244385,0.01868109
3361.91125122,0.01868773
3363.84005859,0.01871786
3365.76886597,0.01861518
3367.69767334,0.01860159
3369.62648071,0.01871384
3371.55528809,0.01864779
3373.48409546,0.01864200
3375.41290283,0.01862872
3377.34171020,0.01853961
3379.27051758,0.01846093
3381.19932495,0.01845374
3383.12813232,0.01848092
3385.05693970,0.01841660
3386.98574707,0.01841306
3388.91455444,0.01842905
3390.84336182,0.01825445
3392.77216919,0.01819067
3394.70097656,0.01825893
3396.62978394,0.01819173
3398.55859131,0.01820672
3400.48739868,0.01816511
3402.41620605,0.01814602
3404.34501343,0.01806199
3406.27382080,0.01798972
3408.20262817,0.01811372
3410.13143555,0.01803812
3412.06024292,0.01809811
3413.98905029,0.01790992
3415.91785767,0.01782906
3417.84666504,0.01801697
3419.77547241,0.01774878
3421.70427979,0.01776020
3423.63308716,0.01780820
3425.56189453,0.01783272
3427.49070190,0.01786508
3429.41950928,0.01780154
3431.34831665,0.01783762
3433.27712402,0.01768208
3435.20593140,0.01765731
3437.13473877,0.01762867
3439.06354614,0.01763006
3440.99235352,0.01747943
3442.92116089,0.01743455
3444.84996826,0.01758045
3446.77877563,0.01724833
3448.70758301,0.01734759
3450.63639038,0.01755912
3452.56519775,0.01738114
3454.49400513,0.01732307
3456.42281250,0.01729365
3458.35161987,0.01740772
3460.28042725,0.01741743
3462.20923462,0.01719777
3464.13804199,0.01723280
3466.06684937,0.01727200
3467.99565674,0.01711178
3469.92446411,0.01728905
3471.85327148,0.01727483
3473.78207886,0.01717370
3475.71088623,0.01718471
3477.63969360,0.01706664
3479.56850098,0.01723056
3481.49730835,0.01703817
3483.42611572,0.01702602
3485.35492310,0.01720399
3487.28373047,0.01699762
3489.21253784,0.01699993
3491.14134521,0.01700660
3493.07015259,0.01705509
3494.99895996,0.01697338
3496.92776733,0.01698170
3498.85657471,0.01703331
3500.78538208,0.01690139
3502.71418945,0.01682826
3504.64299683,0.01683338
3506.57180420,0.01707061
3508.50061157,0.01685491
3510.42941895,0.01676434
3512.35822632,0.01704012
3514.28703369,0.01703201
3516.21584106,0.01699132
3518.14464844,0.01691666
3520.07345581,0.01705419
3522.00226318,0.01689907
3523.93107056,0.01663831
3525.85987793,0.01670520
3527.78868530,0.01662618
3529.71749268,0.01669923
3531.64630005,0.01688210
3533.57510742,0.01694927
3535.50391479,0.01687977
3537.43272217,0.01683187
3539.36152954,0.01696602
3541.29033691,0.01691434
3543.21914429,0.01672239
3545.14795166,0.01643875
3547.07675903,0.01621696
3549.00556641,0.01675124
3550.93437378,0.01684682
3552.86318115,0.01638049
3554.79198853,0.01682009
3556.72079590,0.01696956
3558.64960327,0.01672751
3560.57841064,0.01657838
3562.50721802,0.01660819
3564.43602539,0.01669766
3566.36483276,0.01557023
3568.29364014,0.01523848
3570.22244751,0.01646948
3572.15125488,0.01686502
3574.08006226,0.01669534
3576.00886963,0.01676956
3577.93767700,0.01666037
3579.86648437,0.01665431
3581.79529175,0.01667815
3583.72409912,0.01670169
3585.65290649,0.01634204
3587.58171387,0.01505687
3589.51052124,0.01546019
3591.43932861,0.01679241
3593.36813599,0.01643175
3595.29694336,0.01605131
3597.22575073,0.01633783
3599.15455811,0.01649657
3601.08336548,0.01628816
3603.01217285,0.01647518
3604.94098022,0.01666984
3606.86978760,0.01615458
3608.79859497,0.01533490
3610.72740234,0.01562958
3612.65620972,0.01599928
3614.58501709,0.01547557
3616.51382446,0.01651775
3618.44263184,0.01542830
3620.37143921,0.01486513
3622.30024658,0.01660825
3624.22905395,0.01625491
3626.15786133,0.01697142
3628.08666870,0.01448220
3630.01547607,0.01326123
3631.94428345,0.01644972
3633.87309082,0.01604082
3635.80189819,0.01633379
3637.73070557,0.01669278
3639.65951294,0.01638446
3641.58832031,0.01649866
3643.51712769,0.01634641
3645.44593506,0.01650245
3647.37474243,0.01492024
3649.30354980,0.01376186
3651.23235718,0.01391875
3653.16116455,0.01637982
3655.08997192,0.01615579
3657.01877930,0.01457833
3658.94758667,0.01666971
3660.87639404,0.01632646
3662.80520142,0.01657211
3664.73400879,0.01645276
3666.66281616,0.01637197
3668.59162354,0.01601867
3670.52043091,0.01310731
3672.44923828,0.01568595
3674.37804565,0.01495754
3676.30685303,0.01252275
3678.23566040,0.01563233
3680.16446777,0.01595837
3682.09327515,0.01598923
3684.02208252,0.01631454
3685.95088989,0.01603093
3687.87969727,0.01451373
3689.80850464,0.01336906
3691.73731201,0.01534635
3693.66611938,0.01573141
3695.59492676,0.01602885
3697.52373413,0.01607607
3699.45254150,0.01591578
3701.38134888,0.01553589
3703.31015625,0.01493200
3705.23896362,0.01636972
3707.16777100,0.01562190
3709.09657837,0.01529697
3711.02538574,0.01445648
3712.95419312,0.01354316
3714.88300049,0.01570574
3716.81180786,0.01545517
3718.74061523,0.01568016
3720.66942261,0.01531162
3722.59822998,0.01481014
3724.52703735,0.01542198
3726.45584473,0.01430580
3728.38465210,0.01551451
3730.31345947,0.01526774
3732.24226685,0.01408965
3734.17107422,0.01382946
3736.09988159,0.01310270
3738.02868896,0.01382797
3739.95749634,0.01484930
3741.88630371,0.01567497
3743.81511108,0.01232138
3745.74391846,0.01152601
3747.67272583,0.01496385
3749.60153320,0.01294846
3751.53034058,0.01192207
3753.45914795,0.01357396
3755.38795532,0.01452846
3757.31676270,0.01514098
3759.24557007,0.01404838
3761.17437744,0.01453592
3763.10318481,0.01547264
3765.03199219,0.01448267
3766.96079956,0.01461705
3768.88960693,0.01452361
3770.81841431,0.01401547
3772.74722168,0.01501802
3774.67602905,0.01498212
3776.60483643,0.01501749
3778.53364380,0.01468079
3780.46245117,0.01409717
3782.39125854,0.01504510
3784.32006592,0.01472723
3786.24887329,0.01462237
3788.17768066,0.01496315
3790.10648804,0.01480004
3792.03529541,0.01472927
3793.96410278,0.01499322
3795.89291016,0.01414170
3797.82171753,0.01398609
3799.75052490,0.01468557
3801.67933228,0.01167163
3803.60813965,0.01358592
3805.53694702,0.01482706
3807.46575439,0.01208508
3809.39456177,0.01462528
3811.32336914,0.01439388
3813.25217651,0.01477405
3815.18098389,0.01346843
3817.10979126,0.01178876
3819.03859863,0.01479699
3820.96740601,0.01205570
3822.89621338,0.01260773
3824.82502075,0.01473213
3826.75382812,0.01330493
3828.68263550,0.01422115
3830.61144287,0.01376771
3832.54025024,0.01343691
3834.46905762,0.01361886
3836.39786499,0.01295919
3838.32667236,0.01174912
3840.25547974,0.01263467
3842.18428711,0.01362813
3844.11309448,0.01292968
3846.04190186,0.01402232
3847.97070923,0.01391821
3849.89951660,0.01397674
3851.82832397,0.01265058
3853.75713135,0.00956155
3855.68593872,0.01115936
3857.61474609,0.01386572
3859.54355347,0.01357657
3861.47236084,0.01341369
3863.40116821,0.01320819
3865.32997559,0.01233400
3867.25878296,0.01367551
3869.18759033,0.01250004
3871.11639770,0.01154792
3873.04520508,0.01366770
3874.97401245,0.01255265
3876.90281982,0.01357481
3878.83162720,0.01385823
3880.76043457,0.01190260
3882.68924194,0.01358361
3884.61804932,0.01269590
3886.54685669,0.01171747
3888.47566406,0.01361942
3890.40447144,0.01295690
3892.33327881,0.01215739
3894.26208618,0.01325082
3896.19089355,0.01345100
3898.11970093,0.01287296
3900.04850830,0.01224605
3901.97731567,0.01201174
3903.90612305,0.01199609
3905.83493042,0.01212626
3907.76373779,0.01319373
3909.69254517,0.01323836
3911.62135254,0.01304894
3913.55015991,0.01330444
3915.47896728,0.01281706
3917.40777466,0.01250018
3919.33658203,0.01235596
3921.26538940,0.01284051
3923.19419678,0.01286716
3925.12300415,0.01253051
3927.05181152,0.01292566
3928.98061890,0.01303762
3930.90942627,0.01263892
3932.83823364,0.01224981
3934.76704102,0.01266028
3936.69584839,0.01282051
3938.62465576,0.01282052
3940.55346313,0.01287508
3942.48227051,0.01238164
3944.41107788,0.01253702
3946.33988525,0.01273854
3948.26869263,0.01240933
3950.19750000,0.01242974
3952.12630737,0.01266410
3954.05511475,0.01253507
3955.98392212,0.01251631
3957.91272949,0.01259916
3959.84153687,0.01253370
3961.77034424,0.01251012
3963.69915161,0.01241854
3965.62795898,0.01246375
3967.55676636,0.01238793
3969.48557373,0.01242689
3971.41438110,0.01240544
3973.34318848,0.01232157
3975.27199585,0.01232651
3977.20080322,0.01220707
3979.12961060,0.01236906
3981.05841797,0.01225560
3982.98722534,0.01228772
3984.91603271,0.01230544
3986.84484009,0.01216844
3988.77364746,0.01226257
3990.70245483,0.01201038
3992.63126221,0.01202143
3994.56006958,0.01209386
3996.48887695,0.01210270
3998.41768433,0.01215244
4000.34649170,0.01207617
4002.27529907,0.01200627
4004.20410645,0.01199222
4006.13291382,0.01199940
4008.06172119,0.01181418
4009.99052856,0.01190680
4011.91933594,0.01193211
4013.84814331,0.01191417
4015.77695068,0.01189677
4017.70575806,0.01178757
4019.63456543,0.01176451
4021.56337280,0.01171603
4023.49218018,0.01193610
4025.42098755,0.01175637
4027.34979492,0.01171016
4029.27860229,0.01175776
4031.20740967,0.01162608
4033.13621704,0.01176913
4035.06502441,0.01158154
4036.99383179,0.01164329
4038.92263916,0.01166357
4040.85144653,0.01155331
4042.78025391,0.01153247
4044.70906128,0.01148294
4046.63786865,0.01154918
4048.56667603,0.01144626
4050.49548340,0.01148547
4052.42429077,0.01137597
4054.35309814,0.01135710
4056.28190552,0.01142021
4058.21071289,0.01136485
4060.13952026,0.01133602
4062.06832764,0.01128563
4063.99713501,0.01137999
4065.92594238,0.01126512
4067.85474976,0.01127469
4069.78355713,0.01120499
4071.71236450,0.01123689
4073.64117187,0.01132198
4075.56997925,0.01110159
4077.49878662,0.01116500
4079.42759399,0.01108089
4081.35640137,0.01106763
4083.28520874,0.01109333
4085.21401611,0.01104089
4087.14282349,0.01099632
4089.07163086,0.01097501
4091.00043823,0.01104188
4092.92924561,0.01089608
4094.85805298,0.01097907
4096.78686035,0.01087555
4098.71566772,0.01086020
4100.64447510,0.01099300
4102.57328247,0.01084886
4104.50208984,0.01084089
4106.43089722,0.01074950
4108.35970459,0.01079694
4110.28851196,0.01081264
4112.21731934,0.01079343
4114.14612671,0.01073931
4116.07493408,0.01068050
4118.00374145,0.01071773
4119.93254883,0.01067247
4121.86135620,0.01075202
4123.79016357,0.01059273
4125.71897095,0.01061222
4127.64777832,0.01065016
4129.57658569,0.01051972
4131.50539307,0.01052335
4133.43420044,0.01037088
4135.36300781,0.01040789
4137.29181519,0.01048116
4139.22062256,0.01047116
4141.14942993,0.01035918
4143.07823730,0.01038137
4145.00704468,0.01039501
4146.93585205,0.01024548
4148.86465942,0.01030938
4150.79346680,0.01022402
4152.72227417,0.01024182
4154.65108154,0.01027114
4156.57988892,0.01022399
4158.50869629,0.01018319
4160.43750366,0.01014570
4162.36631103,0.01019765
4164.29511841,0.01011956
4166.22392578,0.01019339
4168.15273315,0.01010481
4170.08154053,0.01007071
4172.01034790,0.01014032
4173.93915527,0.01006907
4175.86796265,0.01011646
4177.79677002,0.01000345
4179.72557739,0.00995247
4181.65438477,0.00995421
4183.58319214,0.01000033
4185.51199951,0.00996770
4187.44080688,0.00984236
4189.36961426,0.00983938
4191.29842163,0.00981298
4193.22722900,0.00987775
4195.15603638,0.00986641
4197.08484375,0.00987024
4199.01365112,0.00975252
4200.94245850,0.00967669
4202.87126587,0.00978192
4204.80007324,0.00969993
4206.72888062,0.00969968
4208.65768799,0.00966987
4210.58649536,0.00964954
4212.51530273,0.00968544
4214.44411011,0.00967849
4216.37291748,0.00961200
4218.30172485,0.00951842
4220.23053223,0.00955162
4222.15933960,0.00950948
4224.08814697,0.00946849
4226.01695435,0.00947591
4227.94576172,0.00946769
4229.87456909,0.00942383
4231.80337646,0.00947275
4233.73218384,0.00945262
4235.66099121,0.00936571
4237.58979858,0.00944914
4239.51860596,0.00929228
4241.44741333,0.00923335
4243.37622070,0.00930047
4245.30502808,0.00927503
4247.23383545,0.00932522
4249.16264282,0.00929490
4251.09145020,0.00932724
4253.02025757,0.00921950
4254.94906494,0.00907945
4256.87787231,0.00914416
4258.80667969,0.00917723
4260.73548706,0.00917954
4262.66429443,0.00916347
4264.59310181,0.00905608
4266.52190918,0.00900775
4268.45071655,0.00908533
4270.37952393,0.00910569
4272.30833130,0.00914214
4274.23713867,0.00903356
4276.16594604,0.00893951
4278.09475342,0.00900404
4280.02356079,0.00893071
4281.95236816,0.00891562
4283.88117554,0.00891554
4285.80998291,0.00883185
4287.73879028,0.00878495
4289.66759766,0.00884185
4291.59640503,0.00886377
4293.52521240,0.00881057
4295.45401978,0.00877838
4297.38282715,0.00874466
4299.31163452,0.00869618
4301.24044189,0.00867146
4303.16924927,0.00879771
4305.09805664,0.00866584
4307.02686401,0.00861478
4308.95567139,0.00870198
4310.88447876,0.00853835
4312.81328613,0.00864224
4314.74209351,0.00858707
4316.67090088,0.00852860
4318.59970825,0.00859674
4320.52851562,0.00851420
4322.45732300,0.00857572
4324.38613037,0.00849012
4326.31493774,0.00845751
4328.24374512,0.00846350
4330.17255249,0.00844099
4332.10135986,0.00844461
4334.03016724,0.00838078
4335.95897461,0.00843091
4337.88778198,0.00837178
4339.81658936,0.00830396
4341.74539673,0.00833408
4343.67420410,0.00829006
4345.60301147,0.00827697
4347.53181885,0.00836466
4349.46062622,0.00825900
4351.38943359,0.00814294
4353.31824097,0.00825490
4355.24704834,0.00824886
4357.17585571,0.00820770
4359.10466309,0.00811017
4361.03347046,0.00812936
4362.96227783,0.00818678
4364.89108520,0.00802213
4366.81989258,0.00801685
4368.74869995,0.00806491
4370.67750732,0.00806107
4372.60631470,0.00804209
4374.53512207,0.00803295
4376.46392944,0.00798371
4378.39273682,0.00790888
4380.32154419,0.00794817
4382.25035156,0.00794373
4384.17915894,0.00792302
4386.10796631,0.00788282
4388.03677368,0.00789907
4389.96558105,0.00794571
4391.89438843,0.00785865
4393.82319580,0.00777305
4395.75200317,0.00779224
4397.68081055,0.00778860
4399.60961792,0.00773889
4401.53842529,0.00777979
4403.46723267,0.00777176
4405.39604004,0.00777336
4407.32484741,0.00776007
4409.25365478,0.00769210
4411.18246216,0.00766628
4413.11126953,0.00765256
4415.04007690,0.00771694
4416.96888428,0.00768706
4418.89769165,0.00765000
4420.82649902,0.00766264
4422.75530640,0.00768591
4424.68411377,0.00765681
4426.61292114,0.00758228
4428.54172852,0.00760084
4430.47053589,0.00749397
4432.39934326,0.00752973
4434.32815063,0.00758387
4436.25695801,0.00744126
4438.18576538,0.00739696
4440.11457275,0.00741564
4442.04338013,0.00744020
4443.97218750,0.00739164
4445.90099487,0.00743297
4447.82980225,0.00739269
4449.75860962,0.00729221
4451.68741699,0.00734079
4453.61622437,0.00727803
4455.54503174,0.00725023
4457.47383911,0.00727313
4459.40264648,0.00725060
4461.33145386,0.00724090
4463.26026123,0.00723125
4465.18906860,0.00717625
4467.11787598,0.00718530
4469.04668335,0.00721504
4470.97549072,0.00716529
4472.90429810,0.00721697
4474.83310547,0.00716079
4476.76191284,0.00708698
4478.69072021,0.00711619
4480.61952759,0.00706168
4482.54833496,0.00705280
4484.47714233,0.00710709
4486.40594971,0.00705534
4488.33475708,0.00700443
4490.26356445,0.00709498
4492.19237183,0.00697103
4494.12117920,0.00691082
4496.04998657,0.00698733
4497.97879395,0.00683061
4499.90760132,0.00688564
4501.83640869,0.00698387
4503.76521606,0.00686183
4505.69402344,0.00684683
4507.62283081,0.00683901
4509.55163818,0.00671428
4511.48044556,0.00678063
4513.40925293,0.00683692
4515.33806030,0.00673849
4517.26686768,0.00677939
4519.19567505,0.00675579
4521.12448242,0.00675054
4523.05328979,0.00674317
4524.98209717,0.00670673
4526.91090454,0.00666633
4528.83971191,0.00660627
4530.76851929,0.00667548
4532.69732666,0.00664552
4534.62613403,0.00672737
4536.55494141,0.00668661
4538.48374878,0.00657150
4540.41255615,0.00658974
4542.34136353,0.00647976
4544.27017090,0.00657891
4546.19897827,0.00651714
4548.12778564,0.00645729
4550.05659302,0.00653445
4551.98540039,0.00647084
4553.91420776,0.00651236
4555.84301514,0.00645819
4557.77182251,0.00647040
4559.70062988,0.00643830
4561.62943726,0.00638982
4563.55824463,0.00641576
4565.48705200,0.00634012
4567.41585937,0.00635519
4569.34466675,0.00630988
4571.27347412,0.00633889
4573.20228149,0.00636726
4575.13108887,0.00628876
4577.05989624,0.00626676
4578.98870361,0.00623203
4580.91751099,0.00623485
4582.84631836,0.00624285
4584.77512573,0.00629285
4586.70393311,0.00625440
4588.63274048,0.00619679
4590.56154785,0.00625273
4592.49035522,0.00619297
4594.41916260,0.00609791
4596.34796997,0.00609697
4598.27677734,0.00612520
4600.20558472,0.00608827
4602.13439209,0.00607137
4604.06319946,0.00610759
4605.99200684,0.00608575
4607.92081421,0.00607452
4609.84962158,0.00602733
4611.77842895,0.00594246
4613.70723633,0.00599396
4615.63604370,0.00603146
4617.56485107,0.00599297
4619.49365845,0.00600821
4621.42246582,0.00598765
4623.35127319,0.00599189
4625.28008057,0.00597880
4627.20888794,0.00591786
4629.13769531,0.00589579
4631.06650269,0.00586368
4632.99531006,0.00587657
4634.92411743,0.00582256
4636.85292480,0.00581457
4638.78173218,0.00590757
4640.71053955,0.00586847
4642.63934692,0.00584552
4644.56815430,0.00581751
4646.49696167,0.00573551
4648.42576904,0.00576346
4650.35457642,0.00578899
4652.28338379,0.00574971
4654.21219116,0.00572084
4656.14099853,0.00574637
4658.06980591,0.00578309
4659.99861328,0.00565197
4661.92742065,0.00562567
4663.85622803,0.00571063
4665.78503540,0.00561498
4667.71384277,0.00562196
4669.64265015,0.00559974
4671.57145752,0.00557989
4673.50026489,0.00563624
4675.42907227,0.00557592
4677.35787964,0.00559456
4679.28668701,0.00558017
4681.21549438,0.00558887
4683.14430176,0.00554603
4685.07310913,0.00549441
4687.00191650,0.00553377
4688.93072388,0.00544862
4690.85953125,0.00548390
4692.78833862,0.00546546
4694.71714600,0.00543083
4696.64595337,0.00544284
4698.57476074,0.00539671
4700.50356812,0.00541536
4702.43237549,0.00529765
4704.36118286,0.00534111
4706.28999023,0.00537845
4708.21879761,0.00530640
4710.14760498,0.00540768
4712.07641235,0.00533094
4714.00521973,0.00527148
4715.93402710,0.00532550
4717.86283447,0.00533140
4719.79164185,0.00530125
4721.72044922,0.00525246
4723.64925659,0.00531403
4725.57806396,0.00526296
4727.50687134,0.00521034
4729.43567871,0.00523041
4731.36448608,0.00512272
4733.29329346,0.00517853
4735.22210083,0.00524762
4737.15090820,0.00521947
4739.07971558,0.00524541
4741.00852295,0.00511081
4742.93733032,0.00509185
4744.86613770,0.00516066
4746.79494507,0.00507061
4748.72375244,0.00505403
4750.65255981,0.00505351
4752.58136719,0.00505395
4754.51017456,0.00505831
4756.43898193,0.00505720
4758.36778931,0.00504215
4760.29659668,0.00499251
4762.22540405,0.00497287
4764.15421143,0.00496642
4766.08301880,0.00499982
4768.01182617,0.00495985
4769.94063354,0.00498895
4771.86944092,0.00496901
4773.79824829,0.00484379
4775.72705566,0.00494975
4777.65586304,0.00494042
4779.58467041,0.00489886
4781.51347778,0.00487991
4783.44228516,0.00476586
4785.37109253,0.00485932
4787.29989990,0.00488883
4789.22870728,0.00486542
4791.15751465,0.00486241
4793.08632202,0.00477983
4795.01512939,0.00479737
4796.94393677,0.00477682
4798.87274414,0.00472411
4800.80155151,0.00477175
4802.73035889,0.00480020
4804.65916626,0.00474808
4806.58797363,0.00468005
4808.51678101,0.00464494
4810.44558838,0.00470047
4812.37439575,0.00478195
4814.30320312,0.00470416
4816.23201050,0.00461938
4818.16081787,0.00468132
4820.08962524,0.00470945
4822.01843262,0.00463748
4823.94723999,0.00464027
4825.87604736,0.00466832
4827.80485474,0.00456313
4829.73366211,0.00452912
4831.66246948,0.00453407
4833.59127686,0.00449640
4835.52008423,0.00456116
4837.44889160,0.00454483
4839.37769897,0.00449227
4841.30650635,0.00455996
4843.23531372,0.00461314
4845.16412109,0.00456694
4847.09292847,0.00449572
4849.02173584,0.00448506
4850.95054321,0.00444635
4852.87935059,0.00445644
4854.80815796,0.00444694
4856.73696533,0.00439282
4858.66577270,0.00445315
4860.59458008,0.00440035
4862.52338745,0.00436468
4864.45219482,0.00444080
4866.38100220,0.00438227
4868.30980957,0.00432959
4870.23861694,0.00435687
4872.16742432,0.00431342
4874.09623169,0.00428458
4876.02503906,0.00433834
4877.95384644,0.00429654
4879.88265381,0.00426978
4881.81146118,0.00426620
4883.74026855,0.00422096
4885.66907593,0.00424782
4887.59788330,0.00425853
4889.52669067,0.00423242
4891.45549805,0.00418302
4893.38430542,0.00424412
4895.31311279,0.00427237
4897.24192017,0.00420004
4899.17072754,0.00420626
4901.09953491,0.00416819
4903.02834228,0.00417762
4904.95714966,0.00419155
4906.88595703,0.00419024
4908.81476440,0.00415074
4910.74357178,0.00415003
4912.67237915,0.00418382
4914.60118652,0.00406265
4916.52999390,0.00411804
4918.45880127,0.00410101
4920.38760864,0.00404720
4922.31641602,0.00407379
4924.24522339,0.00398472
4926.17403076,0.00405888
4928.10283813,0.00403325
4930.03164551,0.00402358
4931.96045288,0.00403965
4933.88926025,0.00398595
4935.81806763,0.00398314
4937.74687500,0.00390650
4939.67568237,0.00399554
4941.60448975,0.00396875
4943.53329712,0.00389037
4945.46210449,0.00389366
4947.39091187,0.00389448
4949.31971924,0.00402770
4951.24852661,0.00393171
4953.17733398,0.00387317
4955.10614136,0.00390785
4957.03494873,0.00379392
4958.96375610,0.00376879
4960.89256348,0.00379390
4962.82137085,0.00383093
4964.75017822,0.00382485
4966.67898560,0.00377488
4968.60779297,0.00376258
4970.53660034,0.00381199
4972.46540771,0.00385283
4974.39421509,0.00381277
4976.32302246,0.00374294
4978.25182983,0.00369996
4980.18063721,0.00371982
4982.10944458,0.00372564
4984.03825195,0.00374113
4985.96705933,0.00372709
4987.89586670,0.00366826
4989.82467407,0.00367474
4991.75348145,0.00363653
4993.68228882,0.00363172
4995.61109619,0.00373549
4997.53990356,0.00369700
4999.46871094,0.00361972
5001.39751831,0.00365987
5003.32632568,0.00364436
5005.25513306,0.00365608
5007.18394043,0.00364610
5009.11274780,0.00354393
5011.04155518,0.00353872
5012.97036255,0.00356670
5014.89916992,0.00360429
5016.82797729,0.00363086
5018.75678467,0.00358646
5020.68559204,0.00356634
5022.61439941,0.00358512
5024.54320679,0.00353056
5026.47201416,0.00350064
5028.40082153,0.00352420
5030.32962891,0.00344555
5032.25843628,0.00347636
5034.18724365,0.00351249
5036.11605103,0.00346037
5038.04485840,0.00348985
5039.97366577,0.00345816
5041.90247314,0.00345473
5043.83128052,0.00343794
5045.76008789,0.00341788
5047.68889526,0.00352142
5049.61770264,0.00349494
5051.54651001,0.00336528
5053.47531738,0.00333705
5055.40412476,0.00334343
5057.33293213,0.00336050
5059.26173950,0.00337743
5061.19054687,0.00331991
5063.11935425,0.00332080
5065.04816162,0.00331391
5066.97696899,0.00328364
5068.90577637,0.00328169
5070.83458374,0.00323049
5072.76339111,0.00331643
5074.69219849,0.00333006
5076.62100586,0.00327719
5078.54981323,0.00332156
5080.47862061,0.00322336
5082.40742798,0.00316621
5084.33623535,0.00323554
5086.26504272,0.00326580
5088.19385010,0.00323006
5090.12265747,0.00322891
5092.05146484,0.00321858
5093.98027222,0.00315798
5095.90907959,0.00319049
5097.83788696,0.00318553
5099.76669434,0.00314759
5101.69550171,0.00315993
5103.62430908,0.00316191
5105.55311645,0.00314190
5107.48192383,0.00313320
5109.41073120,0.00313489
5111.33953857,0.00310409
5113.26834595,0.00312306
5115.19715332,0.00313454
5117.12596069,0.00309955
5119.05476807,0.00308798
5120.98357544,0.00311885
5122.91238281,0.00310566
5124.84119019,0.00304526
5126.76999756,0.00307496
5128.69880493,0.00308243
5130.62761230,0.00306825
5132.55641968,0.00307597
5134.48522705,0.00308826
5136.41403442,0.00307558
5138.34284180,0.00303439
5140.27164917,0.00302359
5142.20045654,0.00297255
5144.12926392,0.00301299
5146.05807129,0.00299229
5147.98687866,0.00291617
5149.91568603,0.00296571
5151.84449341,0.00295343
5153.77330078,0.00296340
5155.70210815,0.00290532
5157.63091553,0.00288656
5159.55972290,0.00292325
5161.48853027,0.00287980
5163.41733765,0.00295054
5165.34614502,0.00294036
5167.27495239,0.00293629
5169.20375977,0.00292807
5171.13256714,0.00286296
5173.06137451,0.00285501
5174.99018188,0.00282077
5176.91898926,0.00287410
5178.84779663,0.00279121
5180.77660400,0.00284058
5182.70541138,0.00295440
5184.63421875,0.00275594
5186.56302612,0.00285147
5188.49183350,0.00288859
5190.42064087,0.00272543
5192.34944824,0.00281800
5194.27825562,0.00282012
5196.20706299,0.00276057
5198.13587036,0.00276430
5200.06467773,0.00276548
5201.99348511,0.00277853
5203.92229248,0.00279641
5205.85109985,0.00273078
5207.77990723,0.00263802
5209.70871460,0.00269584
5211.63752197,0.00273444
5213.56632935,0.00271576
5215.49513672,0.00265042
5217.42394409,0.00269637
5219.35275146,0.00278790
5221.28155884,0.00269512
5223.21036621,0.00271093
5225.13917358,0.00261300
5227.06798096,0.00255227
5228.99678833,0.00270648
5230.92559570,0.00263297
5232.85440308,0.00258636
5234.78321045,0.00254653
5236.71201782,0.00253860
5238.64082520,0.00263250
5240.56963257,0.00261752
5242.49843994,0.00266481
5244.42724731,0.00261566
5246.35605469,0.00257950
5248.28486206,0.00261099
5250.21366943,0.00252978
5252.14247681,0.00256143
5254.07128418,0.00256934
5256.00009155,0.00251297
5257.92889893,0.00247635
5259.85770630,0.00248532
5261.78651367,0.00257208
5263.71532104,0.00248327
5265.64412842,0.00239234
5267.57293579,0.00243487
5269.50174316,0.00242415
5271.43055054,0.00248122
5273.35935791,0.00251621
5275.28816528,0.00248468
5277.21697266,0.00252885
5279.14578003,0.00248999
5281.07458740,0.00244479
5283.00339478,0.00244395
5284.93220215,0.00241252
5286.86100952,0.00248118
5288.78981689,0.00243248
5290.71862427,0.00234269
5292.64743164,0.00243202
5294.57623901,0.00241812
5296.50504639,0.00241767
5298.43385376,0.00248694
5300.36266113,0.00245695
5302.29146851,0.00243263
5304.22027588,0.00238460
5306.14908325,0.00234090
5308.07789062,0.00236827
5310.00669800,0.00242702
5311.93550537,0.00243351
5313.86431274,0.00235631
5315.79312012,0.00231388
5317.72192749,0.00232969
5319.65073486,0.00231904
5321.57954224,0.00227054
5323.50834961,0.00233001
5325.43715698,0.00237236
5327.36596436,0.00227329
5329.29477173,0.00226163
5331.22357910,0.00230262
5333.15238647,0.00227796
5335.08119385,0.00226969
5337.01000122,0.00230185
5338.93880859,0.00224400
5340.86761597,0.00224744
5342.79642334,0.00229008
5344.72523071,0.00216777
5346.65403809,0.00221522
5348.58284546,0.00225105
5350.51165283,0.00220515
5352.44046020,0.00222078
5354.36926758,0.00215766
5356.29807495,0.00225727
5358.22688232,0.00222522
5360.15568970,0.00219675
5362.08449707,0.00233770
5364.01330444,0.00222660
5365.94211182,0.00219072
5367.87091919,0.00223065
5369.79972656,0.00222318
5371.72853394,0.00219110
5373.65734131,0.00214656
5375.58614868,0.00215586
5377.51495605,0.00207540
5379.44376343,0.00210779
5381.37257080,0.00215140
5383.30137817,0.00215407
5385.23018555,0.00214034
5387.15899292,0.00201715
5389.08780029,0.00209657
5391.01660767,0.00215111
5392.94541504,0.00206665
5394.87422241,0.00204047
5396.80302978,0.00204262
5398.73183716,0.00209901
5400.66064453,0.00207372
5402.58945190,0.00206013
5404.51825928,0.00207664
5406.44706665,0.00204205
5408.37587402,0.00202100
5410.30468140,0.00196526
5412.23348877,0.00198155
5414.16229614,0.00198551
5416.09110352,0.00196461
5418.01991089,0.00201851
5419.94871826,0.00202840
5421.87752563,0.00200321
5423.80633301,0.00194777
5425.73514038,0.00201484
5427.66394775,0.00202277
5429.59275513,0.00188096
5431.52156250,0.00198874
5433.45036987,0.00199864
5435.37917725,0.00190163
5437.30798462,0.00202771
5439.23679199,0.00200395
5441.16559936,0.00191540
5443.09440674,0.00196030
5445.02321411,0.00194462
5446.95202148,0.00194469
5448.88082886,0.00193412
5450.80963623,0.00188624
5452.73844360,0.00199696
5454.66725098,0.00199316
5456.59605835,0.00192139
5458.52486572,0.00195800
5460.45367310,0.00183756
5462.38248047,0.00181900
5464.31128784,0.00183458
5466.24009521,0.00183836
5468.16890259,0.00193883
5470.09770996,0.00185686
5472.02651733,0.00187790
5473.95532471,0.00191274
5475.88413208,0.00183715
5477.81293945,0.00187744
5479.74174683,0.00186990
5481.67055420,0.00187964
5483.59936157,0.00194431
5485.52816895,0.00188164
5487.45697632,0.00176677
5489.38578369,0.00179621
5491.31459106,0.00180913
5493.24339844,0.00178208
5495.17220581,0.00178663
5497.10101318,0.00174263
5499.02982056,0.00179046
5500.95862793,0.00180578
5502.88743530,0.00176728
5504.81624268,0.00178415
5506.74505005,0.00180448
5508.67385742,0.00178614
5510.60266479,0.00177814
5512.53147217,0.00181968
5514.46027954,0.00175151
5516.38908691,0.00173160
5518.31789429,0.00173627
5520.24670166,0.00174834
5522.17550903,0.00175592
5524.10431641,0.00163794
5526.03312378,0.00168995
5527.96193115,0.00170568
5529.89073853,0.00166791
5531.81954590,0.00170361
5533.74835327,0.00170671
5535.67716064,0.00175969
5537.60596802,0.00171610
5539.53477539,0.00168025
5541.46358276,0.00169487
5543.39239014,0.00172999
5545.32119751,0.00174914
5547.25000488,0.00170045
5549.17881226,0.00165159
5551.10761963,0.00161001
5553.03642700,0.00166559
5554.96523437,0.00159991
5556.89404175,0.00158083
5558.82284912,0.00166224
5560.75165649,0.00157882
5562.68046387,0.00159458
5564.60927124,0.00165933
5566.53807861,0.00169783
5568.46688599,0.00166809
5570.39569336,0.00161358
5572.32450073,0.00166619
5574.25330811,0.00166881
5576.18211548,0.00167445
5578.11092285,0.00162322
5580.03973022,0.00156929
5581.96853760,0.00163980
5583.89734497,0.00161204
5585.82615234,0.00155044
5587.75495972,0.00160854
5589.68376709,0.00161625
5591.61257446,0.00156753
5593.54138184,0.00158404
5595.47018921,0.00160863
5597.39899658,0.00160325
5599.32780395,0.00154789
5601.25661133,0.00152811
5603.18541870,0.00153606
5605.11422607,0.00153584
5607.04303345,0.00158144
5608.97184082,0.00152675
5610.90064819,0.00148863
5612.82945557,0.00157339
5614.75826294,0.00156051
5616.68707031,0.00145854
5618.61587769,0.00148401
5620.54468506,0.00152867
5622.47349243,0.00143479
5624.40229980,0.00148806
5626.33110718,0.00160249
5628.25991455,0.00151799
5630.18872192,0.00149203
5632.11752930,0.00154476
5634.04633667,0.00149165
5635.97514404,0.00150637
5637.90395142,0.00151829
5639.83275879,0.00142848
5641.76156616,0.00147726
5643.69037353,0.00148126
5645.61918091,0.00144433
5647.54798828,0.00146767
5649.47679565,0.00144417
5651.40560303,0.00149975
5653.33441040,0.00145477
5655.26321777,0.00140492
5657.19202515,0.00149104
5659.12083252,0.00145419
5661.04963989,0.00138515
5662.97844727,0.00142042
5664.90725464,0.00140203
5666.83606201,0.00138443
5668.76486938,0.00147098
5670.69367676,0.00137214
5672.62248413,0.00136643
5674.55129150,0.00147857
5676.48009888,0.00139370
5678.40890625,0.00143669
5680.33771362,0.00138158
5682.26652100,0.00130292
5684.19532837,0.00136115
5686.12413574,0.00133162
5688.05294311,0.00138595
5689.98175049,0.00136172
5691.91055786,0.00131992
5693.83936523,0.00133837
5695.76817261,0.00130614
5697.69697998,0.00136907
5699.62578735,0.00136094
5701.55459473,0.00126233
5703.48340210,0.00133952
5705.41220947,0.00137647
5707.34101685,0.00127197
5709.26982422,0.00132726
5711.19863159,0.00133342
5713.12743896,0.00131099
5715.05624634,0.00133934
5716.98505371,0.00127697
5718.91386108,0.00130549
5720.84266846,0.00127589
5722.77147583,0.00125759
5724.70028320,0.00128274
5726.62909058,0.00127943
5728.55789795,0.00127207
5730.48670532,0.00118887
5732.41551270,0.00128030
5734.34432007,0.00131385
5736.27312744,0.00122300
5738.20193481,0.00123631
5740.13074219,0.00124707
5742.05954956,0.00123574
5743.98835693,0.00126781
5745.91716431,0.00129724
5747.84597168,0.00119994
5749.77477905,0.00124544
5751.70358643,0.00123714
5753.63239380,0.00119062
5755.56120117,0.00128993
5757.49000854,0.00117922
5759.41881592,0.00123819
5761.34762329,0.00128515
5763.27643066,0.00117290
5765.20523804,0.00121613
5767.13404541,0.00121498
5769.06285278,0.00122813
5770.99166016,0.00119039
5772.92046753,0.00119886
5774.84927490,0.00117331
5776.77808228,0.00112822
5778.70688965,0.00126119
5780.63569702,0.00121610
5782.56450439,0.00113468
5784.49331177,0.00116174
5786.42211914,0.00116513
5788.35092651,0.00115625
5790.27973389,0.00118026
5792.20854126,0.00119232
5794.13734863,0.00114981
5796.06615601,0.00118122
5797.99496338,0.00113111
5799.92377075,0.00113523
5801.85257812,0.00122434
5803.78138550,0.00113547
5805.71019287,0.00111345
5807.63900024,0.00113062
5809.56780762,0.00108461
5811.49661499,0.00108690
5813.42542236,0.00105986
5815.35422974,0.00107388
5817.28303711,0.00112200
5819.21184448,0.00113494
5821.14065186,0.00117756
5823.06945923,0.00112503
5824.99826660,0.00103520
5826.92707397,0.00105187
5828.85588135,0.00108739
5830.78468872,0.00107157
5832.71349609,0.00106202
5834.64230347,0.00113265
5836.57111084,0.00110355
5838.49991821,0.00107637
5840.42872559,0.00109007
5842.35753296,0.00103825
5844.28634033,0.00107566
5846.21514770,0.00103571
5848.14395508,0.00100434
5850.07276245,0.00103687
5852.00156982,0.00104973
5853.93037720,0.00107428
5855.85918457,0.00101688
5857.78799194,0.00101883
5859.71679932,0.00100796
5861.64560669,0.00099756
5863.57441406,0.00104372
5865.50322144,0.00104797
5867.43202881,0.00101862
5869.36083618,0.00101591
5871.28964355,0.00105968
5873.21845093,0.00101295
5875.14725830,0.00102366
5877.07606567,0.00102168
5879.00487305,0.00101964
5880.93368042,0.00105821
5882.86248779,0.00101251
5884.79129517,0.00101960
5886.72010254,0.00096030
5888.64890991,0.00099443
5890.57771728,0.00097195
5892.50652466,0.00089094
5894.43533203,0.00099153
5896.36413940,0.00096624
5898.29294678,0.00093246
5900.22175415,0.00089461
5902.15056152,0.00097716
5904.07936890,0.00103280
5906.00817627,0.00090612
5907.93698364,0.00090125
5909.86579102,0.00086184
5911.79459839,0.00095369
5913.72340576,0.00101344
5915.65221313,0.00091980
5917.58102051,0.00095212
5919.50982788,0.00097357
5921.43863525,0.00093837
5923.36744263,0.00090727
5925.29625000,0.00092329
5927.22505737,0.00089492
5929.15386475,0.00093248
5931.08267212,0.00099580
5933.01147949,0.00097862
5934.94028686,0.00095372
5936.86909424,0.00091856
5938.79790161,0.00096619
5940.72670898,0.00089775
5942.65551636,0.00084190
5944.58432373,0.00091069
5946.51313110,0.00093725
5948.44193848,0.00096365
5950.37074585,0.00095014
5952.29955322,0.00092369
5954.22836060,0.00086411
5956.15716797,0.00085520
5958.08597534,0.00086600
5960.01478271,0.00087335
5961.94359009,0.00087464
5963.87239746,0.00082094
5965.80120483,0.00083309
5967.73001221,0.00083855
5969.65881958,0.00085921
5971.58762695,0.00079681
5973.51643433,0.00077133
5975.44524170,0.00085574
5977.37404907,0.00085505
5979.30285645,0.00084552
5981.23166382,0.00072853
5983.16047119,0.00077299
5985.08927856,0.00089909
5987.01808594,0.00082080
5988.94689331,0.00083847
5990.87570068,0.00086547
5992.80450806,0.00083854
5994.73331543,0.00085197
5996.66212280,0.00085378
5998.59093018,0.00083288
6000.51973755,0.00081052
