399.26312622,0.00028159
401.19193359,0.00091178
403.12074097,0.00041004
405.04954834,-0.00000417
406.97835571,0.00019397
408.90716309,0.00060448
410.83597046,0.00077260
412.76477783,0.00039641
414.69358521,0.00049466
416.62239258,0.00045345
418.55119995,0.00020464
420.48000732,0.00031805
422.40881470,0.00015686
424.33762207,0.00009504
426.26642944,0.00039737
428.19523682,0.00102323
430.12404419,0.00055367
432.05285156,0.00020880
433.98165894,0.00087074
435.91046631,0.00029257
437.83927368,0.00009675
439.76808105,0.00046393
441.69688843,0.00058233
443.62569580,0.00054107
445.55450317,0.00048596
447.48331055,0.00106240
449.41211792,0.00055759
451.34092529,0.00023994
453.26973267,0.00042403
455.19854004,0.00055004
457.12734741,0.00099879
459.05615479,0.00022423
460.98496216,0.00022151
462.91376953,0.00057576
464.84257690,0.00030786
466.77138428,0.00073683
468.70019165,0.00053581
470.62899902,0.00030749
472.55780640,0.00029646
474.48661377,0.00003606
476.41542114,0.00022351
478.34422852,0.00030619
480.27303589,0.00020001
482.20184326,0.00017162
484.13065063,0.00004344
486.05945801,0.00013204
487.98826538,0.00045518
489.91707275,0.00045329
491.84588013,0.00039016
493.77468750,0.00041619
495.70349487,0.00044174
497.63230225,0.00015335
499.56110962,-0.00000188
501.48991699,0.00021977
503.41872437,0.00006615
505.34753174,-0.00013548
507.27633911,0.00005769
509.20514648,0.00056019
511.13395386,0.00048537
513.06276123,0.00025614
514.99156860,0.00033587
516.92037598,0.00021188
518.84918335,0.00019052
520.77799072,0.00025315
522.70679810,0.00037039
524.63560547,0.00030551
526.56441284,0.00037824
528.49322021,0.00047356
530.42202759,0.00035857
532.35083496,0.00044619
534.27964233,0.00016794
536.20844971,0.00033674
538.13725708,0.00041262
540.06606445,0.00005492
541.99487183,0.00035085
543.92367920,0.00023524
545.85248657,0.00024282
547.78129395,0.00056361
549.71010132,0.00027800
551.63890869,-0.00005979
553.56771606,0.00017596
555.49652344,0.00036908
557.42533081,-0.00008098
559.35413818,0.00000976
561.28294556,0.00018862
563.21175293,-0.00000598
565.14056030,0.00031092
567.06936768,0.00039975
568.99817505,0.00014313
570.92698242,0.00058180
572.85578979,0.00038869
574.78459717,-0.00021135
576.71340454,0.00056273
578.64221191,0.00056116
580.57101929,0.00012940
582.49982666,0.00038286
584.42863403,0.00016160
586.35744141,0.00004109
588.28624878,0.00006347
590.21505615,0.00001123
592.14386353,-0.00010926
594.07267090,0.00026620
596.00147827,0.00043245
597.93028564,0.00009391
599.85909302,0.00033728
601.78790039,0.00014961
603.71670776,0.00019372
605.64551514,0.00044635
607.57432251,0.00011620
609.50312988,0.00015044
611.43193726,0.00026610
613.36074463,0.00030193
615.28955200,0.00013149
617.21835938,0.00001696
619.14716675,0.00012205
621.07597412,0.00015003
623.00478149,0.00013858
624.93358887,-0.00003228
626.86239624,0.00003914
628.79120361,0.00034761
630.72001099,0.00001176
632.64881836,0.00003395
634.57762573,0.00050002
636.50643311,0.00048901
638.43524048,0.00035012
640.36404785,0.00049252
642.29285522,0.00074528
644.22166260,0.00061825
646.15046997,0.00044211
648.07927734,0.00072755
650.00808472,0.00111439
651.93689209,0.00098236
653.86569946,0.00075682
655.79450684,0.00089875
657.72331421,0.00083997
659.65212158,0.00097175
661.58092896,0.00091503
663.50973633,0.00077587
665.43854370,0.00113332
667.36735107,0.00084228
669.29615845,0.00069029
671.22496582,0.00119473
673.15377319,0.00131185
675.08258057,0.00128068
677.01138794,0.00128314
678.94019531,0.00124445
680.86900269,0.00142718
682.79781006,0.00149960
684.72661743,0.00129315
686.65542480,0.00143192
688.58423218,0.00163445
690.51303955,0.00154358
692.44184692,0.00143735
694.37065430,0.00166477
696.29946167,0.00191476
698.22826904,0.00169948
700.15707642,0.00196959
702.08588379,0.00210126
704.01469116,0.00161029
705.94349854,0.00140482
707.87230591,0.00123220
709.80111328,0.00124560
711.72992065,0.00092062
713.65872803,0.00049322
715.58753540,0.00037368
717.51634277,0.00015691
719.44515015,0.00041043
721.37395752,0.00049983
723.30276489,0.00022292
725.23157227,-0.00000499
727.16037964,0.00001713
729.08918701,-0.00013946
731.01799438,0.00003691
732.94680176,0.00060477
734.87560913,0.00005153
736.80441650,0.00023033
738.73322388,0.00025556
740.66203125,0.00021622
742.59083862,0.00030198
744.51964600,0.00016491
746.44845337,0.00049464
748.37726074,0.00039555
750.30606812,0.00020979
752.23487549,0.00011429
754.16368286,0.00019239
756.09249023,0.00013743
758.02129761,-0.00011424
759.95010498,-0.00001836
761.87891235,0.00004466
763.80771973,0.00015006
765.73652710,0.00022660
767.66533447,0.00043084
769.59414185,0.00023119
771.52294922,0.00009030
773.45175659,0.00038462
775.38056396,0.00017783
777.30937134,0.00031877
779.23817871,0.00011209
781.16698608,0.00014560
783.09579346,0.00026369
785.02460083,-0.00022520
786.95340820,0.00026733
788.88221558,0.00018553
790.81102295,0.00017817
792.73983032,0.00060810
794.66863770,0.00016380
796.59744507,-0.00003939
798.52625244,0.00028999
800.45505981,0.00059049
802.38386719,0.00039080
804.31267456,0.00029895
806.24148193,0.00045382
808.17028931,0.00017228
810.09909668,0.00020056
812.02790405,0.00051279
813.95671143,0.00016398
815.88551880,-0.00000818
817.81432617,0.00013905
819.74313354,0.00011030
821.67194092,0.00029644
823.60074829,0.00015011
825.52955566,0.00017640
827.45836304,0.00054682
829.38717041,0.00055762
831.31597778,0.00058395
833.24478516,0.00070011
835.17359253,0.00081390
837.10239990,0.00059893
839.03120728,0.00026222
840.96001465,0.00016762
842.88882202,0.00043872
844.81762939,0.00081573
846.74643677,0.00069507
848.67524414,0.00037183
850.60405151,0.00020836
852.53285889,0.00050774
854.46166626,0.00063169
856.39047363,0.00032248
858.31928101,0.00020200
860.24808838,0.00028437
862.17689575,0.00052320
864.10570313,0.00037493
866.03451050,0.00030580
867.96331787,0.00040789
869.89212524,0.00028027
871.82093262,0.00046517
873.74973999,0.00045573
875.67854736,0.00017665
877.60735474,0.00033475
879.53616211,0.00037878
881.46496948,0.00002302
883.39377686,0.00032997
885.32258423,0.00052123
887.25139160,0.00031142
889.18019897,0.00058951
891.10900635,0.00031448
893.03781372,-0.00001536
894.96662109,0.00007056
896.89542847,0.00005797
898.82423584,0.00014398
900.75304321,0.00024529
902.68185059,0.00044709
904.61065796,0.00038739
906.53946533,0.00049577
908.46827271,0.00051774
910.39708008,0.00039488
912.32588745,0.00087507
914.25469482,0.00075311
916.18350220,0.00058602
918.11230957,0.00071676
920.04111694,0.00043257
921.96992432,0.00041767
923.89873169,0.00034391
925.82753906,0.00040790
927.75634644,0.00073542
929.68515381,0.00076982
931.61396118,0.00073949
933.54276855,0.00081223
935.47157593,0.00096223
937.40038330,0.00077229
939.32919067,0.00073334
941.25799805,0.00101521
943.18680542,0.00081377
945.11561279,0.00070922
947.04442017,0.00090572
948.97322754,0.00095557
950.90203491,0.00091120
952.83084229,0.00092533
954.75964966,0.00091457
956.68845703,0.00081941
958.61726440,0.00087054
960.54607178,0.00082624
962.47487915,0.00076266
964.40368652,0.00082163
966.33249390,0.00090379
968.26130127,0.00084211
970.19010864,0.00079580
972.11891602,0.00106956
974.04772339,0.00114525
975.97653076,0.00116924
977.90533813,0.00120056
979.83414551,0.00139957
981.76295288,0.00152159
983.69176025,0.00137313
985.62056763,0.00174053
987.54937500,0.00191243
989.47818237,0.00209854
991.40698975,0.00254504
993.33579712,0.00275346
995.26460449,0.00272514
997.19341187,0.00285817
999.12221924,0.00334439
1001.05102661,0.00327134
1002.97983398,0.00367488
1004.90864136,0.00404896
1006.83744873,0.00410687
1008.76625610,0.00475889
1010.69506348,0.00479420
1012.62387085,0.00498459
1014.55267822,0.00522545
1016.48148560,0.00537306
1018.41029297,0.00571848
1020.33910034,0.00592464
1022.26790771,0.00629930
1024.19671509,0.00628791
1026.12552246,0.00655998
1028.05432983,0.00695342
1029.98313721,0.00722578
1031.91194458,0.00743588
1033.84075195,0.00747253
1035.76955933,0.00772514
1037.69836670,0.00765268
1039.62717407,0.00765324
1041.55598145,0.00750773
1043.48478882,0.00762262
1045.41359619,0.00782267
1047.34240356,0.00756084
1049.27121094,0.00756897
1051.20001831,0.00714403
1053.12882568,0.00713514
1055.05763306,0.00729199
1056.98644043,0.00699926
1058.91524780,0.00681710
1060.84405518,0.00648336
1062.77286255,0.00641429
1064.70166992,0.00603931
1066.63047729,0.00588645
1068.55928467,0.00599308
1070.48809204,0.00556244
1072.41689941,0.00527688
1074.34570679,0.00509768
1076.27451416,0.00488232
1078.20332153,0.00455245
1080.13212891,0.00429801
1082.06093628,0.00408959
1083.98974365,0.00400867
1085.91855103,0.00373222
1087.84735840,0.00329636
1089.77616577,0.00361227
1091.70497314,0.00358562
1093.63378052,0.00318254
1095.56258789,0.00305979
1097.49139526,0.00298772
1099.42020264,0.00312972
1101.34901001,0.00316942
1103.27781738,0.00287476
1105.20662476,0.00258005
1107.13543213,0.00274214
1109.06423950,0.00277420
1110.99304687,0.00275333
1112.92185425,0.00278011
1114.85066162,0.00263581
1116.77946899,0.00284459
1118.70827637,0.00274409
1120.63708374,0.00262578
1122.56589111,0.00274774
1124.49469849,0.00267146
1126.42350586,0.00284561
1128.35231323,0.00293980
1130.28112061,0.00285484
1132.20992798,0.00294348
1134.13873535,0.00313669
1136.06754272,0.00333121
1137.99635010,0.00344686
1139.92515747,0.00350512
1141.85396484,0.00392885
1143.78277222,0.00432165
1145.71157959,0.00435816
1147.64038696,0.00463399
1149.56919434,0.00473158
1151.49800171,0.00507481
1153.42680908,0.00546608
1155.35561646,0.00528731
1157.28442383,0.00560160
1159.21323120,0.00595867
1161.14203857,0.00619916
1163.07084595,0.00636861
1164.99965332,0.00652978
1166.92846069,0.00708088
1168.85726807,0.00724888
1170.78607544,0.00749673
1172.71488281,0.00763889
1174.64369019,0.00775462
1176.57249756,0.00827800
1178.50130493,0.00842744
1180.43011230,0.00877564
1182.35891968,0.00913508
1184.28772705,0.00944627
1186.21653442,0.01007025
1188.14534180,0.01060097
1190.07414917,0.01107576
1192.00295654,0.01161534
1193.93176392,0.01223382
1195.86057129,0.01250374
1197.78937866,0.01307135
1199.71818604,0.01389881
1201.64699341,0.01437032
1203.57580078,0.01490010
1205.50460815,0.01536907
1207.43341553,0.01609848
1209.36222290,0.01686847
1211.29103027,0.01737864
1213.21983765,0.01777904
1215.14864502,0.01825350
1217.07745239,0.01867807
1219.00625977,0.01868933
1220.93506714,0.01907862
1222.86387451,0.01940499
1224.79268188,0.01950475
1226.72148926,0.01979062
1228.65029663,0.01982712
1230.57910400,0.01995890
1232.50791138,0.02000362
1234.43671875,0.02003223
1236.36552612,0.02022692
1238.29433350,0.02014230
1240.22314087,0.01999758
1242.15194824,0.02002450
1244.08075562,0.01996787
1246.00956299,0.01985575
1247.93837036,0.01972197
1249.86717773,0.01953410
1251.79598511,0.01960329
1253.72479248,0.01949457
1255.65359985,0.01908085
1257.58240723,0.01878849
1259.51121460,0.01865453
1261.44002197,0.01842689
1263.36882935,0.01804452
1265.29763672,0.01777095
1267.22644409,0.01748609
1269.15525146,0.01750415
1271.08405884,0.01729484
1273.01286621,0.01680878
1274.94167358,0.01674297
1276.87048096,0.01646949
1278.79928833,0.01610342
1280.72809570,0.01573566
1282.65690308,0.01546851
1284.58571045,0.01530809
1286.51451782,0.01499914
1288.44332520,0.01474581
1290.37213257,0.01453686
1292.30093994,0.01453394
1294.22974731,0.01438552
1296.15855469,0.01415051
1298.08736206,0.01410662
1300.01616943,0.01411478
1301.94497681,0.01418698
1303.87378418,0.01440579
1305.80259155,0.01452234
1307.73139893,0.01457608
1309.66020630,0.01520907
1311.58901367,0.01559284
1313.51782104,0.01563169
1315.44662842,0.01588817
1317.37543579,0.01631695
1319.30424316,0.01681178
1321.23305054,0.01734756
1323.16185791,0.01822991
1325.09066528,0.01853008
1327.01947266,0.01894424
1328.94828003,0.01952972
1330.87708740,0.01992876
1332.80589478,0.02070661
1334.73470215,0.02067968
1336.66350952,0.02092345
1338.59231689,0.02107078
1340.52112427,0.02110139
1342.44993164,0.02203912
1344.37873901,0.02202911
1346.30754639,0.02200365
1348.23635376,0.02209505
1350.16516113,0.02186601
1352.09396851,0.02204127
1354.02277588,0.02171343
1355.95158325,0.02133693
1357.88039062,0.02145406
1359.80919800,0.02131606
1361.73800537,0.02030247
1363.66681274,0.02016769
1365.59562012,0.02112368
1367.52442749,0.02059532
1369.45323486,0.02036961
1371.38204224,0.02063213
1373.31084961,0.01967671
1375.23965698,0.01974545
1377.16846436,0.02020384
1379.09727173,0.02003034
1381.02607910,0.02016512
1382.95488647,0.02032492
1384.88369385,0.02021662
1386.81250122,0.01938551
1388.74130859,0.01965385
1390.67011597,0.02130642
1392.59892334,0.02084026
1394.52773071,0.01954045
1396.45653809,0.02050060
1398.38534546,0.02045173
1400.31415283,0.02039740
1402.24296021,0.02205423
1404.17176758,0.02083872
1406.10057495,0.02069993
1408.02938232,0.02155335
1409.95818970,0.02091066
1411.88699707,0.02148713
1413.81580444,0.02074868
1415.74461182,0.02093298
1417.67341919,0.01917715
1419.60222656,0.01699677
1421.53103394,0.01951430
1423.45984131,0.01915969
1425.38864868,0.01842584
1427.31745605,0.01873950
1429.24626343,0.01724115
1431.17507080,0.01679164
1433.10387817,0.01720105
1435.03268555,0.01574811
1436.96149292,0.01338629
1438.89030029,0.01519513
1440.81910767,0.01575176
1442.74791504,0.01456356
1444.67672241,0.01527730
1446.60552979,0.01402588
1448.53433716,0.01411926
1450.46314453,0.01463938
1452.39195190,0.01489705
1454.32075928,0.01559243
1456.24956665,0.01305199
1458.17837402,0.01342092
1460.10718140,0.01762142
1462.03598877,0.01898285
1463.96479614,0.01905184
1465.89360352,0.01960487
1467.82241089,0.02221171
1469.75121826,0.02407403
1471.68002563,0.02148199
1473.60883301,0.02250243
1475.53764038,0.02570447
1477.46644775,0.02774663
1479.39525513,0.03037833
1481.32406250,0.03067166
1483.25286987,0.03267986
1485.18167725,0.03360556
1487.11048462,0.03306025
1489.03929199,0.03303883
1490.96809937,0.03317263
1492.89690674,0.03858391
1494.82571411,0.03758886
1496.75452148,0.03403588
1498.68332886,0.03846831
1500.61213623,0.03940063
1502.54094360,0.04232885
1504.46975098,0.04023148
1506.39855835,0.02961143
1508.32736572,0.03552765
1510.25617310,0.04187180
1512.18498047,0.04086253
1514.11378784,0.04381126
1516.04259521,0.03986793
1517.97140259,0.04171758
1519.90020996,0.04031438
1521.82901733,0.03509494
1523.75782471,0.04265987
1525.68663208,0.04190176
1527.61543945,0.04175330
1529.54424683,0.04615077
1531.47305420,0.04434844
1533.40186157,0.04073850
1535.33066895,0.04301130
1537.25947632,0.04623485
1539.18828369,0.03364223
1541.11709106,0.03501110
1543.04589844,0.04179256
1544.97470581,0.03996509
1546.90351318,0.04719514
1548.83232056,0.04397471
1550.76112793,0.04539751
1552.68993530,0.04548667
1554.61874268,0.04120502
1556.54755005,0.04433722
1558.47635742,0.03195392
1560.40516479,0.03389750
1562.33397217,0.04755021
1564.26277954,0.04526025
1566.19158691,0.04644185
1568.12039429,0.04610093
1570.04920166,0.04120357
1571.97800903,0.04707392
1573.90681641,0.04788678
1575.83562378,0.03827699
1577.76443115,0.04297888
1579.69323853,0.04859359
1581.62204590,0.04632822
1583.55085327,0.04759326
1585.47966064,0.04708583
1587.40846802,0.04737647
1589.33727539,0.04701786
1591.26608276,0.04714032
1593.19489014,0.04723601
1595.12369751,0.04645986
1597.05250488,0.04721708
1598.98131226,0.04705740
1600.91011963,0.04739590
1602.83892700,0.04669331
1604.76773437,0.04733025
1606.69654175,0.04665368
1608.62534912,0.04669755
1610.55415649,0.04673082
1612.48296387,0.04689663
1614.41177124,0.04749298
1616.34057861,0.03913502
1618.26938599,0.04232704
1620.19819336,0.04928197
1622.12700073,0.04388426
1624.05580811,0.04398494
1625.98461548,0.04624507
1627.91342285,0.04610930
1629.84223022,0.04586618
1631.77103760,0.04881259
1633.69984497,0.04521975
1635.62865234,0.03768184
1637.55745972,0.04352041
1639.48626709,0.04773458
1641.41507446,0.04650236
1643.34388184,0.04786970
1645.27268921,0.04352754
1647.20149658,0.03828866
1649.13030396,0.04728354
1651.05911133,0.04502407
1652.98791870,0.02944766
1654.91672607,0.03952252
1656.84553345,0.04927469
1658.77434082,0.04709862
1660.70314819,0.04841903
1662.63195557,0.04410809
1664.56076294,0.04640359
1666.48957031,0.04993083
1668.41837769,0.04383782
1670.34718506,0.04253004
1672.27599243,0.04810829
1674.20479980,0.04464983
1676.13360718,0.04272881
1678.06241455,0.04912907
1679.99122192,0.04758764
1681.92002930,0.04711913
1683.84883667,0.03866391
1685.77764404,0.03800511
1687.70645142,0.05170415
1689.63525879,0.04514245
1691.56406616,0.04933061
1693.49287354,0.05046042
1695.42168091,0.03722569
1697.35048828,0.04565846
1699.27929565,0.04042744
1701.20810303,0.03636336
1703.13691040,0.04912562
1705.06571777,0.04527818
1706.99452515,0.04549036
1708.92333252,0.04938762
1710.85213989,0.04764167
1712.78094727,0.04838773
1714.70975464,0.04515538
1716.63856201,0.04085297
1718.56736938,0.04005820
1720.49617676,0.04705090
1722.42498413,0.04895286
1724.35379150,0.04571899
1726.28259888,0.04958945
1728.21140625,0.04594275
1730.14021362,0.04620702
1732.06902100,0.04514230
1733.99782837,0.03469057
1735.92663574,0.04277382
1737.85544312,0.04734706
1739.78425049,0.04211101
1741.71305786,0.04586870
1743.64186523,0.04643412
1745.57067261,0.04651390
1747.49947998,0.04715711
1749.42828735,0.04500224
1751.35709473,0.04322192
1753.28590210,0.04775160
1755.21470947,0.04995257
1757.14351685,0.04575609
1759.07232422,0.05008450
1761.00113159,0.04725369
1762.92993896,0.04549811
1764.85874634,0.05190901
1766.78755371,0.04694837
1768.71636108,0.04751769
1770.64516846,0.04728978
1772.57397583,0.04248758
1774.50278320,0.04737813
1776.43159058,0.04998066
1778.36039795,0.04934030
1780.28920532,0.04874168
1782.21801270,0.04907935
1784.14682007,0.04910719
1786.07562744,0.04814027
1788.00443481,0.05065795
1789.93324219,0.04954263
1791.86204956,0.04504330
1793.79085693,0.04675809
1795.71966431,0.04999902
1797.64847168,0.04957861
1799.57727905,0.04894530
1801.50608643,0.04807726
1803.43489380,0.04953142
1805.36370117,0.05077272
1807.29250854,0.05013112
1809.22131592,0.05016635
1811.15012329,0.04887459
1813.07893066,0.05044755
1815.00773804,0.05080890
1816.93654541,0.05018030
1818.86535278,0.05070560
1820.79416016,0.05056499
1822.72296753,0.05122340
1824.65177490,0.04801326
1826.58058228,0.04959981
1828.50938965,0.04984052
1830.43819702,0.04680996
1832.36700439,0.05068308
1834.29581177,0.05052675
1836.22461914,0.05040182
1838.15342651,0.05027449
1840.08223389,0.05069390
1842.01104126,0.05077539
1843.93984863,0.04531812
1845.86865601,0.04805585
1847.79746338,0.05052211
1849.72627075,0.04963217
1851.65507812,0.05113094
1853.58388550,0.05013129
1855.51269287,0.05074464
1857.44150024,0.05052911
1859.37030762,0.05010876
1861.29911499,0.05046560
1863.22792236,0.05013783
1865.15672974,0.05061647
1867.08553711,0.04891306
1869.01434448,0.04706031
1870.94315186,0.04885004
1872.87195923,0.05063299
1874.80076660,0.04990366
1876.72957397,0.05025030
1878.65838135,0.04997946
1880.58718872,0.04972426
1882.51599609,0.05034935
1884.44480347,0.04951813
1886.37361084,0.05033147
1888.30241821,0.04922614
1890.23122559,0.04821639
1892.16003296,0.05017713
1894.08884033,0.04943569
1896.01764771,0.04918244
1897.94645508,0.04979946
1899.87526245,0.04958111
1901.80406982,0.04971536
1903.73287720,0.04932833
1905.66168457,0.04962265
1907.59049194,0.04924224
1909.51929932,0.04892880
1911.44810669,0.04936415
1913.37691406,0.04930193
1915.30572144,0.04962441
1917.23452881,0.04763014
1919.16333618,0.04763598
1921.09214355,0.04961640
1923.02095093,0.04805648
1924.94975830,0.04883948
1926.87856567,0.04956174
1928.80737305,0.04899397
1930.73618042,0.04963869
1932.66498779,0.04895782
1934.59379517,0.04948635
1936.52260254,0.04920983
1938.45140991,0.04908820
1940.38021729,0.04927433
1942.30902466,0.04788068
1944.23783203,0.04870391
1946.16663940,0.04934060
1948.09544678,0.04910343
1950.02425415,0.04921372
1951.95306152,0.04922778
1953.88186890,0.04928965
1955.81067627,0.04911210
1957.73948364,0.04921572
1959.66829102,0.04912434
1961.59709839,0.04921027
1963.52590576,0.04926725
1965.45471313,0.04894803
1967.38352051,0.04843982
1969.31232788,0.04887414
1971.24113525,0.04937328
1973.16994263,0.04895040
1975.09875000,0.04925390
1977.02755737,0.04904390
1978.95636475,0.04910640
1980.88517212,0.04901931
1982.81397949,0.04874764
1984.74278687,0.04928319
1986.67159424,0.04870920
1988.60040161,0.04889920
1990.52920898,0.04868900
1992.45801636,0.04792618
1994.38682373,0.04860292
1996.31563110,0.04871874
1998.24443848,0.04862982
2000.17324585,0.04868113
2002.10205322,0.04860234
2004.03086060,0.04849328
2005.95966797,0.04841851
2007.88847534,0.04848304
2009.81728271,0.04831332
2011.74609009,0.04825993
2013.67489746,0.04833393
2015.60370483,0.04794117
2017.53251221,0.04756124
2019.46131958,0.04791973
2021.39012695,0.04782870
2023.31893433,0.04764974
2025.24774170,0.04786960
2027.17654907,0.04767899
2029.10535645,0.04766922
2031.03416382,0.04761093
2032.96297119,0.04751818
2034.89177856,0.04750843
2036.82058594,0.04740043
2038.74939331,0.04733568
2040.67820068,0.04708286
2042.60700806,0.04696462
2044.53581543,0.04702372
2046.46462280,0.04700670
2048.39343018,0.04698469
2050.32223755,0.04699957
2052.25104492,0.04691331
2054.17985229,0.04672283
2056.10865967,0.04651099
2058.03746704,0.04653832
2059.96627441,0.04672511
2061.89508179,0.04664162
2063.82388916,0.04636966
2065.75269653,0.04622830
2067.68150391,0.04635336
2069.61031128,0.04620568
2071.53911865,0.04617731
2073.46792603,0.04630722
2075.39673340,0.04615447
2077.32554077,0.04613540
2079.25434814,0.04597628
2081.18315552,0.04604835
2083.11196289,0.04602589
2085.04077026,0.04576883
2086.96957764,0.04579996
2088.89838501,0.04572329
2090.82719238,0.04577529
2092.75599976,0.04570785
2094.68480713,0.04554191
2096.61361450,0.04546292
2098.54242187,0.04538058
2100.47122925,0.04544454
2102.40003662,0.04549723
2104.32884399,0.04539691
2106.25765137,0.04519296
2108.18645874,0.04516315
2110.11526611,0.04509881
2112.04407349,0.04512070
2113.97288086,0.04512921
2115.90168823,0.04498920
2117.83049561,0.04492614
2119.75930298,0.04493108
2121.68811035,0.04505182
2123.61691772,0.04488751
2125.54572510,0.04483831
2127.47453247,0.04490126
2129.40333984,0.04480243
2131.33214722,0.04478125
2133.26095459,0.04480299
2135.18976196,0.04475719
2137.11856934,0.04458352
2139.04737671,0.04470728
2140.97618408,0.04455210
2142.90499146,0.04442315
2144.83379883,0.04450642
2146.76260620,0.04440413
2148.69141357,0.04460629
2150.62022095,0.04453207
2152.54902832,0.04450489
2154.47783569,0.04442653
2156.40664307,0.04434404
2158.33545044,0.04449540
2160.26425781,0.04424024
2162.19306519,0.04421955
2164.12187256,0.04427236
2166.05067993,0.04420909
2167.97948730,0.04418737
2169.90829468,0.04430287
2171.83710205,0.04430933
2173.76590942,0.04416774
2175.69471680,0.04427648
2177.62352417,0.04407610
2179.55233154,0.04407523
2181.48113892,0.04411630
2183.40994629,0.04398032
2185.33875366,0.04405689
2187.26756104,0.04391584
2189.19636841,0.04382251
2191.12517578,0.04392986
2193.05398315,0.04407955
2194.98279053,0.04384419
2196.91159790,0.04368053
2198.84040527,0.04381787
2200.76921265,0.04373793
2202.69802002,0.04375169
2204.62682739,0.04370295
2206.55563477,0.04361794
2208.48444214,0.04363313
2210.41324951,0.04368626
2212.34205688,0.04361887
2214.27086426,0.04352212
2216.19967163,0.04355381
2218.12847900,0.04351114
2220.05728638,0.04350535
2221.98609375,0.04333715
2223.91490112,0.04334658
2225.84370850,0.04343905
2227.77251587,0.04322814
2229.70132324,0.04323275
2231.63013062,0.04333935
2233.55893799,0.04330447
2235.48774536,0.04317207
2237.41655273,0.04309435
2239.34536011,0.04310841
2241.27416748,0.04314400
2243.20297485,0.04303841
2245.13178223,0.04293902
2247.06058960,0.04303461
2248.98939697,0.04288903
2250.91820435,0.04280987
2252.84701172,0.04287890
2254.77581909,0.04273113
2256.70462646,0.04271788
2258.63343384,0.04276760
2260.56224121,0.04264402
2262.49104858,0.04265871
2264.41985596,0.04264794
2266.34866333,0.04250929
2268.27747070,0.04250624
2270.20627808,0.04243752
2272.13508545,0.04251910
2274.06389282,0.04256044
2275.99270020,0.04239694
2277.92150757,0.04236938
2279.85031494,0.04235686
2281.77912231,0.04249415
2283.70792969,0.04241797
2285.63673706,0.04220324
2287.56554443,0.04221250
2289.49435181,0.04218493
2291.42315918,0.04211970
2293.35196655,0.04197633
2295.28077393,0.04189223
2297.20958130,0.04178625
2299.13838867,0.04171824
2301.06719604,0.04157881
2302.99600342,0.04122933
2304.92481079,0.04123036
2306.85361816,0.04114194
2308.78242554,0.04062376
2310.71123291,0.04026153
2312.64004028,0.03995868
2314.56884766,0.03963305
2316.49765503,0.03936376
2318.42646240,0.03882483
2320.35526978,0.03827184
2322.28407715,0.03781462
2324.21288452,0.03736441
2326.14169189,0.03705138
2328.07049927,0.03664929
2329.99930664,0.03618816
2331.92811401,0.03587418
2333.85692139,0.03585676
2335.78572876,0.03563434
2337.71453613,0.03552067
2339.64334351,0.03583084
2341.57215088,0.03590808
2343.50095825,0.03627940
2345.42976562,0.03692397
2347.35857300,0.03837103
2349.28738037,0.03958194
2351.21618774,0.03839370
2353.14499512,0.03656248
2355.07380249,0.03522187
2357.00260986,0.03419519
2358.93141724,0.03346410
2360.86022461,0.03311187
2362.78903198,0.03325338
2364.71783936,0.03336895
2366.64664673,0.03385695
2368.57545410,0.03460179
2370.50426147,0.03532361
2372.43306885,0.03614009
2374.36187622,0.03726199
2376.29068359,0.03843490
2378.21949097,0.03904505
2380.14829834,0.03967678
2382.07710571,0.04018544
2384.00591309,0.04039493
2385.93472046,0.04064944
2387.86352783,0.04074969
2389.79233521,0.04070007
2391.72114258,0.04062843
2393.64994995,0.04056185
2395.57875732,0.04054840
2397.50756470,0.04066494
2399.43637207,0.04054710
2401.36517944,0.04039910
2403.29398682,0.04049069
2405.22279419,0.04050627
2407.15160156,0.04039437
2409.08040894,0.04027368
2411.00921631,0.04039052
2412.93802368,0.04040638
2414.86683105,0.04024403
2416.79563843,0.04024005
2418.72444580,0.04029256
2420.65325317,0.04016483
2422.58206055,0.03997336
2424.51086792,0.04004328
2426.43967529,0.04006907
2428.36848267,0.03998479
2430.29729004,0.04001621
2432.22609741,0.04004236
2434.15490479,0.03992169
2436.08371216,0.03989484
2438.01251953,0.03993061
2439.94132690,0.03984497
2441.87013428,0.03984299
2443.79894165,0.03971422
2445.72774902,0.03971927
2447.65655640,0.03977376
2449.58536377,0.03968980
2451.51417114,0.03976560
2453.44297852,0.03970591
2455.37178589,0.03962442
2457.30059326,0.03954771
2459.22940063,0.03959814
2461.15820801,0.03965600
2463.08701538,0.03953283
2465.01582275,0.03943270
2466.94463013,0.03929892
2468.87343750,0.03940947
2470.80224487,0.03935981
2472.73105225,0.03924227
2474.65985962,0.03930536
2476.58866699,0.03921919
2478.51747437,0.03931059
2480.44628174,0.03926697
2482.37508911,0.03917438
2484.30389648,0.03927117
2486.23270386,0.03909110
2488.16151123,0.03895028
2490.09031860,0.03907875
2492.01912598,0.03904805
2493.94793335,0.03888834
2495.87674072,0.03888066
2497.80554810,0.03889146
2499.73435547,0.03885708
2501.66316284,0.03895311
2503.59197021,0.03895929
2505.52077759,0.03871957
2507.44958496,0.03872725
2509.37839233,0.03875101
2511.30719971,0.03864088
2513.23600708,0.03869291
2515.16481445,0.03862803
2517.09362183,0.03863589
2519.02242920,0.03863548
2520.95123657,0.03858094
2522.88004395,0.03859843
2524.80885132,0.03858098
2526.73765869,0.03857378
2528.66646606,0.03849983
2530.59527344,0.03859659
2532.52408081,0.03854839
2534.45288818,0.03829519
2536.38169556,0.03825599
2538.31050293,0.03836059
2540.23931030,0.03829277
2542.16811768,0.03810743
2544.09692505,0.03821281
2546.02573242,0.03823125
2547.95453979,0.03823430
2549.88334717,0.03811251
2551.81215454,0.03797739
2553.74096191,0.03811028
2555.66976929,0.03796108
2557.59857666,0.03796218
2559.52738403,0.03797882
2561.45619141,0.03801750
2563.38499878,0.03805453
2565.31380615,0.03784323
2567.24261353,0.03789008
2569.17142090,0.03777230
2571.10022827,0.03767982
2573.02903564,0.03775807
2574.95784302,0.03778483
2576.88665039,0.03776589
2578.81545776,0.03760343
2580.74426514,0.03756360
2582.67307251,0.03759190
2584.60187988,0.03761462
2586.53068726,0.03750326
2588.45949463,0.03745949
2590.38830200,0.03747548
2592.31710937,0.03746178
2594.24591675,0.03746418
2596.17472412,0.03735494
2598.10353149,0.03736368
2600.03233887,0.03730239
2601.96114624,0.03730466
2603.88995361,0.03726418
2605.81876099,0.03722943
2607.74756836,0.03726300
2609.67637573,0.03709586
2611.60518311,0.03722753
2613.53399048,0.03710463
2615.46279785,0.03698060
2617.39160522,0.03718228
2619.32041260,0.03701913
2621.24921997,0.03696833
2623.17802734,0.03690866
2625.10683472,0.03676604
2627.03564209,0.03680871
2628.96444946,0.03680472
2630.89325684,0.03677664
2632.82206421,0.03677658
2634.75087158,0.03680424
2636.67967895,0.03672765
2638.60848633,0.03660619
2640.53729370,0.03664497
2642.46610107,0.03661277
2644.39490845,0.03652596
2646.32371582,0.03657649
2648.25252319,0.03649967
2650.18133057,0.03648090
2652.11013794,0.03647628
2654.03894531,0.03636089
2655.96775269,0.03633516
2657.89656006,0.03624100
2659.82536743,0.03629331
2661.75417480,0.03621928
2663.68298218,0.03606598
2665.61178955,0.03620376
2667.54059692,0.03622902
2669.46940430,0.03613058
2671.39821167,0.03607333
2673.32701904,0.03615362
2675.25582642,0.03611177
2677.18463379,0.03599129
2679.11344116,0.03596577
2681.04224854,0.03593269
2682.97105591,0.03598006
2684.89986328,0.03592204
2686.82867065,0.03580392
2688.75747803,0.03571574
2690.68628540,0.03574802
2692.61509277,0.03567687
2694.54390015,0.03558073
2696.47270752,0.03571007
2698.40151489,0.03564818
2700.33032227,0.03563825
2702.25912964,0.03558065
2704.18793701,0.03544525
2706.11674438,0.03547079
2708.04555176,0.03541014
2709.97435913,0.03541712
2711.90316650,0.03543010
2713.83197388,0.03539771
2715.76078125,0.03534865
2717.68958862,0.03525725
2719.61839600,0.03523102
2721.54720337,0.03524682
2723.47601074,0.03517709
2725.40481812,0.03510722
2727.33362549,0.03506549
2729.26243286,0.03497059
2731.19124023,0.03502889
2733.12004761,0.03491734
2735.04885498,0.03470453
2736.97766235,0.03476681
2738.90646973,0.03486320
2740.83527710,0.03487441
2742.76408447,0.03482280
2744.69289185,0.03479000
2746.62169922,0.03465698
2748.55050659,0.03460072
2750.47931396,0.03463792
2752.40812134,0.03460170
2754.33692871,0.03459512
2756.26573608,0.03455513
2758.19454346,0.03451768
2760.12335083,0.03444702
2762.05215820,0.03439882
2763.98096558,0.03420878
2765.90977295,0.03420871
2767.83858032,0.03443877
2769.76738770,0.03427291
2771.69619507,0.03419395
2773.62500244,0.03419458
2775.55380981,0.03406264
2777.48261719,0.03400038
2779.41142456,0.03399067
2781.34023193,0.03393357
2783.26903931,0.03385767
2785.19784668,0.03395785
2787.12665405,0.03388152
2789.05546143,0.03384097
2790.98426880,0.03389359
2792.91307617,0.03377905
2794.84188354,0.03373021
2796.77069092,0.03360577
2798.69949829,0.03359615
2800.62830566,0.03362829
2802.55711304,0.03345983
2804.48592041,0.03347445
2806.41472778,0.03346090
2808.34353516,0.03331214
2810.27234253,0.03341261
2812.20114990,0.03333129
2814.12995728,0.03323302
2816.05876465,0.03328685
2817.98757202,0.03313011
2819.91637939,0.03319032
2821.84518677,0.03304897
2823.77399414,0.03295223
2825.70280151,0.03305408
2827.63160889,0.03286767
2829.56041626,0.03290769
2831.48922363,0.03276318
2833.41803101,0.03270452
2835.34683838,0.03270838
2837.27564575,0.03251890
2839.20445312,0.03261412
2841.13326050,0.03243165
2843.06206787,0.03231663
2844.99087524,0.03231673
2846.91968262,0.03213367
2848.84848999,0.03203947
2850.77729736,0.03192852
2852.70610474,0.03192784
2854.63491211,0.03186523
2856.56371948,0.03173502
2858.49252686,0.03180117
2860.42133423,0.03179121
2862.35014160,0.03167991
2864.27894897,0.03181151
2866.20775635,0.03175893
2868.13656372,0.03159173
2870.06537109,0.03161772
2871.99417847,0.03153581
2873.92298584,0.03156121
2875.85179321,0.03144085
2877.78060059,0.03140494
2879.70940796,0.03151403
2881.63821533,0.03135511
2883.56702270,0.03133995
2885.49583008,0.03136292
2887.42463745,0.03138202
2889.35344482,0.03126770
2891.28225220,0.03115624
2893.21105957,0.03120447
2895.13986694,0.03106110
2897.06867432,0.03098424
2898.99748169,0.03096002
2900.92628906,0.03088838
2902.85509644,0.03083684
2904.78390381,0.03074281
2906.71271118,0.03066898
2908.64151855,0.03069163
2910.57032593,0.03058457
2912.49913330,0.03045718
2914.42794067,0.03045820
2916.35674805,0.03027930
2918.28555542,0.03016124
2920.21436279,0.03006482
2922.14317017,0.03009302
2924.07197754,0.03012785
2926.00078491,0.02996307
2927.92959229,0.03001041
2929.85839966,0.02993148
2931.78720703,0.02993049
2933.71601440,0.02994301
2935.64482178,0.02986830
2937.57362915,0.03000081
2939.50243652,0.02991023
2941.43124390,0.02996123
2943.36005127,0.03006073
2945.28885864,0.02991247
2947.21766602,0.02986932
2949.14647339,0.02981705
2951.07528076,0.02980380
2953.00408813,0.02977808
2954.93289551,0.02957425
2956.86170288,0.02953603
2958.79051025,0.02960638
2960.71931763,0.02946389
2962.64812500,0.02936843
2964.57693237,0.02934086
2966.50573975,0.02929580
2968.43454712,0.02930370
2970.36335449,0.02937707
2972.29216187,0.02936127
2974.22096924,0.02932851
2976.14977661,0.02951364
2978.07858398,0.02946533
2980.00739136,0.02941204
2981.93619873,0.02947329
2983.86500610,0.02944715
2985.79381348,0.02949135
2987.72262085,0.02938646
2989.65142822,0.02936744
2991.58023560,0.02934807
2993.50904297,0.02931887
2995.43785034,0.02932693
2997.36665771,0.02930750
2999.29546509,0.02934447
3001.22427246,0.02917245
3003.15307983,0.02910069
3005.08188721,0.02903847
3007.01069458,0.02898638
3008.93950195,0.02898296
3010.86830933,0.02888315
3012.79711670,0.02893032
3014.72592407,0.02888387
3016.65473145,0.02887206
3018.58353882,0.02879521
3020.51234619,0.02864153
3022.44115356,0.02867234
3024.36996094,0.02867806
3026.29876831,0.02859118
3028.22757568,0.02850317
3030.15638306,0.02851328
3032.08519043,0.02836978
3034.01399780,0.02828927
3035.94280518,0.02834482
3037.87161255,0.02834377
3039.80041992,0.02835807
3041.72922729,0.02821379
3043.65803467,0.02815136
3045.58684204,0.02817559
3047.51564941,0.02808696
3049.44445679,0.02797526
3051.37326416,0.02796543
3053.30207153,0.02796069
3055.23087891,0.02787593
3057.15968628,0.02786629
3059.08849365,0.02785496
3061.01730103,0.02776622
3062.94610840,0.02763725
3064.87491577,0.02772325
3066.80372314,0.02771932
3068.73253052,0.02757330
3070.66133789,0.02768476
3072.59014526,0.02766530
3074.51895264,0.02755168
3076.44776001,0.02747291
3078.37656738,0.02745320
3080.30537476,0.02745129
3082.23418213,0.02736524
3084.16298950,0.02730119
3086.09179687,0.02720904
3088.02060425,0.02722206
3089.94941162,0.02715926
3091.87821899,0.02709696
3093.80702637,0.02708390
3095.73583374,0.02702716
3097.66464111,0.02709994
3099.59344849,0.02695352
3101.52225586,0.02681041
3103.45106323,0.02685889
3105.37987061,0.02680187
3107.30867798,0.02678354
3109.23748535,0.02667746
3111.16629272,0.02658280
3113.09510010,0.02671203
3115.02390747,0.02658420
3116.95271484,0.02644004
3118.88152222,0.02655438
3120.81032959,0.02641247
3122.73913696,0.02628601
3124.66794434,0.02635179
3126.59675171,0.02624902
3128.52555908,0.02606798
3130.45436645,0.02614704
3132.38317383,0.02618888
3134.31198120,0.02598580
3136.24078857,0.02597728
3138.16959595,0.02590658
3140.09840332,0.02581093
3142.02721069,0.02581134
3143.95601807,0.02571364
3145.88482544,0.02567776
3147.81363281,0.02564685
3149.74244019,0.02559437
3151.67124756,0.02547281
3153.60005493,0.02545676
3155.52886230,0.02548628
3157.45766968,0.02540727
3159.38647705,0.02522419
3161.31528442,0.02516260
3163.24409180,0.02531920
3165.17289917,0.02515886
3167.10170654,0.02501119
3169.03051392,0.02494293
3170.95932129,0.02492734
3172.88812866,0.02494805
3174.81693604,0.02478526
3176.74574341,0.02477420
3178.67455078,0.02466558
3180.60335815,0.02469175
3182.53216553,0.02464722
3184.46097290,0.02448403
3186.38978027,0.02457716
3188.31858765,0.02446925
3190.24739502,0.02436119
3192.17620239,0.02432655
3194.10500977,0.02437423
3196.03381714,0.02434232
3197.96262451,0.02423903
3199.89143188,0.02417535
3201.82023926,0.02414588
3203.74904663,0.02423749
3205.67785400,0.02407647
3207.60666138,0.02405471
3209.53546875,0.02400711
3211.46427612,0.02388857
3213.39308350,0.02389287
3215.32189087,0.02377624
3217.25069824,0.02381277
3219.17950562,0.02378967
3221.10831299,0.02382195
3223.03712036,0.02374969
3224.96592773,0.02361117
3226.89473511,0.02362813
3228.82354248,0.02357144
3230.75234985,0.02353112
3232.68115723,0.02348494
3234.60996460,0.02352322
3236.53877197,0.02339496
3238.46757935,0.02346515
3240.39638672,0.02353912
3242.32519409,0.02338884
3244.25400146,0.02346154
3246.18280884,0.02331297
3248.11161621,0.02335839
3250.04042358,0.02341853
3251.96923096,0.02327909
3253.89803833,0.02325750
3255.82684570,0.02323423
3257.75565308,0.02328213
3259.68446045,0.02321128
3261.61326782,0.02326280
3263.54207520,0.02317891
3265.47088257,0.02309958
3267.39968994,0.02318342
3269.32849731,0.02306375
3271.25730469,0.02310028
3273.18611206,0.02303973
3275.11491943,0.02300967
3277.04372681,0.02306383
3278.97253418,0.02293401
3280.90134155,0.02295845
3282.83014893,0.02298015
3284.75895630,0.02293437
3286.68776367,0.02292391
3288.61657104,0.02286447
3290.54537842,0.02288069
3292.47418579,0.02282244
3294.40299316,0.02271203
3296.33180054,0.02283853
3298.26060791,0.02288444
3300.18941528,0.02282077
3302.11822266,0.02283496
3304.04703003,0.02291708
3305.97583740,0.02277826
3307.90464478,0.02251913
3309.83345215,0.02266199
3311.76225952,0.02261492
3313.69106689,0.02256022
3315.61987427,0.02266581
3317.54868164,0.02251434
3319.47748901,0.02252545
3321.40629639,0.02261359
3323.33510376,0.02253597
3325.26391113,0.02240413
3327.19271851,0.02254073
3329.12152588,0.02247216
3331.05033325,0.02233482
3332.97914062,0.02250098
3334.90794800,0.02232935
3336.83675537,0.02222916
3338.76556274,0.02223521
3340.69437012,0.02231140
3342.62317749,0.02231081
3344.55198486,0.02215724
3346.48079224,0.02225519
3348.40959961,0.02216110
3350.33840698,0.02211446
3352.26721436,0.02218478
3354.19602173,0.02213094
3356.12482910,0.02203269
3358.05363647,0.02200256
3359.98244385,0.02201778
3361.91125122,0.02193193
3363.84005859,0.02190190
3365.76886597,0.02183970
3367.69767334,0.02179822
3369.62648071,0.02173582
3371.55528809,0.02176445
3373.48409546,0.02179750
3375.41290283,0.02180183
3377.34171020,0.02180294
3379.27051758,0.02168858
3381.19932495,0.02170067
3383.12813232,0.02154806
3385.05693970,0.02155014
3386.98574707,0.02150416
3388.91455444,0.02149558
3390.84336182,0.02160176
3392.77216919,0.02133086
3394.70097656,0.02136633
3396.62978394,0.02122653
3398.55859131,0.02124829
3400.48739868,0.02132109
3402.41620605,0.02113547
3404.34501343,0.02133523
3406.27382080,0.02114961
3408.20262817,0.02106188
3410.13143555,0.02111564
3412.06024292,0.02109467
3413.98905029,0.02108652
3415.91785767,0.02097646
3417.84666504,0.02104705
3419.77547241,0.02094713
3421.70427979,0.02087983
3423.63308716,0.02089978
3425.56189453,0.02092479
3427.49070190,0.02081021
3429.41950928,0.02085734
3431.34831665,0.02086805
3433.27712402,0.02064497
3435.20593140,0.02076731
3437.13473877,0.02062023
3439.06354614,0.02063750
3440.99235352,0.02062310
3442.92116089,0.02047101
3444.84996826,0.02053748
3446.77877563,0.02028344
3448.70758301,0.02038037
3450.63639038,0.02052197
3452.56519775,0.02052758
3454.49400513,0.02046297
3456.42281250,0.02035382
3458.35161987,0.02047622
3460.28042725,0.02041134
3462.20923462,0.02035789
3464.13804199,0.02029774
3466.06684937,0.02026891
3467.99565674,0.02029999
3469.92446411,0.02027008
3471.85327148,0.02024499
3473.78207886,0.02025967
3475.71088623,0.02022211
3477.63969360,0.02022307
3479.56850098,0.02020692
3481.49730835,0.01994038
3483.42611572,0.02005144
3485.35492310,0.02008488
3487.28373047,0.01997282
3489.21253784,0.02006187
3491.14134521,0.02010729
3493.07015259,0.02017350
3494.99895996,0.02000479
3496.92776733,0.02007917
3498.85657471,0.02017735
3500.78538208,0.02013276
3502.71418945,0.01983794
3504.64299683,0.01980324
3506.57180420,0.02025355
3508.50061157,0.01984918
3510.42941895,0.01974788
3512.35822632,0.01998413
3514.28703369,0.02003738
3516.21584106,0.02013373
3518.14464844,0.01990501
3520.07345581,0.02001141
3522.00226318,0.01982372
3523.93107056,0.01956021
3525.85987793,0.01971070
3527.78868530,0.01974770
3529.71749268,0.01977570
3531.64630005,0.01992914
3533.57510742,0.02009155
3535.50391479,0.01984532
3537.43272217,0.01974338
3539.36152954,0.02000456
3541.29033691,0.02003069
3543.21914429,0.01983833
3545.14795166,0.01947319
3547.07675903,0.01919160
3549.00556641,0.01964736
3550.93437378,0.01979804
3552.86318115,0.01945730
3554.79198853,0.01980707
3556.72079590,0.01985349
3558.64960327,0.01975545
3560.57841064,0.01962733
3562.50721802,0.01957518
3564.43602539,0.01966508
3566.36483276,0.01835408
3568.29364014,0.01793710
3570.22244751,0.01945449
3572.15125488,0.01995745
3574.08006226,0.01962689
3576.00886963,0.01978969
3577.93767700,0.01968804
3579.86648437,0.01966040
3581.79529175,0.01975029
3583.72409912,0.01977157
3585.65290649,0.01942325
3587.58171387,0.01785827
3589.51052124,0.01831309
3591.43932861,0.01985473
3593.36813599,0.01938554
3595.29694336,0.01902448
3597.22575073,0.01938261
3599.15455811,0.01956654
3601.08336548,0.01924954
3603.01217285,0.01953383
3604.94098022,0.01987221
3606.86978760,0.01923695
3608.79859497,0.01814556
3610.72740234,0.01851593
3612.65620972,0.01902266
3614.58501709,0.01828244
3616.51382446,0.01962416
3618.44263184,0.01824877
3620.37143921,0.01761460
3622.30024658,0.01983381
3624.22905395,0.01925701
3626.15786133,0.02026655
3628.08666870,0.01721924
3630.01547607,0.01567340
3631.94428345,0.01958547
3633.87309082,0.01898041
3635.80189819,0.01931646
3637.73070557,0.01977530
3639.65951294,0.01953338
3641.58832031,0.01976439
3643.51712769,0.01953583
3645.44593506,0.01962757
3647.37474243,0.01771262
3649.30354980,0.01631702
3651.23235718,0.01644969
3653.16116455,0.01954966
3655.08997192,0.01931801
3657.01877930,0.01732062
3658.94758667,0.01985424
3660.87639404,0.01946356
3662.80520142,0.01972989
3664.73400879,0.01956620
3666.66281616,0.01937670
3668.59162354,0.01902425
3670.52043091,0.01564413
3672.44923828,0.01862255
3674.37804565,0.01784249
3676.30685303,0.01495986
3678.23566040,0.01861687
3680.16446777,0.01894350
3682.09327515,0.01903174
3684.02208252,0.01963507
3685.95088989,0.01914136
3687.87969727,0.01742871
3689.80850464,0.01611760
3691.73731201,0.01817389
3693.66611938,0.01868822
3695.59492676,0.01914375
3697.52373413,0.01921272
3699.45254150,0.01894349
3701.38134888,0.01849270
3703.31015625,0.01778259
3705.23896362,0.01947816
3707.16777100,0.01868581
3709.09657837,0.01819442
3711.02538574,0.01717754
3712.95419312,0.01614626
3714.88300049,0.01874562
3716.81180786,0.01845817
3718.74061523,0.01868077
3720.66942261,0.01835217
3722.59822998,0.01772878
3724.52703735,0.01831034
3726.45584473,0.01696970
3728.38465210,0.01846616
3730.31345947,0.01820153
3732.24226685,0.01680502
3734.17107422,0.01650353
3736.09988159,0.01560904
3738.02868896,0.01656365
3739.95749634,0.01780460
3741.88630371,0.01862465
3743.81511108,0.01469022
3745.74391846,0.01386112
3747.67272583,0.01778917
3749.60153320,0.01534312
3751.53034058,0.01432307
3753.45914795,0.01629140
3755.38795532,0.01741379
3757.31676270,0.01824930
3759.24557007,0.01687778
3761.17437744,0.01743848
3763.10318481,0.01849833
3765.03199219,0.01734532
3766.96079956,0.01772543
3768.88960693,0.01741388
3770.81841431,0.01665493
3772.74722168,0.01800031
3774.67602905,0.01804713
3776.60483643,0.01810797
3778.53364380,0.01762706
3780.46245117,0.01686409
3782.39125854,0.01786754
3784.32006592,0.01757560
3786.24887329,0.01749335
3788.17768066,0.01784426
3790.10648804,0.01781753
3792.03529541,0.01765145
3793.96410278,0.01795788
3795.89291016,0.01701175
3797.82171753,0.01674113
3799.75052490,0.01763806
3801.67933228,0.01420175
3803.60813965,0.01635463
3805.53694702,0.01771741
3807.46575439,0.01466391
3809.39456177,0.01748635
3811.32336914,0.01714395
3813.25217651,0.01769992
3815.18098389,0.01614039
3817.10979126,0.01432553
3819.03859863,0.01768681
3820.96740601,0.01448605
3822.89621338,0.01522854
3824.82502075,0.01762443
3826.75382812,0.01615106
3828.68263550,0.01718190
3830.61144287,0.01647593
3832.54025024,0.01604576
3834.46905762,0.01632566
3836.39786499,0.01561624
3838.32667236,0.01416947
3840.25547974,0.01521530
3842.18428711,0.01645616
3844.11309448,0.01567124
3846.04190186,0.01684715
3847.97070923,0.01672344
3849.89951660,0.01672397
3851.82832397,0.01506975
3853.75713135,0.01139928
3855.68593872,0.01341606
3857.61474609,0.01679581
3859.54355347,0.01633127
3861.47236084,0.01618761
3863.40116821,0.01590521
3865.32997559,0.01471285
3867.25878296,0.01635031
3869.18759033,0.01504180
3871.11639770,0.01398451
3873.04520508,0.01646315
3874.97401245,0.01513519
3876.90281982,0.01626298
3878.83162720,0.01659552
3880.76043457,0.01436139
3882.68924194,0.01641250
3884.61804932,0.01538496
3886.54685669,0.01417662
3888.47566406,0.01642984
3890.40447144,0.01556174
3892.33327881,0.01465532
3894.26208618,0.01597747
3896.19089355,0.01624421
3898.11970093,0.01555914
3900.04850830,0.01474140
3901.97731567,0.01457628
3903.90612305,0.01450462
3905.83493042,0.01470156
3907.76373779,0.01600210
3909.69254517,0.01601515
3911.62135254,0.01585176
3913.55015991,0.01612348
3915.47896728,0.01558735
3917.40777466,0.01521462
3919.33658203,0.01510407
3921.26538940,0.01561674
3923.19419678,0.01561593
3925.12300415,0.01519674
3927.05181152,0.01540476
3928.98061890,0.01572499
3930.90942627,0.01544233
3932.83823364,0.01487803
3934.76704102,0.01545579
3936.69584839,0.01558067
3938.62465576,0.01539566
3940.55346313,0.01561200
3942.48227051,0.01506247
3944.41107788,0.01508089
3946.33988525,0.01541742
3948.26869263,0.01507580
3950.19750000,0.01503592
3952.12630737,0.01533603
3954.05511475,0.01533077
3955.98392212,0.01526503
3957.91272949,0.01517596
3959.84153687,0.01514532
3961.77034424,0.01510113
3963.69915161,0.01505525
3965.62795898,0.01525103
3967.55676636,0.01511005
3969.48557373,0.01504160
3971.41438110,0.01510141
3973.34318848,0.01507491
3975.27199585,0.01498427
3977.20080322,0.01490088
3979.12961060,0.01504141
3981.05841797,0.01488718
3982.98722534,0.01489183
3984.91603271,0.01494102
3986.84484009,0.01492812
3988.77364746,0.01489358
3990.70245483,0.01478825
3992.63126221,0.01480064
3994.56006958,0.01461795
3996.48887695,0.01480306
3998.41768433,0.01482756
4000.34649170,0.01473069
4002.27529907,0.01470122
4004.20410645,0.01459541
4006.13291382,0.01474428
4008.06172119,0.01453073
4009.99052856,0.01452558
4011.91933594,0.01452165
4013.84814331,0.01445676
4015.77695068,0.01453002
4017.70575806,0.01442605
4019.63456543,0.01445583
4021.56337280,0.01431778
4023.49218018,0.01437388
4025.42098755,0.01437018
4027.34979492,0.01424615
4029.27860229,0.01426567
4031.20740967,0.01420802
4033.13621704,0.01424002
4035.06502441,0.01423544
4036.99383179,0.01422879
4038.92263916,0.01415193
4040.85144653,0.01417695
4042.78025391,0.01405930
4044.70906128,0.01397470
4046.63786865,0.01409263
4048.56667603,0.01401346
4050.49548340,0.01396291
4052.42429077,0.01391077
4054.35309814,0.01399745
4056.28190552,0.01391575
4058.21071289,0.01393860
4060.13952026,0.01399158
4062.06832764,0.01383356
4063.99713501,0.01393024
4065.92594238,0.01379451
4067.85474976,0.01380894
4069.78355713,0.01377740
4071.71236450,0.01370560
4073.64117187,0.01376807
4075.56997925,0.01359868
4077.49878662,0.01367100
4079.42759399,0.01363380
4081.35640137,0.01367964
4083.28520874,0.01366331
4085.21401611,0.01347680
4087.14282349,0.01354939
4089.07163086,0.01353662
4091.00043823,0.01351928
4092.92924561,0.01341612
4094.85805298,0.01341634
4096.78686035,0.01347951
4098.71566772,0.01340752
4100.64447510,0.01339429
4102.57328247,0.01337805
4104.50208984,0.01332041
4106.43089722,0.01321126
4108.35970459,0.01325037
4110.28851196,0.01326614
4112.21731934,0.01315173
4114.14612671,0.01314318
4116.07493408,0.01314829
4118.00374145,0.01304867
4119.93254883,0.01305261
4121.86135620,0.01310432
4123.79016357,0.01300423
4125.71897095,0.01300203
4127.64777832,0.01302270
4129.57658569,0.01301095
4131.50539307,0.01296833
4133.43420044,0.01287494
4135.36300781,0.01285954
4137.29181519,0.01287736
4139.22062256,0.01285317
4141.14942993,0.01279334
4143.07823730,0.01280743
4145.00704468,0.01272792
4146.93585205,0.01272666
4148.86465942,0.01275344
4150.79346680,0.01268102
4152.72227417,0.01274554
4154.65108154,0.01268532
4156.57988892,0.01265206
4158.50869629,0.01258924
4160.43750366,0.01247228
4162.36631103,0.01253828
4164.29511841,0.01252145
4166.22392578,0.01249950
4168.15273315,0.01248078
4170.08154053,0.01241188
4172.01034790,0.01243382
4173.93915527,0.01244499
4175.86796265,0.01238307
4177.79677002,0.01235399
4179.72557739,0.01233617
4181.65438477,0.01234600
4183.58319214,0.01228642
4185.51199951,0.01220743
4187.44080688,0.01224423
4189.36961426,0.01219980
4191.29842163,0.01218761
4193.22722900,0.01216470
4195.15603638,0.01217376
4197.08484375,0.01212767
4199.01365112,0.01203731
4200.94245850,0.01213406
4202.87126587,0.01208074
4204.80007324,0.01207198
4206.72888062,0.01203227
4208.65768799,0.01202260
4210.58649536,0.01204577
4212.51530273,0.01193357
4214.44411011,0.01199496
4216.37291748,0.01187440
4218.30172485,0.01181920
4220.23053223,0.01176649
4222.15933960,0.01171466
4224.08814697,0.01187992
4226.01695435,0.01179758
4227.94576172,0.01170327
4229.87456909,0.01166556
4231.80337646,0.01172591
4233.73218384,0.01168670
4235.66099121,0.01161792
4237.58979858,0.01168289
4239.51860596,0.01163305
4241.44741333,0.01166886
4243.37622070,0.01158896
4245.30502808,0.01153119
4247.23383545,0.01156626
4249.16264282,0.01155874
4251.09145020,0.01151808
4253.02025757,0.01142483
4254.94906494,0.01143170
4256.87787231,0.01139173
4258.80667969,0.01138263
4260.73548706,0.01135886
4262.66429443,0.01131414
4264.59310181,0.01133760
4266.52190918,0.01136726
4268.45071655,0.01128482
4270.37952393,0.01122261
4272.30833130,0.01127851
4274.23713867,0.01117205
4276.16594604,0.01118913
4278.09475342,0.01116506
4280.02356079,0.01114112
4281.95236816,0.01117094
4283.88117554,0.01105727
4285.80998291,0.01111834
4287.73879028,0.01107740
4289.66759766,0.01106987
4291.59640503,0.01104407
4293.52521240,0.01099245
4295.45401978,0.01098064
4297.38282715,0.01088141
4299.31163452,0.01099214
4301.24044189,0.01093652
4303.16924927,0.01086910
4305.09805664,0.01089722
4307.02686401,0.01085974
4308.95567139,0.01083405
4310.88447876,0.01080136
4312.81328613,0.01083282
4314.74209351,0.01078543
4316.67090088,0.01076423
4318.59970825,0.01066149
4320.52851562,0.01069545
4322.45732300,0.01074034
4324.38613037,0.01062477
4326.31493774,0.01066940
4328.24374512,0.01061012
4330.17255249,0.01060126
4332.10135986,0.01060006
4334.03016724,0.01064285
4335.95897461,0.01059477
4337.88778198,0.01041689
4339.81658936,0.01049201
4341.74539673,0.01046333
4343.67420410,0.01046194
4345.60301147,0.01043306
4347.53181885,0.01039412
4349.46062622,0.01042666
4351.38943359,0.01031721
4353.31824097,0.01033844
4355.24704834,0.01029298
4357.17585571,0.01023227
4359.10466309,0.01025857
4361.03347046,0.01016297
4362.96227783,0.01016969
4364.89108520,0.01024878
4366.81989258,0.01011626
4368.74869995,0.01006994
4370.67750732,0.01015386
4372.60631470,0.01009584
4374.53512207,0.01015401
4376.46392944,0.01015929
4378.39273682,0.01008156
4380.32154419,0.01001918
4382.25035156,0.00997559
4384.17915894,0.01006362
4386.10796631,0.00993881
4388.03677368,0.00989669
4389.96558105,0.01001027
4391.89438843,0.00989903
4393.82319580,0.00986980
4395.75200317,0.00989878
4397.68081055,0.00980009
4399.60961792,0.00985533
4401.53842529,0.00990108
4403.46723267,0.00977341
4405.39604004,0.00979036
4407.32484741,0.00978684
4409.25365478,0.00973559
4411.18246216,0.00971109
4413.11126953,0.00972257
4415.04007690,0.00973523
4416.96888428,0.00955643
4418.89769165,0.00958975
4420.82649902,0.00969083
4422.75530640,0.00960154
4424.68411377,0.00957613
4426.61292114,0.00956124
4428.54172852,0.00954331
4430.47053589,0.00954466
4432.39934326,0.00954881
4434.32815063,0.00945345
4436.25695801,0.00938122
4438.18576538,0.00937675
4440.11457275,0.00936203
4442.04338013,0.00939762
4443.97218750,0.00938630
4445.90099487,0.00937655
4447.82980225,0.00933354
4449.75860962,0.00932490
4451.68741699,0.00938629
4453.61622437,0.00932211
4455.54503174,0.00924095
4457.47383911,0.00921999
4459.40264648,0.00923827
4461.33145386,0.00923716
4463.26026123,0.00913839
4465.18906860,0.00912190
4467.11787598,0.00919236
4469.04668335,0.00916775
4470.97549072,0.00911805
4472.90429810,0.00908857
4474.83310547,0.00909608
4476.76191284,0.00906476
4478.69072021,0.00901804
4480.61952759,0.00901480
4482.54833496,0.00895293
4484.47714233,0.00892614
4486.40594971,0.00888448
4488.33475708,0.00896158
4490.26356445,0.00900797
4492.19237183,0.00888430
4494.12117920,0.00885594
4496.04998657,0.00876642
4497.97879395,0.00878726
4499.90760132,0.00883460
4501.83640869,0.00885232
4503.76521606,0.00882265
4505.69402344,0.00867047
4507.62283081,0.00878031
4509.55163818,0.00878085
4511.48044556,0.00867663
4513.40925293,0.00868008
4515.33806030,0.00867336
4517.26686768,0.00867180
4519.19567505,0.00861424
4521.12448242,0.00861408
4523.05328979,0.00858865
4524.98209717,0.00859265
4526.91090454,0.00855687
4528.83971191,0.00855432
4530.76851929,0.00853934
4532.69732666,0.00845276
4534.62613403,0.00858098
4536.55494141,0.00850469
4538.48374878,0.00836353
4540.41255615,0.00841289
4542.34136353,0.00842390
4544.27017090,0.00839893
4546.19897827,0.00836021
4548.12778564,0.00833950
4550.05659302,0.00830484
4551.98540039,0.00834396
4553.91420776,0.00830629
4555.84301514,0.00824985
4557.77182251,0.00826297
4559.70062988,0.00830888
4561.62943726,0.00832380
4563.55824463,0.00817086
4565.48705200,0.00815236
4567.41585937,0.00815931
4569.34466675,0.00815803
4571.27347412,0.00815309
4573.20228149,0.00805528
4575.13108887,0.00804225
4577.05989624,0.00806305
4578.98870361,0.00812944
4580.91751099,0.00805343
4582.84631836,0.00798333
4584.77512573,0.00803054
4586.70393311,0.00798829
4588.63274048,0.00801156
4590.56154785,0.00800435
4592.49035522,0.00793961
4594.41916260,0.00799063
4596.34796997,0.00794970
4598.27677734,0.00780615
4600.20558472,0.00785279
4602.13439209,0.00786313
4604.06319946,0.00784111
4605.99200684,0.00782121
4607.92081421,0.00774970
4609.84962158,0.00783571
4611.77842895,0.00778996
4613.70723633,0.00774712
4615.63604370,0.00772592
4617.56485107,0.00765484
4619.49365845,0.00774031
4621.42246582,0.00773079
4623.35127319,0.00766463
4625.28008057,0.00763129
4627.20888794,0.00764180
4629.13769531,0.00763929
4631.06650269,0.00762743
4632.99531006,0.00760291
4634.92411743,0.00759103
4636.85292480,0.00761029
4638.78173218,0.00756413
4640.71053955,0.00759009
4642.63934692,0.00750974
4644.56815430,0.00752803
4646.49696167,0.00755753
4648.42576904,0.00744783
4650.35457642,0.00746600
4652.28338379,0.00740511
4654.21219116,0.00745319
4656.14099853,0.00738032
4658.06980591,0.00725677
4659.99861328,0.00734625
4661.92742065,0.00734580
4663.85622803,0.00733861
4665.78503540,0.00735167
4667.71384277,0.00736016
4669.64265015,0.00725202
4671.57145752,0.00727244
4673.50026489,0.00728922
4675.42907227,0.00718538
4677.35787964,0.00723645
4679.28668701,0.00722534
4681.21549438,0.00716136
4683.14430176,0.00710625
4685.07310913,0.00725021
4687.00191650,0.00717727
4688.93072388,0.00702087
4690.85953125,0.00721444
4692.78833862,0.00712345
4694.71714600,0.00703927
4696.64595337,0.00708043
4698.57476074,0.00704375
4700.50356812,0.00702782
4702.43237549,0.00702055
4704.36118286,0.00701297
4706.28999023,0.00698464
4708.21879761,0.00701324
4710.14760498,0.00699035
4712.07641235,0.00706104
4714.00521973,0.00697047
4715.93402710,0.00687732
4717.86283447,0.00697519
4719.79164185,0.00689487
4721.72044922,0.00687110
4723.64925659,0.00685232
4725.57806396,0.00690546
4727.50687134,0.00685287
4729.43567871,0.00677750
4731.36448608,0.00684373
4733.29329346,0.00670351
4735.22210083,0.00674829
4737.15090820,0.00681370
4739.07971558,0.00673309
4741.00852295,0.00669909
4742.93733032,0.00670784
4744.86613770,0.00672389
4746.79494507,0.00666466
4748.72375244,0.00668533
4750.65255981,0.00667777
4752.58136719,0.00667598
4754.51017456,0.00662416
4756.43898193,0.00659813
4758.36778931,0.00664434
4760.29659668,0.00655504
4762.22540405,0.00654884
4764.15421143,0.00654387
4766.08301880,0.00655098
4768.01182617,0.00654454
4769.94063354,0.00647474
4771.86944092,0.00649461
4773.79824829,0.00645074
4775.72705566,0.00642883
4777.65586304,0.00644862
4779.58467041,0.00641067
4781.51347778,0.00639315
4783.44228516,0.00638456
4785.37109253,0.00640801
4787.29989990,0.00642077
4789.22870728,0.00630890
4791.15751465,0.00629031
4793.08632202,0.00635573
4795.01512939,0.00632259
4796.94393677,0.00630357
4798.87274414,0.00625625
4800.80155151,0.00628324
4802.73035889,0.00629009
4804.65916626,0.00621418
4806.58797363,0.00621503
4808.51678101,0.00619253
4810.44558838,0.00621728
4812.37439575,0.00615909
4814.30320312,0.00609361
4816.23201050,0.00619335
4818.16081787,0.00617842
4820.08962524,0.00608089
4822.01843262,0.00615450
4823.94723999,0.00617043
4825.87604736,0.00604392
4827.80485474,0.00611252
4829.73366211,0.00607449
4831.66246948,0.00601762
4833.59127686,0.00608304
4835.52008423,0.00597681
4837.44889160,0.00600882
4839.37769897,0.00598703
4841.30650635,0.00590572
4843.23531372,0.00599368
4845.16412109,0.00595753
4847.09292847,0.00586165
4849.02173584,0.00588261
4850.95054321,0.00594261
4852.87935059,0.00590658
4854.80815796,0.00589546
4856.73696533,0.00586732
4858.66577270,0.00584704
4860.59458008,0.00590289
4862.52338745,0.00586233
4864.45219482,0.00584445
4866.38100220,0.00581317
4868.30980957,0.00579218
4870.23861694,0.00581965
4872.16742432,0.00580472
4874.09623169,0.00578539
4876.02503906,0.00574700
4877.95384644,0.00575629
4879.88265381,0.00576179
4881.81146118,0.00572451
4883.74026855,0.00561997
4885.66907593,0.00559251
4887.59788330,0.00563907
4889.52669067,0.00555211
4891.45549805,0.00558817
4893.38430542,0.00562921
4895.31311279,0.00560187
4897.24192017,0.00564297
4899.17072754,0.00558079
4901.09953491,0.00552184
4903.02834228,0.00554548
4904.95714966,0.00558894
4906.88595703,0.00549320
4908.81476440,0.00546575
4910.74357178,0.00557560
4912.67237915,0.00546478
4914.60118652,0.00543061
4916.52999390,0.00548543
4918.45880127,0.00546582
4920.38760864,0.00545735
4922.31641602,0.00545514
4924.24522339,0.00549721
4926.17403076,0.00542056
4928.10283813,0.00536727
4930.03164551,0.00536684
4931.96045288,0.00538000
4933.88926025,0.00541300
4935.81806763,0.00537290
4937.74687500,0.00536455
4939.67568237,0.00528480
4941.60448975,0.00528608
4943.53329712,0.00530737
4945.46210449,0.00528891
4947.39091187,0.00527065
4949.31971924,0.00521005
4951.24852661,0.00533548
4953.17733398,0.00525683
4955.10614136,0.00518815
4957.03494873,0.00522086
4958.96375610,0.00509693
4960.89256348,0.00520198
4962.82137085,0.00521083
4964.75017822,0.00516440
4966.67898560,0.00518513
4968.60779297,0.00514072
4970.53660034,0.00516863
4972.46540771,0.00513707
4974.39421509,0.00507085
4976.32302246,0.00504791
4978.25182983,0.00507968
4980.18063721,0.00504621
4982.10944458,0.00507757
4984.03825195,0.00508036
4985.96705933,0.00496407
4987.89586670,0.00503140
4989.82467407,0.00504529
4991.75348145,0.00500676
4993.68228882,0.00497250
4995.61109619,0.00494255
4997.53990356,0.00498516
4999.46871094,0.00495707
5001.39751831,0.00493852
5003.32632568,0.00492411
5005.25513306,0.00487499
5007.18394043,0.00485514
5009.11274780,0.00493433
5011.04155518,0.00494786
5012.97036255,0.00487254
5014.89916992,0.00483617
5016.82797729,0.00479620
5018.75678467,0.00479947
5020.68559204,0.00480734
5022.61439941,0.00481328
5024.54320679,0.00474852
5026.47201416,0.00476702
5028.40082153,0.00482700
5030.32962891,0.00477098
5032.25843628,0.00479346
5034.18724365,0.00473982
5036.11605103,0.00472777
5038.04485840,0.00478358
5039.97366577,0.00475905
5041.90247314,0.00477512
5043.83128052,0.00472686
5045.76008789,0.00464491
5047.68889526,0.00470362
5049.61770264,0.00471426
5051.54651001,0.00456587
5053.47531738,0.00459178
5055.40412476,0.00463602
5057.33293213,0.00462416
5059.26173950,0.00457896
5061.19054687,0.00452014
5063.11935425,0.00463713
5065.04816162,0.00455794
5066.97696899,0.00455510
5068.90577637,0.00458310
5070.83458374,0.00450629
5072.76339111,0.00458362
5074.69219849,0.00452691
5076.62100586,0.00458608
5078.54981323,0.00455079
5080.47862061,0.00444876
5082.40742798,0.00448450
5084.33623535,0.00444761
5086.26504272,0.00455109
5088.19385010,0.00450507
5090.12265747,0.00447122
5092.05146484,0.00452874
5093.98027222,0.00446441
5095.90907959,0.00450182
5097.83788696,0.00441852
5099.76669434,0.00428622
5101.69550171,0.00432745
5103.62430908,0.00436922
5105.55311645,0.00431593
5107.48192383,0.00428497
5109.41073120,0.00436700
5111.33953857,0.00432140
5113.26834595,0.00420616
5115.19715332,0.00430968
5117.12596069,0.00426769
5119.05476807,0.00419544
5120.98357544,0.00429482
5122.91238281,0.00419246
5124.84119019,0.00422982
5126.76999756,0.00423707
5128.69880493,0.00414040
5130.62761230,0.00424360
5132.55641968,0.00421625
5134.48522705,0.00424010
5136.41403442,0.00422889
5138.34284180,0.00416792
5140.27164917,0.00421967
5142.20045654,0.00415488
5144.12926392,0.00411621
5146.05807129,0.00416706
5147.98687866,0.00415972
5149.91568603,0.00409069
5151.84449341,0.00412597
5153.77330078,0.00413942
5155.70210815,0.00408058
5157.63091553,0.00403671
5159.55972290,0.00403662
5161.48853027,0.00409240
5163.41733765,0.00400786
5165.34614502,0.00401497
5167.27495239,0.00406090
5169.20375977,0.00399624
5171.13256714,0.00400593
5173.06137451,0.00400845
5174.99018188,0.00396339
5176.91898926,0.00394075
5178.84779663,0.00401507
5180.77660400,0.00397963
5182.70541138,0.00391639
5184.63421875,0.00395466
5186.56302612,0.00395094
5188.49183350,0.00393987
5190.42064087,0.00386253
5192.34944824,0.00383855
5194.27825562,0.00388476
5196.20706299,0.00383068
5198.13587036,0.00379120
5200.06467773,0.00390382
5201.99348511,0.00391475
5203.92229248,0.00387338
5205.85109985,0.00381872
5207.77990723,0.00364409
5209.70871460,0.00377532
5211.63752197,0.00385424
5213.56632935,0.00382122
5215.49513672,0.00386469
5217.42394409,0.00375355
5219.35275146,0.00378201
5221.28155884,0.00379208
5223.21036621,0.00377875
5225.13917358,0.00365863
5227.06798096,0.00359645
5228.99678833,0.00376427
5230.92559570,0.00369069
5232.85440308,0.00370103
5234.78321045,0.00375142
5236.71201782,0.00372367
5238.64082520,0.00371813
5240.56963257,0.00372402
5242.49843994,0.00373700
5244.42724731,0.00359787
5246.35605469,0.00364295
5248.28486206,0.00359244
5250.21366943,0.00354171
5252.14247681,0.00372331
5254.07128418,0.00359838
5256.00009155,0.00352447
5257.92889893,0.00360810
5259.85770630,0.00360686
5261.78651367,0.00359714
5263.71532104,0.00355142
5265.64412842,0.00356535
5267.57293579,0.00359437
5269.50174316,0.00355528
5271.43055054,0.00352146
5273.35935791,0.00354957
5275.28816528,0.00355016
5277.21697266,0.00354652
5279.14578003,0.00353346
5281.07458740,0.00344982
5283.00339478,0.00350338
5284.93220215,0.00350339
5286.86100952,0.00339340
5288.78981689,0.00346754
5290.71862427,0.00345111
5292.64743164,0.00340722
5294.57623901,0.00348306
5296.50504639,0.00343810
5298.43385376,0.00341792
5300.36266113,0.00343114
5302.29146851,0.00343242
5304.22027588,0.00344599
5306.14908325,0.00338926
5308.07789062,0.00334221
5310.00669800,0.00336531
5311.93550537,0.00339246
5313.86431274,0.00335704
5315.79312012,0.00334093
5317.72192749,0.00332421
5319.65073486,0.00333365
5321.57954224,0.00337590
5323.50834961,0.00338287
5325.43715698,0.00332536
5327.36596436,0.00322665
5329.29477173,0.00332064
5331.22357910,0.00331691
5333.15238647,0.00325198
5335.08119385,0.00333533
5337.01000122,0.00319922
5338.93880859,0.00310445
5340.86761597,0.00321122
5342.79642334,0.00326716
5344.72523071,0.00318223
5346.65403809,0.00310450
5348.58284546,0.00316623
5350.51165283,0.00323506
5352.44046020,0.00318141
5354.36926758,0.00308592
5356.29807495,0.00315648
5358.22688232,0.00312655
5360.15568970,0.00314274
5362.08449707,0.00325851
5364.01330444,0.00314612
5365.94211182,0.00311043
5367.87091919,0.00310455
5369.79972656,0.00312908
5371.72853394,0.00315830
5373.65734131,0.00313307
5375.58614868,0.00313965
5377.51495605,0.00302172
5379.44376343,0.00305028
5381.37257080,0.00317963
5383.30137817,0.00315712
5385.23018555,0.00303192
5387.15899292,0.00296195
5389.08780029,0.00302239
5391.01660767,0.00304438
5392.94541504,0.00301595
5394.87422241,0.00298738
5396.80302978,0.00300530
5398.73183716,0.00300246
5400.66064453,0.00299844
5402.58945190,0.00300197
5404.51825928,0.00301335
5406.44706665,0.00304162
5408.37587402,0.00298191
5410.30468140,0.00297331
5412.23348877,0.00293020
5414.16229614,0.00291953
5416.09110352,0.00300546
5418.01991089,0.00297114
5419.94871826,0.00291141
5421.87752563,0.00291359
5423.80633301,0.00295419
5425.73514038,0.00292712
5427.66394775,0.00285971
5429.59275513,0.00277780
5431.52156250,0.00286077
5433.45036987,0.00299313
5435.37917725,0.00282769
5437.30798462,0.00281463
5439.23679199,0.00288686
5441.16559936,0.00280818
5443.09440674,0.00282356
5445.02321411,0.00280263
5446.95202148,0.00276434
5448.88082886,0.00280274
5450.80963623,0.00281426
5452.73844360,0.00281514
5454.66725098,0.00282540
5456.59605835,0.00278240
5458.52486572,0.00279544
5460.45367310,0.00277068
5462.38248047,0.00268646
5464.31128784,0.00272471
5466.24009521,0.00273110
5468.16890259,0.00273442
5470.09770996,0.00274465
5472.02651733,0.00280085
5473.95532471,0.00278548
5475.88413208,0.00262113
5477.81293945,0.00271565
5479.74174683,0.00275102
5481.67055420,0.00268950
5483.59936157,0.00276766
5485.52816895,0.00266394
5487.45697632,0.00267123
5489.38578369,0.00276395
5491.31459106,0.00266437
5493.24339844,0.00261124
5495.17220581,0.00259406
5497.10101318,0.00264827
5499.02982056,0.00267729
5500.95862793,0.00263027
5502.88743530,0.00267722
5504.81624268,0.00267060
5506.74505005,0.00264883
5508.67385742,0.00259768
5510.60266479,0.00261317
5512.53147217,0.00269050
5514.46027954,0.00256308
5516.38908691,0.00253833
5518.31789429,0.00259288
5520.24670166,0.00261614
5522.17550903,0.00259685
5524.10431641,0.00253993
5526.03312378,0.00260285
5527.96193115,0.00255899
5529.89073853,0.00256253
5531.81954590,0.00256100
5533.74835327,0.00251616
5535.67716064,0.00258129
5537.60596802,0.00257850
5539.53477539,0.00256369
5541.46358276,0.00246121
5543.39239014,0.00246857
5545.32119751,0.00247058
5547.25000488,0.00242522
5549.17881226,0.00250422
5551.10761963,0.00239691
5553.03642700,0.00242824
5554.96523437,0.00248057
5556.89404175,0.00242665
5558.82284912,0.00246850
5560.75165649,0.00242251
5562.68046387,0.00243024
5564.60927124,0.00243622
5566.53807861,0.00243051
5568.46688599,0.00242749
5570.39569336,0.00245014
5572.32450073,0.00246425
5574.25330811,0.00240189
5576.18211548,0.00241302
5578.11092285,0.00235247
5580.03973022,0.00239972
5581.96853760,0.00247302
5583.89734497,0.00241476
5585.82615234,0.00241367
5587.75495972,0.00234495
5589.68376709,0.00237209
5591.61257446,0.00238976
5593.54138184,0.00231360
5595.47018921,0.00236770
5597.39899658,0.00239500
5599.32780395,0.00234690
5601.25661133,0.00232977
5603.18541870,0.00236222
5605.11422607,0.00235144
5607.04303345,0.00233476
5608.97184082,0.00231055
5610.90064819,0.00226750
5612.82945557,0.00230023
5614.75826294,0.00229864
5616.68707031,0.00228167
5618.61587769,0.00225101
5620.54468506,0.00225461
5622.47349243,0.00231316
5624.40229980,0.00225740
5626.33110718,0.00219569
5628.25991455,0.00219562
5630.18872192,0.00227564
5632.11752930,0.00230174
5634.04633667,0.00218121
5635.97514404,0.00220032
5637.90395142,0.00222434
5639.83275879,0.00217095
5641.76156616,0.00222101
5643.69037353,0.00220046
5645.61918091,0.00215731
5647.54798828,0.00216035
5649.47679565,0.00217557
5651.40560303,0.00222573
5653.33441040,0.00212885
5655.26321777,0.00214056
5657.19202515,0.00223491
5659.12083252,0.00214808
5661.04963989,0.00216098
5662.97844727,0.00213024
5664.90725464,0.00215229
5666.83606201,0.00222477
5668.76486938,0.00212586
5670.69367676,0.00212840
5672.62248413,0.00209681
5674.55129150,0.00213978
5676.48009888,0.00216638
5678.40890625,0.00208192
5680.33771362,0.00212532
5682.26652100,0.00210955
5684.19532837,0.00213867
5686.12413574,0.00208056
5688.05294311,0.00205757
5689.98175049,0.00208345
5691.91055786,0.00203712
5693.83936523,0.00214495
5695.76817261,0.00201570
5697.69697998,0.00198642
5699.62578735,0.00209270
5701.55459473,0.00204429
5703.48340210,0.00204243
5705.41220947,0.00196638
5707.34101685,0.00206715
5709.26982422,0.00203955
5711.19863159,0.00193661
5713.12743896,0.00204978
5715.05624634,0.00199442
5716.98505371,0.00194640
5718.91386108,0.00195834
5720.84266846,0.00201585
5722.77147583,0.00202738
5724.70028320,0.00192972
5726.62909058,0.00191720
5728.55789795,0.00193043
5730.48670532,0.00197270
5732.41551270,0.00201218
5734.34432007,0.00196025
5736.27312744,0.00188989
5738.20193481,0.00190624
5740.13074219,0.00189589
5742.05954956,0.00192387
5743.98835693,0.00195338
5745.91716431,0.00187544
5747.84597168,0.00192085
5749.77477905,0.00197872
5751.70358643,0.00194217
5753.63239380,0.00182183
5755.56120117,0.00184703
5757.49000854,0.00193919
5759.41881592,0.00185087
5761.34762329,0.00189000
5763.27643066,0.00186451
5765.20523804,0.00181521
5767.13404541,0.00184608
5769.06285278,0.00181926
5770.99166016,0.00186806
5772.92046753,0.00182942
5774.84927490,0.00177731
5776.77808228,0.00181618
5778.70688965,0.00189076
5780.63569702,0.00185909
5782.56450439,0.00177550
5784.49331177,0.00180025
5786.42211914,0.00179171
5788.35092651,0.00184927
5790.27973389,0.00182952
5792.20854126,0.00174559
5794.13734863,0.00179111
5796.06615601,0.00178621
5797.99496338,0.00174413
5799.92377075,0.00173043
5801.85257812,0.00178130
5803.78138550,0.00180547
5805.71019287,0.00177690
5807.63900024,0.00176934
5809.56780762,0.00175037
5811.49661499,0.00177060
5813.42542236,0.00174372
5815.35422974,0.00166913
5817.28303711,0.00171666
5819.21184448,0.00175976
5821.14065186,0.00169100
5823.06945923,0.00167059
5824.99826660,0.00168360
5826.92707397,0.00167779
5828.85588135,0.00166729
5830.78468872,0.00166438
5832.71349609,0.00167905
5834.64230347,0.00168474
5836.57111084,0.00168706
5838.49991821,0.00158987
5840.42872559,0.00158370
5842.35753296,0.00164354
5844.28634033,0.00161768
5846.21514770,0.00168820
5848.14395508,0.00165101
5850.07276245,0.00162847
5852.00156982,0.00165279
5853.93037720,0.00160498
5855.85918457,0.00167572
5857.78799194,0.00161210
5859.71679932,0.00160798
5861.64560669,0.00170460
5863.57441406,0.00166148
5865.50322144,0.00168592
5867.43202881,0.00159798
5869.36083618,0.00157366
5871.28964355,0.00168889
5873.21845093,0.00158625
5875.14725830,0.00155778
5877.07606567,0.00159859
5879.00487305,0.00156091
5880.93368042,0.00159162
5882.86248779,0.00156711
5884.79129517,0.00157509
5886.72010254,0.00161735
5888.64890991,0.00158652
5890.57771728,0.00157990
5892.50652466,0.00154933
5894.43533203,0.00153979
5896.36413940,0.00155694
5898.29294678,0.00157695
5900.22175415,0.00155248
5902.15056152,0.00145846
5904.07936890,0.00150961
5906.00817627,0.00153576
5907.93698364,0.00148369
5909.86579102,0.00156102
5911.79459839,0.00154078
5913.72340576,0.00146700
5915.65221313,0.00152061
5917.58102051,0.00153061
5919.50982788,0.00148050
5921.43863525,0.00147072
5923.36744263,0.00144938
5925.29625000,0.00138811
5927.22505737,0.00145325
5929.15386475,0.00153529
5931.08267212,0.00143560
5933.01147949,0.00141884
5934.94028686,0.00149942
5936.86909424,0.00147773
5938.79790161,0.00140851
5940.72670898,0.00140542
5942.65551636,0.00142752
5944.58432373,0.00141795
5946.51313110,0.00149332
5948.44193848,0.00145464
5950.37074585,0.00140938
5952.29955322,0.00152400
5954.22836060,0.00147878
5956.15716797,0.00146067
5958.08597534,0.00144523
5960.01478271,0.00133770
5961.94359009,0.00138715
5963.87239746,0.00143912
5965.80120483,0.00139680
5967.73001221,0.00136778
5969.65881958,0.00138849
5971.58762695,0.00135209
5973.51643433,0.00133484
5975.44524170,0.00142612
5977.37404907,0.00142383
5979.30285645,0.00134999
5981.23166382,0.00135778
5983.16047119,0.00141207
5985.08927856,0.00140558
5987.01808594,0.00138226
5988.94689331,0.00136336
5990.87570068,0.00132874
5992.80450806,0.00133808
5994.73331543,0.00133892
5996.66212280,0.00128074
5998.59093018,0.00129044
6000.51973755,0.00136618
