399.26312622,0.00021439
401.19193359,0.00058279
403.12074097,0.00038119
405.04954834,0.00039643
406.97835571,0.00079632
408.90716309,0.00023458
410.83597046,0.00051091
412.76477783,0.00090207
414.69358521,0.00037530
416.62239258,0.00051525
418.55119995,0.00038011
420.48000732,0.00026783
422.40881470,0.00074134
424.33762207,0.00113884
426.26642944,0.00089152
428.19523682,0.00032300
430.12404419,0.00037215
432.05285156,0.00033660
433.98165894,0.00030176
435.91046631,0.00047419
437.83927368,0.00038510
439.76808105,0.00050046
441.69688843,0.00047588
443.62569580,0.00054013
445.55450317,0.00093795
447.48331055,0.00079024
449.41211792,0.00073703
451.34092529,0.00056473
453.26973267,0.00030946
455.19854004,0.00048092
457.12734741,0.00043340
459.05615479,0.00049042
460.98496216,0.00043040
462.91376953,0.00007965
464.84257690,0.00001628
466.77138428,0.00037476
468.70019165,0.00026859
470.62899902,0.00007719
472.55780640,0.00024884
474.48661377,-0.00020710
476.41542114,-0.00000625
478.34422852,0.00027158
480.27303589,-0.00012495
482.20184326,0.00000058
484.13065063,0.00022615
486.05945801,0.00028232
487.98826538,0.00038924
489.91707275,0.00051735
491.84588013,0.00058424
493.77468750,0.00055381
495.70349487,0.00039982
497.63230225,0.00026095
499.56110962,0.00008385
501.48991699,-0.00015387
503.41872437,-0.00029178
505.34753174,-0.00027909
507.27633911,0.00030854
509.20514648,0.00023416
511.13395386,-0.00019638
513.06276123,0.00029549
514.99156860,0.00025015
516.92037598,0.00009923
518.84918335,0.00020524
520.77799072,0.00026435
522.70679810,0.00045687
524.63560547,0.00046620
526.56441284,0.00021957
528.49322021,-0.00008337
530.42202759,0.00048072
532.35083496,0.00043713
534.27964233,0.00014624
536.20844971,0.00047225
538.13725708,0.00007391
540.06606445,0.00023215
541.99487183,0.00039256
543.92367920,0.00017207
545.85248657,0.00036736
547.78129395,0.00010518
549.71010132,0.00005361
551.63890869,0.00038722
553.56771606,0.00013808
555.49652344,-0.00025655
557.42533081,0.00002047
559.35413818,0.00032064
561.28294556,0.00043044
563.21175293,0.00039637
565.14056030,0.00017211
567.06936768,-0.00001627
568.99817505,0.00002189
570.92698242,0.00019037
572.85578979,0.00032953
574.78459717,0.00028284
576.71340454,-0.00004132
578.64221191,0.00012167
580.57101929,0.00020236
582.49982666,0.00013566
584.42863403,0.00029499
586.35744141,0.00022531
588.28624878,0.00016883
590.21505615,0.00030987
592.14386353,0.00037226
594.07267090,0.00031771
596.00147827,0.00030673
597.93028564,0.00026931
599.85909302,0.00004366
601.78790039,0.00005364
603.71670776,0.00030412
605.64551514,0.00026909
607.57432251,0.00015192
609.50312988,0.00006714
611.43193726,0.00032841
613.36074463,0.00028180
615.28955200,0.00013402
617.21835938,0.00025506
619.14716675,-0.00000434
621.07597412,0.00000098
623.00478149,0.00015226
624.93358887,0.00035808
626.86239624,-0.00000339
628.79120361,-0.00028903
630.72001099,0.00020535
632.64881836,0.00025181
634.57762573,0.00053032
636.50643311,0.00064547
638.43524048,0.00045205
640.36404785,0.00062994
642.29285522,0.00052690
644.22166260,0.00050419
646.15046997,0.00078319
648.07927734,0.00065446
650.00808472,0.00089438
651.93689209,0.00116963
653.86569946,0.00064689
655.79450684,0.00105493
657.72331421,0.00135139
659.65212158,0.00099427
661.58092896,0.00116081
663.50973633,0.00092360
665.43854370,0.00090621
667.36735107,0.00105501
669.29615845,0.00100794
671.22496582,0.00119390
673.15377319,0.00131645
675.08258057,0.00138045
677.01138794,0.00134596
678.94019531,0.00157551
680.86900269,0.00166008
682.79781006,0.00125091
684.72661743,0.00130268
686.65542480,0.00147313
688.58423218,0.00107663
690.51303955,0.00146466
692.44184692,0.00189306
694.37065430,0.00139636
696.29946167,0.00168465
698.22826904,0.00200347
700.15707642,0.00192699
702.08588379,0.00185331
704.01469116,0.00168830
705.94349854,0.00168419
707.87230591,0.00141325
709.80111328,0.00129621
711.72992065,0.00093466
713.65872803,0.00043997
715.58753540,0.00039245
717.51634277,0.00022577
719.44515015,-0.00005828
721.37395752,0.00009978
723.30276489,0.00014443
725.23157227,0.00001484
727.16037964,0.00046461
729.08918701,0.00009799
731.01799438,0.00013592
732.94680176,0.00040193
734.87560913,0.00003117
736.80441650,0.00040175
738.73322388,0.00018431
740.66203125,0.00012484
742.59083862,0.00018870
744.51964600,-0.00009878
746.44845337,-0.00003348
748.37726074,0.00004268
750.30606812,0.00039012
752.23487549,0.00024549
754.16368286,0.00016042
756.09249023,0.00034963
758.02129761,0.00026074
759.95010498,0.00043487
761.87891235,0.00039381
763.80771973,0.00005733
765.73652710,0.00001016
767.66533447,0.00048678
769.59414185,0.00034372
771.52294922,0.00000388
773.45175659,0.00033888
775.38056396,0.00035544
777.30937134,0.00038384
779.23817871,0.00030918
781.16698608,0.00032334
783.09579346,0.00026507
785.02460083,-0.00005286
786.95340820,0.00021800
788.88221558,0.00023185
790.81102295,0.00023290
792.73983032,0.00026751
794.66863770,0.00011767
796.59744507,0.00030268
798.52625244,0.00044007
800.45505981,0.00053541
802.38386719,0.00043590
804.31267456,0.00036659
806.24148193,0.00031279
808.17028931,0.00024306
810.09909668,0.00048037
812.02790405,0.00061151
813.95671143,0.00050110
815.88551880,0.00029796
817.81432617,0.00025242
819.74313354,0.00010568
821.67194092,0.00003562
823.60074829,0.00029447
825.52955566,0.00043467
827.45836304,0.00046620
829.38717041,0.00030704
831.31597778,0.00043113
833.24478516,0.00071605
835.17359253,0.00066788
837.10239990,0.00074997
839.03120728,0.00067541
840.96001465,0.00054945
842.88882202,0.00055658
844.81762939,0.00034412
846.74643677,0.00045771
848.67524414,0.00059369
850.60405151,0.00045179
852.53285889,0.00038103
854.46166626,0.00040671
856.39047363,0.00048814
858.31928101,0.00028771
860.24808838,0.00028814
862.17689575,0.00045608
864.10570313,0.00047475
866.03451050,0.00038659
867.96331787,0.00014829
869.89212524,0.00021375
871.82093262,0.00025864
873.74973999,0.00038805
875.67854736,0.00054703
877.60735474,0.00062045
879.53616211,0.00077720
881.46496948,0.00045744
883.39377686,0.00012316
885.32258423,0.00037600
887.25139160,0.00060818
889.18019897,0.00035346
891.10900635,0.00041999
893.03781372,0.00048057
894.96662109,0.00018228
896.89542847,0.00027367
898.82423584,0.00025908
900.75304321,0.00038496
902.68185059,0.00050795
904.61065796,0.00040712
906.53946533,0.00039226
908.46827271,0.00023710
910.39708008,0.00044333
912.32588745,0.00059715
914.25469482,0.00062775
916.18350220,0.00047993
918.11230957,0.00040877
920.04111694,0.00070146
921.96992432,0.00043443
923.89873169,0.00056401
925.82753906,0.00073899
927.75634644,0.00070009
929.68515381,0.00095371
931.61396118,0.00056854
933.54276855,0.00066583
935.47157593,0.00098719
937.40038330,0.00081671
939.32919067,0.00083823
941.25799805,0.00076136
943.18680542,0.00089917
945.11561279,0.00087005
947.04442017,0.00075129
948.97322754,0.00099114
950.90203491,0.00070812
952.83084229,0.00070337
954.75964966,0.00107644
956.68845703,0.00086062
958.61726440,0.00074786
960.54607178,0.00067333
962.47487915,0.00077476
964.40368652,0.00086816
966.33249390,0.00061858
968.26130127,0.00104377
970.19010864,0.00110003
972.11891602,0.00088309
974.04772339,0.00130087
975.97653076,0.00112625
977.90533813,0.00105053
979.83414551,0.00133731
981.76295288,0.00124528
983.69176025,0.00150243
985.62056763,0.00174875
987.54937500,0.00174474
989.47818237,0.00209913
991.40698975,0.00216365
993.33579712,0.00230771
995.26460449,0.00283965
997.19341187,0.00285980
999.12221924,0.00327118
1001.05102661,0.00359006
1002.97983398,0.00342161
1004.90864136,0.00388408
1006.83744873,0.00398847
1008.76625610,0.00416395
1010.69506348,0.00472002
1012.62387085,0.00492468
1014.55267822,0.00534965
1016.48148560,0.00558740
1018.41029297,0.00573726
1020.33910034,0.00610566
1022.26790771,0.00627221
1024.19671509,0.00638000
1026.12552246,0.00659634
1028.05432983,0.00689970
1029.98313721,0.00704204
1031.91194458,0.00731674
1033.84075195,0.00766114
1035.76955933,0.00759268
1037.69836670,0.00750726
1039.62717407,0.00746508
1041.55598145,0.00758702
1043.48478882,0.00767028
1045.41359619,0.00750055
1047.34240356,0.00747657
1049.27121094,0.00722471
1051.20001831,0.00714786
1053.12882568,0.00715969
1055.05763306,0.00696939
1056.98644043,0.00696783
1058.91524780,0.00662809
1060.84405518,0.00640440
1062.77286255,0.00621965
1064.70166992,0.00600773
1066.63047729,0.00596893
1068.55928467,0.00562059
1070.48809204,0.00558539
1072.41689941,0.00538590
1074.34570679,0.00485543
1076.27451416,0.00478163
1078.20332153,0.00481707
1080.13212891,0.00447616
1082.06093628,0.00416911
1083.98974365,0.00401070
1085.91855103,0.00374172
1087.84735840,0.00383528
1089.77616577,0.00351208
1091.70497314,0.00313910
1093.63378052,0.00317555
1095.56258789,0.00315407
1097.49139526,0.00332496
1099.42020264,0.00292047
1101.34901001,0.00294195
1103.27781738,0.00305246
1105.20662476,0.00281264
1107.13543213,0.00307733
1109.06423950,0.00275718
1110.99304687,0.00270288
1112.92185425,0.00272213
1114.85066162,0.00245492
1116.77946899,0.00258060
1118.70827637,0.00260081
1120.63708374,0.00280565
1122.56589111,0.00279043
1124.49469849,0.00269886
1126.42350586,0.00281229
1128.35231323,0.00282203
1130.28112061,0.00276258
1132.20992798,0.00262240
1134.13873535,0.00302249
1136.06754272,0.00337288
1137.99635010,0.00327263
1139.92515747,0.00365518
1141.85396484,0.00396493
1143.78277222,0.00393817
1145.71157959,0.00433290
1147.64038696,0.00465663
1149.56919434,0.00480083
1151.49800171,0.00499522
1153.42680908,0.00511794
1155.35561646,0.00535423
1157.28442383,0.00562290
1159.21323120,0.00600040
1161.14203857,0.00617317
1163.07084595,0.00629108
1164.99965332,0.00649825
1166.92846069,0.00663450
1168.85726807,0.00700276
1170.78607544,0.00728229
1172.71488281,0.00771978
1174.64369019,0.00795485
1176.57249756,0.00806578
1178.50130493,0.00849363
1180.43011230,0.00867548
1182.35891968,0.00923759
1184.28772705,0.00963727
1186.21653442,0.00992247
1188.14534180,0.01061756
1190.07414917,0.01078874
1192.00295654,0.01130173
1193.93176392,0.01201136
1195.86057129,0.01240302
1197.78937866,0.01323723
1199.71818604,0.01372309
1201.64699341,0.01415735
1203.57580078,0.01498922
1205.50460815,0.01539414
1207.43341553,0.01603436
1209.36222290,0.01670714
1211.29103027,0.01700053
1213.21983765,0.01754594
1215.14864502,0.01781817
1217.07745239,0.01797988
1219.00625977,0.01849820
1220.93506714,0.01884440
1222.86387451,0.01906280
1224.79268188,0.01938467
1226.72148926,0.01951304
1228.65029663,0.01968584
1230.57910400,0.01977486
1232.50791138,0.01971457
1234.43671875,0.02002194
1236.36552612,0.01984121
1238.29433350,0.01970281
1240.22314087,0.01994033
1242.15194824,0.01972513
1244.08075562,0.01980774
1246.00956299,0.01980751
1247.93837036,0.01948864
1249.86717773,0.01921349
1251.79598511,0.01919981
1253.72479248,0.01929308
1255.65359985,0.01890257
1257.58240723,0.01862511
1259.51121460,0.01830029
1261.44002197,0.01804082
1263.36882935,0.01795639
1265.29763672,0.01747542
1267.22644409,0.01727666
1269.15525146,0.01739671
1271.08405884,0.01711185
1273.01286621,0.01666091
1274.94167358,0.01652505
1276.87048096,0.01625776
1278.79928833,0.01578795
1280.72809570,0.01552344
1282.65690308,0.01519626
1284.58571045,0.01485704
1286.51451782,0.01485094
1288.44332520,0.01457796
1290.37213257,0.01416274
1292.30093994,0.01426672
1294.22974731,0.01401362
1296.15855469,0.01390062
1298.08736206,0.01424244
1300.01616943,0.01411537
1301.94497681,0.01404773
1303.87378418,0.01428957
1305.80259155,0.01453006
1307.73139893,0.01461088
1309.66020630,0.01498689
1311.58901367,0.01522111
1313.51782104,0.01519275
1315.44662842,0.01565941
1317.37543579,0.01604652
1319.30424316,0.01653138
1321.23305054,0.01719650
1323.16185791,0.01779434
1325.09066528,0.01811054
1327.01947266,0.01862604
1328.94828003,0.01942032
1330.87708740,0.01961141
1332.80589478,0.02022742
1334.73470215,0.02065634
1336.66350952,0.02049471
1338.59231689,0.02053063
1340.52112427,0.02082718
1342.44993164,0.02163945
1344.37873901,0.02187015
1346.30754639,0.02190932
1348.23635376,0.02196993
1350.16516113,0.02172401
1352.09396851,0.02158515
1354.02277588,0.02130852
1355.95158325,0.02130723
1357.88039062,0.02114946
1359.80919800,0.02076648
1361.73800537,0.01997236
1363.66681274,0.01969426
1365.59562012,0.02057716
1367.52442749,0.02006576
1369.45323486,0.01988680
1371.38204224,0.02031459
1373.31084961,0.01931375
1375.23965698,0.01944637
1377.16846436,0.01999592
1379.09727173,0.01988989
1381.02607910,0.01995281
1382.95488647,0.01984490
1384.88369385,0.01980799
1386.81250122,0.01915639
1388.74130859,0.01937428
1390.67011597,0.02076713
1392.59892334,0.02027976
1394.52773071,0.01935675
1396.45653809,0.02016872
1398.38534546,0.01998053
1400.31415283,0.02016457
1402.24296021,0.02159742
1404.17176758,0.02042440
1406.10057495,0.02063404
1408.02938232,0.02140476
1409.95818970,0.02059150
1411.88699707,0.02114208
1413.81580444,0.02040427
1415.74461182,0.02059623
1417.67341919,0.01880015
1419.60222656,0.01665256
1421.53103394,0.01930707
1423.45984131,0.01865249
1425.38864868,0.01790137
1427.31745605,0.01858337
1429.24626343,0.01700531
1431.17507080,0.01649344
1433.10387817,0.01675124
1435.03268555,0.01537804
1436.96149292,0.01322434
1438.89030029,0.01483070
1440.81910767,0.01532562
1442.74791504,0.01417222
1444.67672241,0.01493737
1446.60552979,0.01381051
1448.53433716,0.01389463
1450.46314453,0.01430811
1452.39195190,0.01469740
1454.32075928,0.01520772
1456.24956665,0.01258986
1458.17837402,0.01333032
1460.10718140,0.01728782
1462.03598877,0.01855620
1463.96479614,0.01867195
1465.89360352,0.01935934
1467.82241089,0.02199003
1469.75121826,0.02354558
1471.68002563,0.02118619
1473.60883301,0.02219034
1475.53764038,0.02528701
1477.46644775,0.02697494
1479.39525513,0.02957102
1481.32406250,0.03012196
1483.25286987,0.03178637
1485.18167725,0.03320285
1487.11048462,0.03266911
1489.03929199,0.03238589
1490.96809937,0.03257848
1492.89690674,0.03761011
1494.82571411,0.03690428
1496.75452148,0.03334633
1498.68332886,0.03770173
1500.61213623,0.03876726
1502.54094360,0.04143778
1504.46975098,0.03953905
1506.39855835,0.02928788
1508.32736572,0.03521657
1510.25617310,0.04119455
1512.18498047,0.03981034
1514.11378784,0.04301814
1516.04259521,0.03932898
1517.97140259,0.04082257
1519.90020996,0.03953496
1521.82901733,0.03438178
1523.75782471,0.04167251
1525.68663208,0.04103230
1527.61543945,0.04071922
1529.54424683,0.04509218
1531.47305420,0.04347924
1533.40186157,0.04008140
1535.33066895,0.04220509
1537.25947632,0.04537026
1539.18828369,0.03320513
1541.11709106,0.03411037
1543.04589844,0.04086728
1544.97470581,0.03917954
1546.90351318,0.04607856
1548.83232056,0.04320911
1550.76112793,0.04453231
1552.68993530,0.04436919
1554.61874268,0.04020843
1556.54755005,0.04338678
1558.47635742,0.03116219
1560.40516479,0.03315964
1562.33397217,0.04655492
1564.26277954,0.04426136
1566.19158691,0.04562355
1568.12039429,0.04514266
1570.04920166,0.04033652
1571.97800903,0.04614887
1573.90681641,0.04685777
1575.83562378,0.03749109
1577.76443115,0.04200385
1579.69323853,0.04740007
1581.62204590,0.04535588
1583.55085327,0.04666438
1585.47966064,0.04598975
1587.40846802,0.04645898
1589.33727539,0.04612287
1591.26608276,0.04591071
1593.19489014,0.04608430
1595.12369751,0.04578328
1597.05250488,0.04644847
1598.98131226,0.04595997
1600.91011963,0.04638076
1602.83892700,0.04550186
1604.76773437,0.04645722
1606.69654175,0.04590049
1608.62534912,0.04544753
1610.55415649,0.04565765
1612.48296387,0.04586737
1614.41177124,0.04666987
1616.34057861,0.03847136
1618.26938599,0.04135826
1620.19819336,0.04814393
1622.12700073,0.04280667
1624.05580811,0.04322131
1625.98461548,0.04531717
1627.91342285,0.04507007
1629.84223022,0.04485350
1631.77103760,0.04785271
1633.69984497,0.04454188
1635.62865234,0.03689345
1637.55745972,0.04244278
1639.48626709,0.04656262
1641.41507446,0.04568621
1643.34388184,0.04691927
1645.27268921,0.04242953
1647.20149658,0.03739868
1649.13030396,0.04609074
1651.05911133,0.04431180
1652.98791870,0.02888599
1654.91672607,0.03832708
1656.84553345,0.04813026
1658.77434082,0.04597229
1660.70314819,0.04734584
1662.63195557,0.04332592
1664.56076294,0.04559195
1666.48957031,0.04881131
1668.41837769,0.04301338
1670.34718506,0.04197877
1672.27599243,0.04711484
1674.20479980,0.04377581
1676.13360718,0.04182221
1678.06241455,0.04794602
1679.99122192,0.04643084
1681.92002930,0.04587781
1683.84883667,0.03783912
1685.77764404,0.03699731
1687.70645142,0.05037076
1689.63525879,0.04406289
1691.56406616,0.04809737
1693.49287354,0.04977973
1695.42168091,0.03651281
1697.35048828,0.04437668
1699.27929565,0.03971701
1701.20810303,0.03556624
1703.13691040,0.04808531
1705.06571777,0.04431015
1706.99452515,0.04440013
1708.92333252,0.04846992
1710.85213989,0.04649605
1712.78094727,0.04722210
1714.70975464,0.04424529
1716.63856201,0.03973866
1718.56736938,0.03903414
1720.49617676,0.04604522
1722.42498413,0.04769621
1724.35379150,0.04451330
1726.28259888,0.04831454
1728.21140625,0.04475895
1730.14021362,0.04513855
1732.06902100,0.04417929
1733.99782837,0.03401006
1735.92663574,0.04161208
1737.85544312,0.04632527
1739.78425049,0.04151619
1741.71305786,0.04480691
1743.64186523,0.04554361
1745.57067261,0.04553444
1747.49947998,0.04587916
1749.42828735,0.04392965
1751.35709473,0.04202310
1753.28590210,0.04656816
1755.21470947,0.04894406
1757.14351685,0.04455398
1759.07232422,0.04885126
1761.00113159,0.04641233
1762.92993896,0.04433097
1764.85874634,0.05064462
1766.78755371,0.04597565
1768.71636108,0.04623032
1770.64516846,0.04632614
1772.57397583,0.04153451
1774.50278320,0.04628085
1776.43159058,0.04895771
1778.36039795,0.04799494
1780.28920532,0.04771717
1782.21801270,0.04803822
1784.14682007,0.04799449
1786.07562744,0.04713683
1788.00443481,0.04940244
1789.93324219,0.04838632
1791.86204956,0.04378046
1793.79085693,0.04547634
1795.71966431,0.04879973
1797.64847168,0.04834287
1799.57727905,0.04776015
1801.50608643,0.04682823
1803.43489380,0.04837245
1805.36370117,0.04945701
1807.29250854,0.04872675
1809.22131592,0.04906391
1811.15012329,0.04785646
1813.07893066,0.04929263
1815.00773804,0.04953770
1816.93654541,0.04900432
1818.86535278,0.04945488
1820.79416016,0.04910438
1822.72296753,0.04989479
1824.65177490,0.04676978
1826.58058228,0.04831265
1828.50938965,0.04860526
1830.43819702,0.04554920
1832.36700439,0.04941395
1834.29581177,0.04938309
1836.22461914,0.04937239
1838.15342651,0.04905698
1840.08223389,0.04920911
1842.01104126,0.04946596
1843.93984863,0.04411427
1845.86865601,0.04692417
1847.79746338,0.04951131
1849.72627075,0.04829315
1851.65507812,0.04980931
1853.58388550,0.04903460
1855.51269287,0.04949973
1857.44150024,0.04921779
1859.37030762,0.04887469
1861.29911499,0.04928927
1863.22792236,0.04871505
1865.15672974,0.04918703
1867.08553711,0.04779528
1869.01434448,0.04582568
1870.94315186,0.04763106
1872.87195923,0.04958081
1874.80076660,0.04863757
1876.72957397,0.04883828
1878.65838135,0.04875534
1880.58718872,0.04864921
1882.51599609,0.04918936
1884.44480347,0.04826203
1886.37361084,0.04902668
1888.30241821,0.04799983
1890.23122559,0.04705077
1892.16003296,0.04879868
1894.08884033,0.04811025
1896.01764771,0.04812434
1897.94645508,0.04859195
1899.87526245,0.04820659
1901.80406982,0.04843295
1903.73287720,0.04803520
1905.66168457,0.04827876
1907.59049194,0.04808521
1909.51929932,0.04774307
1911.44810669,0.04787520
1913.37691406,0.04808602
1915.30572144,0.04869106
1917.23452881,0.04655597
1919.16333618,0.04649608
1921.09214355,0.04835788
1923.02095093,0.04687709
1924.94975830,0.04771111
1926.87856567,0.04835951
1928.80737305,0.04776692
1930.73618042,0.04829535
1932.66498779,0.04775835
1934.59379517,0.04826315
1936.52260254,0.04787697
1938.45140991,0.04791585
1940.38021729,0.04807926
1942.30902466,0.04655944
1944.23783203,0.04728976
1946.16663940,0.04796585
1948.09544678,0.04787380
1950.02425415,0.04797354
1951.95306152,0.04786855
1953.88186890,0.04796384
1955.81067627,0.04779869
1957.73948364,0.04798718
1959.66829102,0.04807700
1961.59709839,0.04795392
1963.52590576,0.04787294
1965.45471313,0.04770650
1967.38352051,0.04736719
1969.31232788,0.04768515
1971.24113525,0.04807474
1973.16994263,0.04777231
1975.09875000,0.04801185
1977.02755737,0.04791308
1978.95636475,0.04785074
1980.88517212,0.04787860
1982.81397949,0.04773911
1984.74278687,0.04784200
1986.67159424,0.04754008
1988.60040161,0.04765216
1990.52920898,0.04727370
1992.45801636,0.04669730
1994.38682373,0.04730005
1996.31563110,0.04764888
1998.24443848,0.04741979
2000.17324585,0.04741146
2002.10205322,0.04734398
2004.03086060,0.04733352
2005.95966797,0.04740207
2007.88847534,0.04705994
2009.81728271,0.04705261
2011.74609009,0.04699374
2013.67489746,0.04691092
2015.60370483,0.04668955
2017.53251221,0.04619774
2019.46131958,0.04666980
2021.39012695,0.04669908
2023.31893433,0.04649009
2025.24774170,0.04656016
2027.17654907,0.04634719
2029.10535645,0.04640518
2031.03416382,0.04636131
2032.96297119,0.04630488
2034.89177856,0.04612405
2036.82058594,0.04622017
2038.74939331,0.04615729
2040.67820068,0.04571879
2042.60700806,0.04576943
2044.53581543,0.04579322
2046.46462280,0.04596251
2048.39343018,0.04587548
2050.32223755,0.04562605
2052.25104492,0.04565205
2054.17985229,0.04546229
2056.10865967,0.04542878
2058.03746704,0.04551370
2059.96627441,0.04546158
2061.89508179,0.04530526
2063.82388916,0.04510753
2065.75269653,0.04505727
2067.68150391,0.04515004
2069.61031128,0.04509780
2071.53911865,0.04510307
2073.46792603,0.04513221
2075.39673340,0.04497439
2077.32554077,0.04493289
2079.25434814,0.04484647
2081.18315552,0.04483192
2083.11196289,0.04471122
2085.04077026,0.04460508
2086.96957764,0.04474707
2088.89838501,0.04456581
2090.82719238,0.04433523
2092.75599976,0.04438171
2094.68480713,0.04450800
2096.61361450,0.04442662
2098.54242187,0.04428824
2100.47122925,0.04422820
2102.40003662,0.04423796
2104.32884399,0.04424644
2106.25765137,0.04413136
2108.18645874,0.04418321
2110.11526611,0.04409496
2112.04407349,0.04397845
2113.97288086,0.04396669
2115.90168823,0.04392007
2117.83049561,0.04396453
2119.75930298,0.04383796
2121.68811035,0.04378583
2123.61691772,0.04380836
2125.54572510,0.04375164
2127.47453247,0.04372081
2129.40333984,0.04363076
2131.33214722,0.04351147
2133.26095459,0.04347599
2135.18976196,0.04353428
2137.11856934,0.04354221
2139.04737671,0.04355265
2140.97618408,0.04355258
2142.90499146,0.04344743
2144.83379883,0.04333514
2146.76260620,0.04335464
2148.69141357,0.04332630
2150.62022095,0.04331726
2152.54902832,0.04337043
2154.47783569,0.04331321
2156.40664307,0.04325474
2158.33545044,0.04311213
2160.26425781,0.04319288
2162.19306519,0.04321292
2164.12187256,0.04313383
2166.05067993,0.04325230
2167.97948730,0.04309057
2169.90829468,0.04296736
2171.83710205,0.04295520
2173.76590942,0.04301662
2175.69471680,0.04307707
2177.62352417,0.04307309
2179.55233154,0.04296247
2181.48113892,0.04280155
2183.40994629,0.04297604
2185.33875366,0.04278573
2187.26756104,0.04260774
2189.19636841,0.04275765
2191.12517578,0.04271024
2193.05398315,0.04269951
2194.98279053,0.04271484
2196.91159790,0.04268279
2198.84040527,0.04266027
2200.76921265,0.04271789
2202.69802002,0.04254222
2204.62682739,0.04259937
2206.55563477,0.04272721
2208.48444214,0.04257222
2210.41324951,0.04258058
2212.34205688,0.04237763
2214.27086426,0.04242424
2216.19967163,0.04242155
2218.12847900,0.04235010
2220.05728638,0.04252046
2221.98609375,0.04239198
2223.91490112,0.04235546
2225.84370850,0.04228133
2227.77251587,0.04226335
2229.70132324,0.04221961
2231.63013062,0.04206917
2233.55893799,0.04214804
2235.48774536,0.04219847
2237.41655273,0.04199425
2239.34536011,0.04185096
2241.27416748,0.04196493
2243.20297485,0.04182654
2245.13178223,0.04183941
2247.06058960,0.04176538
2248.98939697,0.04153508
2250.91820435,0.04162349
2252.84701172,0.04173438
2254.77581909,0.04187739
2256.70462646,0.04175410
2258.63343384,0.04166638
2260.56224121,0.04146840
2262.49104858,0.04142281
2264.41985596,0.04150817
2266.34866333,0.04133904
2268.27747070,0.04149120
2270.20627808,0.04131405
2272.13508545,0.04126228
2274.06389282,0.04128318
2275.99270020,0.04119671
2277.92150757,0.04130282
2279.85031494,0.04119043
2281.77912231,0.04131281
2283.70792969,0.04125909
2285.63673706,0.04118624
2287.56554443,0.04108268
2289.49435181,0.04101142
2291.42315918,0.04105770
2293.35196655,0.04085223
2295.28077393,0.04084118
2297.20958130,0.04060844
2299.13838867,0.04048426
2301.06719604,0.04040940
2302.99600342,0.04024212
2304.92481079,0.04013255
2306.85361816,0.03989535
2308.78242554,0.03963784
2310.71123291,0.03912633
2312.64004028,0.03895826
2314.56884766,0.03868228
2316.49765503,0.03822950
2318.42646240,0.03779721
2320.35526978,0.03728414
2322.28407715,0.03698871
2324.21288452,0.03642225
2326.14169189,0.03611130
2328.07049927,0.03575384
2329.99930664,0.03532369
2331.92811401,0.03510097
2333.85692139,0.03484916
2335.78572876,0.03473781
2337.71453613,0.03465854
2339.64334351,0.03481672
2341.57215088,0.03483699
2343.50095825,0.03537348
2345.42976562,0.03619356
2347.35857300,0.03736959
2349.28738037,0.03856755
2351.21618774,0.03744389
2353.14499512,0.03571659
2355.07380249,0.03443818
2357.00260986,0.03335958
2358.93141724,0.03287417
2360.86022461,0.03251906
2362.78903198,0.03261238
2364.71783936,0.03272194
2366.64664673,0.03299144
2368.57545410,0.03352775
2370.50426147,0.03440505
2372.43306885,0.03550935
2374.36187622,0.03631534
2376.29068359,0.03732677
2378.21949097,0.03814539
2380.14829834,0.03867969
2382.07710571,0.03914108
2384.00591309,0.03941657
2385.93472046,0.03952911
2387.86352783,0.03958382
2389.79233521,0.03970560
2391.72114258,0.03955799
2393.64994995,0.03940656
2395.57875732,0.03942107
2397.50756470,0.03940925
2399.43637207,0.03939170
2401.36517944,0.03942375
2403.29398682,0.03938784
2405.22279419,0.03929144
2407.15160156,0.03924155
2409.08040894,0.03921701
2411.00921631,0.03933818
2412.93802368,0.03923630
2414.86683105,0.03910138
2416.79563843,0.03916548
2418.72444580,0.03920968
2420.65325317,0.03918462
2422.58206055,0.03898513
2424.51086792,0.03902364
2426.43967529,0.03906853
2428.36848267,0.03893569
2430.29729004,0.03893222
2432.22609741,0.03894340
2434.15490479,0.03885853
2436.08371216,0.03882662
2438.01251953,0.03890833
2439.94132690,0.03873553
2441.87013428,0.03860098
2443.79894165,0.03856599
2445.72774902,0.03858143
2447.65655640,0.03873501
2449.58536377,0.03863897
2451.51417114,0.03859365
2453.44297852,0.03857250
2455.37178589,0.03850403
2457.30059326,0.03850585
2459.22940063,0.03842991
2461.15820801,0.03846461
2463.08701538,0.03847746
2465.01582275,0.03837675
2466.94463013,0.03835481
2468.87343750,0.03837585
2470.80224487,0.03830637
2472.73105225,0.03827976
2474.65985962,0.03833558
2476.58866699,0.03824651
2478.51747437,0.03813353
2480.44628174,0.03819294
2482.37508911,0.03822790
2484.30389648,0.03815522
2486.23270386,0.03807778
2488.16151123,0.03804801
2490.09031860,0.03804565
2492.01912598,0.03782815
2493.94793335,0.03781731
2495.87674072,0.03788884
2497.80554810,0.03773994
2499.73435547,0.03793440
2501.66316284,0.03786060
2503.59197021,0.03778954
2505.52077759,0.03794564
2507.44958496,0.03767744
2509.37839233,0.03764821
2511.30719971,0.03768086
2513.23600708,0.03761823
2515.16481445,0.03762400
2517.09362183,0.03761975
2519.02242920,0.03769378
2520.95123657,0.03752374
2522.88004395,0.03744186
2524.80885132,0.03743631
2526.73765869,0.03736325
2528.66646606,0.03748366
2530.59527344,0.03746204
2532.52408081,0.03730236
2534.45288818,0.03732011
2536.38169556,0.03739818
2538.31050293,0.03727163
2540.23931030,0.03718165
2542.16811768,0.03719808
2544.09692505,0.03703807
2546.02573242,0.03706677
2547.95453979,0.03717948
2549.88334717,0.03704832
2551.81215454,0.03710723
2553.74096191,0.03713381
2555.66976929,0.03699362
2557.59857666,0.03701744
2559.52738403,0.03693741
2561.45619141,0.03684005
2563.38499878,0.03687784
2565.31380615,0.03690450
2567.24261353,0.03686463
2569.17142090,0.03673600
2571.10022827,0.03661481
2573.02903564,0.03657597
2574.95784302,0.03663796
2576.88665039,0.03659648
2578.81545776,0.03658757
2580.74426514,0.03662568
2582.67307251,0.03652328
2584.60187988,0.03652971
2586.53068726,0.03644641
2588.45949463,0.03634806
2590.38830200,0.03642524
2592.31710937,0.03640994
2594.24591675,0.03636878
2596.17472412,0.03632782
2598.10353149,0.03632340
2600.03233887,0.03635394
2601.96114624,0.03629050
2603.88995361,0.03624359
2605.81876099,0.03617612
2607.74756836,0.03608599
2609.67637573,0.03611489
2611.60518311,0.03611235
2613.53399048,0.03608177
2615.46279785,0.03602267
2617.39160522,0.03594100
2619.32041260,0.03595084
2621.24921997,0.03597621
2623.17802734,0.03606742
2625.10683472,0.03592078
2627.03564209,0.03580204
2628.96444946,0.03591561
2630.89325684,0.03578438
2632.82206421,0.03580029
2634.75087158,0.03580666
2636.67967895,0.03572489
2638.60848633,0.03567980
2640.53729370,0.03552179
2642.46610107,0.03555948
2644.39490845,0.03553450
2646.32371582,0.03556959
2648.25252319,0.03551154
2650.18133057,0.03538105
2652.11013794,0.03549220
2654.03894531,0.03532654
2655.96775269,0.03534045
2657.89656006,0.03540300
2659.82536743,0.03525031
2661.75417480,0.03526716
2663.68298218,0.03515471
2665.61178955,0.03513137
2667.54059692,0.03516196
2669.46940430,0.03512977
2671.39821167,0.03511254
2673.32701904,0.03502656
2675.25582642,0.03510618
2677.18463379,0.03502715
2679.11344116,0.03482608
2681.04224854,0.03484210
2682.97105591,0.03481891
2684.89986328,0.03483871
2686.82867065,0.03488130
2688.75747803,0.03485003
2690.68628540,0.03482477
2692.61509277,0.03473413
2694.54390015,0.03468374
2696.47270752,0.03462239
2698.40151489,0.03454892
2700.33032227,0.03454825
2702.25912964,0.03460696
2704.18793701,0.03466213
2706.11674438,0.03450401
2708.04555176,0.03438372
2709.97435913,0.03435522
2711.90316650,0.03434930
2713.83197388,0.03443894
2715.76078125,0.03440008
2717.68958862,0.03432386
2719.61839600,0.03423417
2721.54720337,0.03424201
2723.47601074,0.03418724
2725.40481812,0.03395925
2727.33362549,0.03405130
2729.26243286,0.03412878
2731.19124023,0.03406536
2733.12004761,0.03399882
2735.04885498,0.03390430
2736.97766235,0.03402791
2738.90646973,0.03400519
2740.83527710,0.03387159
2742.76408447,0.03387750
2744.69289185,0.03375717
2746.62169922,0.03366281
2748.55050659,0.03372835
2750.47931396,0.03374587
2752.40812134,0.03370426
2754.33692871,0.03367393
2756.26573608,0.03353592
2758.19454346,0.03343124
2760.12335083,0.03355746
2762.05215820,0.03351871
2763.98096558,0.03336192
2765.90977295,0.03347988
2767.83858032,0.03333719
2769.76738770,0.03310477
2771.69619507,0.03331590
2773.62500244,0.03332840
2775.55380981,0.03320564
2777.48261719,0.03318987
2779.41142456,0.03306001
2781.34023193,0.03300340
2783.26903931,0.03306505
2785.19784668,0.03306704
2787.12665405,0.03287668
2789.05546143,0.03285789
2790.98426880,0.03288071
2792.91307617,0.03277927
2794.84188354,0.03282424
2796.77069092,0.03265951
2798.69949829,0.03259494
2800.62830566,0.03265991
2802.55711304,0.03258108
2804.48592041,0.03255380
2806.41472778,0.03238103
2808.34353516,0.03237618
2810.27234253,0.03248984
2812.20114990,0.03244330
2814.12995728,0.03235708
2816.05876465,0.03226107
2817.98757202,0.03226250
2819.91637939,0.03224160
2821.84518677,0.03219457
2823.77399414,0.03210503
2825.70280151,0.03210431
2827.63160889,0.03213912
2829.56041626,0.03206065
2831.48922363,0.03197806
2833.41803101,0.03182598
2835.34683838,0.03185748
2837.27564575,0.03181082
2839.20445312,0.03170314
2841.13326050,0.03169804
2843.06206787,0.03146974
2844.99087524,0.03140119
2846.91968262,0.03133094
2848.84848999,0.03115566
2850.77729736,0.03107600
2852.70610474,0.03108903
2854.63491211,0.03112204
2856.56371948,0.03094513
2858.49252686,0.03096777
2860.42133423,0.03097471
2862.35014160,0.03085892
2864.27894897,0.03086049
2866.20775635,0.03079047
2868.13656372,0.03084705
2870.06537109,0.03078963
2871.99417847,0.03066300
2873.92298584,0.03067457
2875.85179321,0.03067507
2877.78060059,0.03069585
2879.70940796,0.03062687
2881.63821533,0.03058858
2883.56702270,0.03055726
2885.49583008,0.03047758
2887.42463745,0.03044721
2889.35344482,0.03038663
2891.28225220,0.03033990
2893.21105957,0.03030153
2895.13986694,0.03023187
2897.06867432,0.03020852
2898.99748169,0.03017615
2900.92628906,0.03010596
2902.85509644,0.03008783
2904.78390381,0.02999654
2906.71271118,0.02992757
2908.64151855,0.02989801
2910.57032593,0.02974720
2912.49913330,0.02963521
2914.42794067,0.02951861
2916.35674805,0.02941455
2918.28555542,0.02931356
2920.21436279,0.02925492
2922.14317017,0.02930933
2924.07197754,0.02930858
2926.00078491,0.02932382
2927.92959229,0.02917512
2929.85839966,0.02903038
2931.78720703,0.02920284
2933.71601440,0.02922748
2935.64482178,0.02911451
2937.57362915,0.02917864
2939.50243652,0.02920541
2941.43124390,0.02921979
2943.36005127,0.02929349
2945.28885864,0.02919065
2947.21766602,0.02908829
2949.14647339,0.02902707
2951.07528076,0.02897203
2953.00408813,0.02901941
2954.93289551,0.02889993
2956.86170288,0.02876322
2958.79051025,0.02877112
2960.71931763,0.02868922
2962.64812500,0.02852023
2964.57693237,0.02850224
2966.50573975,0.02856818
2968.43454712,0.02858713
2970.36335449,0.02867707
2972.29216187,0.02865686
2974.22096924,0.02867862
2976.14977661,0.02874137
2978.07858398,0.02863862
2980.00739136,0.02863862
2981.93619873,0.02864200
2983.86500610,0.02864394
2985.79381348,0.02866845
2987.72262085,0.02863091
2989.65142822,0.02858359
2991.58023560,0.02853484
2993.50904297,0.02855608
2995.43785034,0.02850486
2997.36665771,0.02845678
2999.29546509,0.02848808
3001.22427246,0.02842057
3003.15307983,0.02841793
3005.08188721,0.02844608
3007.01069458,0.02827271
3008.93950195,0.02820629
3010.86830933,0.02819471
3012.79711670,0.02806448
3014.72592407,0.02814596
3016.65473145,0.02813444
3018.58353882,0.02799871
3020.51234619,0.02799872
3022.44115356,0.02797554
3024.36996094,0.02791163
3026.29876831,0.02782779
3028.22757568,0.02780304
3030.15638306,0.02767219
3032.08519043,0.02766433
3034.01399780,0.02766322
3035.94280518,0.02741961
3037.87161255,0.02747680
3039.80041992,0.02750353
3041.72922729,0.02745348
3043.65803467,0.02749237
3045.58684204,0.02738453
3047.51564941,0.02743089
3049.44445679,0.02748478
3051.37326416,0.02734378
3053.30207153,0.02724474
3055.23087891,0.02717991
3057.15968628,0.02708415
3059.08849365,0.02712447
3061.01730103,0.02706773
3062.94610840,0.02697659
3064.87491577,0.02701956
3066.80372314,0.02698184
3068.73253052,0.02705886
3070.66133789,0.02690310
3072.59014526,0.02672268
3074.51895264,0.02682555
3076.44776001,0.02681448
3078.37656738,0.02676046
3080.30537476,0.02658358
3082.23418213,0.02659087
3084.16298950,0.02661518
3086.09179687,0.02653167
3088.02060425,0.02658015
3089.94941162,0.02650049
3091.87821899,0.02652962
3093.80702637,0.02640003
3095.73583374,0.02617741
3097.66464111,0.02623247
3099.59344849,0.02620219
3101.52225586,0.02610125
3103.45106323,0.02619125
3105.37987061,0.02623079
3107.30867798,0.02604972
3109.23748535,0.02609017
3111.16629272,0.02597770
3113.09510010,0.02586024
3115.02390747,0.02595407
3116.95271484,0.02568530
3118.88152222,0.02572158
3120.81032959,0.02571684
3122.73913696,0.02552611
3124.66794434,0.02574221
3126.59675171,0.02559965
3128.52555908,0.02546609
3130.45436645,0.02559774
3132.38317383,0.02538906
3134.31198120,0.02523600
3136.24078857,0.02525126
3138.16959595,0.02522299
3140.09840332,0.02520514
3142.02721069,0.02517746
3143.95601807,0.02513547
3145.88482544,0.02501526
3147.81363281,0.02496449
3149.74244019,0.02493106
3151.67124756,0.02478573
3153.60005493,0.02479995
3155.52886230,0.02484642
3157.45766968,0.02477193
3159.38647705,0.02465999
3161.31528442,0.02458277
3163.24409180,0.02449007
3165.17289917,0.02446037
3167.10170654,0.02450967
3169.03051392,0.02432896
3170.95932129,0.02427593
3172.88812866,0.02434633
3174.81693604,0.02429583
3176.74574341,0.02416932
3178.67455078,0.02407753
3180.60335815,0.02417747
3182.53216553,0.02406972
3184.46097290,0.02405025
3186.38978027,0.02394813
3188.31858765,0.02373602
3190.24739502,0.02385846
3192.17620239,0.02371085
3194.10500977,0.02368944
3196.03381714,0.02378433
3197.96262451,0.02364989
3199.89143188,0.02361428
3201.82023926,0.02359073
3203.74904663,0.02357501
3205.67785400,0.02347548
3207.60666138,0.02337245
3209.53546875,0.02330316
3211.46427612,0.02337669
3213.39308350,0.02343569
3215.32189087,0.02330085
3217.25069824,0.02321668
3219.17950562,0.02311272
3221.10831299,0.02311117
3223.03712036,0.02317733
3224.96592773,0.02317308
3226.89473511,0.02308214
3228.82354248,0.02304973
3230.75234985,0.02300625
3232.68115723,0.02294338
3234.60996460,0.02304612
3236.53877197,0.02291257
3238.46757935,0.02285532
3240.39638672,0.02289457
3242.32519409,0.02284594
3244.25400146,0.02288813
3246.18280884,0.02280276
3248.11161621,0.02279369
3250.04042358,0.02271837
3251.96923096,0.02266175
3253.89803833,0.02269221
3255.82684570,0.02259243
3257.75565308,0.02264864
3259.68446045,0.02269334
3261.61326782,0.02259436
3263.54207520,0.02261335
3265.47088257,0.02263120
3267.39968994,0.02250179
3269.32849731,0.02254485
3271.25730469,0.02252202
3273.18611206,0.02239788
3275.11491943,0.02248173
3277.04372681,0.02243461
3278.97253418,0.02236836
3280.90134155,0.02245002
3282.83014893,0.02252639
3284.75895630,0.02246529
3286.68776367,0.02238899
3288.61657104,0.02234532
3290.54537842,0.02229546
3292.47418579,0.02229719
3294.40299316,0.02225419
3296.33180054,0.02228570
3298.26060791,0.02228188
3300.18941528,0.02232201
3302.11822266,0.02223249
3304.04703003,0.02207896
3305.97583740,0.02213384
3307.90464478,0.02209079
3309.83345215,0.02213803
3311.76225952,0.02206120
3313.69106689,0.02201480
3315.61987427,0.02201989
3317.54868164,0.02200946
3319.47748901,0.02209670
3321.40629639,0.02196499
3323.33510376,0.02203751
3325.26391113,0.02192589
3327.19271851,0.02190135
3329.12152588,0.02202258
3331.05033325,0.02178440
3332.97914062,0.02184612
3334.90794800,0.02185927
3336.83675537,0.02176262
3338.76556274,0.02174328
3340.69437012,0.02179356
3342.62317749,0.02169462
3344.55198486,0.02161476
3346.48079224,0.02178964
3348.40959961,0.02156449
3350.33840698,0.02149462
3352.26721436,0.02154673
3354.19602173,0.02153058
3356.12482910,0.02156100
3358.05363647,0.02144479
3359.98244385,0.02151581
3361.91125122,0.02145803
3363.84005859,0.02137405
3365.76886597,0.02136070
3367.69767334,0.02127510
3369.62648071,0.02129064
3371.55528809,0.02133995
3373.48409546,0.02126717
3375.41290283,0.02122738
3377.34171020,0.02125494
3379.27051758,0.02111506
3381.19932495,0.02115206
3383.12813232,0.02110332
3385.05693970,0.02099531
3386.98574707,0.02105379
3388.91455444,0.02098407
3390.84336182,0.02097994
3392.77216919,0.02097952
3394.70097656,0.02085542
3396.62978394,0.02073582
3398.55859131,0.02085052
3400.48739868,0.02077850
3402.41620605,0.02074577
3404.34501343,0.02084002
3406.27382080,0.02063320
3408.20262817,0.02070984
3410.13143555,0.02070735
3412.06024292,0.02065106
3413.98905029,0.02059431
3415.91785767,0.02054671
3417.84666504,0.02062859
3419.77547241,0.02038178
3421.70427979,0.02033169
3423.63308716,0.02039892
3425.56189453,0.02042350
3427.49070190,0.02029191
3429.41950928,0.02027506
3431.34831665,0.02045169
3433.27712402,0.02034381
3435.20593140,0.02029456
3437.13473877,0.02017627
3439.06354614,0.02025507
3440.99235352,0.02012123
3442.92116089,0.01996953
3444.84996826,0.02013544
3446.77877563,0.01986587
3448.70758301,0.01988456
3450.63639038,0.02001293
3452.56519775,0.02000630
3454.49400513,0.02002612
3456.42281250,0.01994165
3458.35161987,0.01991787
3460.28042725,0.01983708
3462.20923462,0.01982391
3464.13804199,0.01989562
3466.06684937,0.01993757
3467.99565674,0.01976250
3469.92446411,0.01976589
3471.85327148,0.01986019
3473.78207886,0.01981841
3475.71088623,0.01981878
3477.63969360,0.01978437
3479.56850098,0.01975265
3481.49730835,0.01952954
3483.42611572,0.01965012
3485.35492310,0.01971855
3487.28373047,0.01959262
3489.21253784,0.01970219
3491.14134521,0.01968617
3493.07015259,0.01971792
3494.99895996,0.01951114
3496.92776733,0.01948702
3498.85657471,0.01967034
3500.78538208,0.01962949
3502.71418945,0.01930986
3504.64299683,0.01920375
3506.57180420,0.01969725
3508.50061157,0.01953435
3510.42941895,0.01935516
3512.35822632,0.01955084
3514.28703369,0.01961315
3516.21584106,0.01967377
3518.14464844,0.01951512
3520.07345581,0.01954565
3522.00226318,0.01938897
3523.93107056,0.01916150
3525.85987793,0.01922432
3527.78868530,0.01924475
3529.71749268,0.01932326
3531.64630005,0.01951827
3533.57510742,0.01960601
3535.50391479,0.01949439
3537.43272217,0.01951698
3539.36152954,0.01963430
3541.29033691,0.01966676
3543.21914429,0.01947623
3545.14795166,0.01906207
3547.07675903,0.01880337
3549.00556641,0.01926626
3550.93437378,0.01942423
3552.86318115,0.01905022
3554.79198853,0.01941600
3556.72079590,0.01950624
3558.64960327,0.01942970
3560.57841064,0.01924879
3562.50721802,0.01921112
3564.43602539,0.01938272
3566.36483276,0.01798341
3568.29364014,0.01758459
3570.22244751,0.01910747
3572.15125488,0.01958020
3574.08006226,0.01924890
3576.00886963,0.01940989
3577.93767700,0.01940537
3579.86648437,0.01922348
3581.79529175,0.01932544
3583.72409912,0.01943473
3585.65290649,0.01897371
3587.58171387,0.01750918
3589.51052124,0.01802217
3591.43932861,0.01955269
3593.36813599,0.01903870
3595.29694336,0.01861785
3597.22575073,0.01891090
3599.15455811,0.01923155
3601.08336548,0.01896490
3603.01217285,0.01901873
3604.94098022,0.01949755
3606.86978760,0.01884780
3608.79859497,0.01774240
3610.72740234,0.01815214
3612.65620972,0.01861708
3614.58501709,0.01809252
3616.51382446,0.01928622
3618.44263184,0.01789749
3620.37143921,0.01727474
3622.30024658,0.01943010
3624.22905395,0.01893514
3626.15786133,0.01974760
3628.08666870,0.01682185
3630.01547607,0.01539468
3631.94428345,0.01921716
3633.87309082,0.01863373
3635.80189819,0.01905556
3637.73070557,0.01949383
3639.65951294,0.01907292
3641.58832031,0.01932263
3643.51712769,0.01905390
3645.44593506,0.01922505
3647.37474243,0.01742570
3649.30354980,0.01604107
3651.23235718,0.01620155
3653.16116455,0.01909211
3655.08997192,0.01887989
3657.01877930,0.01703514
3658.94758667,0.01955486
3660.87639404,0.01906754
3662.80520142,0.01932756
3664.73400879,0.01931214
3666.66281616,0.01902458
3668.59162354,0.01854342
3670.52043091,0.01527135
3672.44923828,0.01835279
3674.37804565,0.01761142
3676.30685303,0.01467185
3678.23566040,0.01818636
3680.16446777,0.01865580
3682.09327515,0.01873482
3684.02208252,0.01916324
3685.95088989,0.01886561
3687.87969727,0.01707458
3689.80850464,0.01573546
3691.73731201,0.01788011
3693.66611938,0.01830467
3695.59492676,0.01880875
3697.52373413,0.01877462
3699.45254150,0.01859594
3701.38134888,0.01829207
3703.31015625,0.01755201
3705.23896362,0.01920517
3707.16777100,0.01831469
3709.09657837,0.01785735
3711.02538574,0.01680959
3712.95419312,0.01583229
3714.88300049,0.01850933
3716.81180786,0.01815896
3718.74061523,0.01833189
3720.66942261,0.01793102
3722.59822998,0.01735750
3724.52703735,0.01805924
3726.45584473,0.01667009
3728.38465210,0.01801709
3730.31345947,0.01785452
3732.24226685,0.01650624
3734.17107422,0.01618484
3736.09988159,0.01535793
3738.02868896,0.01618078
3739.95749634,0.01745693
3741.88630371,0.01827052
3743.81511108,0.01436012
3745.74391846,0.01362518
3747.67272583,0.01746088
3749.60153320,0.01517676
3751.53034058,0.01405287
3753.45914795,0.01594654
3755.38795532,0.01715289
3757.31676270,0.01773352
3759.24557007,0.01651167
3761.17437744,0.01716346
3763.10318481,0.01809318
3765.03199219,0.01700051
3766.96079956,0.01736582
3768.88960693,0.01712800
3770.81841431,0.01635272
3772.74722168,0.01769356
3774.67602905,0.01768059
3776.60483643,0.01759342
3778.53364380,0.01729724
3780.46245117,0.01670293
3782.39125854,0.01767385
3784.32006592,0.01720985
3786.24887329,0.01712482
3788.17768066,0.01757653
3790.10648804,0.01750019
3792.03529541,0.01735190
3793.96410278,0.01754262
3795.89291016,0.01667675
3797.82171753,0.01648813
3799.75052490,0.01717331
3801.67933228,0.01383243
3803.60813965,0.01608222
3805.53694702,0.01739330
3807.46575439,0.01434545
3809.39456177,0.01720684
3811.32336914,0.01687926
3813.25217651,0.01741537
3815.18098389,0.01586960
3817.10979126,0.01400963
3819.03859863,0.01745832
3820.96740601,0.01430810
3822.89621338,0.01499612
3824.82502075,0.01732356
3826.75382812,0.01570392
3828.68263550,0.01695578
3830.61144287,0.01635571
3832.54025024,0.01572593
3834.46905762,0.01612899
3836.39786499,0.01540461
3838.32667236,0.01389170
3840.25547974,0.01501407
3842.18428711,0.01618659
3844.11309448,0.01552560
3846.04190186,0.01664886
3847.97070923,0.01635872
3849.89951660,0.01648948
3851.82832397,0.01486796
3853.75713135,0.01130798
3855.68593872,0.01330057
3857.61474609,0.01653466
3859.54355347,0.01619008
3861.47236084,0.01597671
3863.40116821,0.01561961
3865.32997559,0.01451803
3867.25878296,0.01606433
3869.18759033,0.01475525
3871.11639770,0.01382356
3873.04520508,0.01621612
3874.97401245,0.01493141
3876.90281982,0.01612848
3878.83162720,0.01632294
3880.76043457,0.01414113
3882.68924194,0.01615249
3884.61804932,0.01510926
3886.54685669,0.01402054
3888.47566406,0.01622868
3890.40447144,0.01536643
3892.33327881,0.01443343
3894.26208618,0.01574246
3896.19089355,0.01602936
3898.11970093,0.01539803
3900.04850830,0.01462507
3901.97731567,0.01433848
3903.90612305,0.01424267
3905.83493042,0.01447603
3907.76373779,0.01573411
3909.69254517,0.01570728
3911.62135254,0.01557683
3913.55015991,0.01588557
3915.47896728,0.01538762
3917.40777466,0.01495811
3919.33658203,0.01479494
3921.26538940,0.01544630
3923.19419678,0.01540228
3925.12300415,0.01502901
3927.05181152,0.01532162
3928.98061890,0.01548753
3930.90942627,0.01516110
3932.83823364,0.01464705
3934.76704102,0.01534393
3936.69584839,0.01540134
3938.62465576,0.01520177
3940.55346313,0.01541959
3942.48227051,0.01469865
3944.41107788,0.01490793
3946.33988525,0.01526649
3948.26869263,0.01481518
3950.19750000,0.01486848
3952.12630737,0.01514899
3954.05511475,0.01513816
3955.98392212,0.01499295
3957.91272949,0.01498835
3959.84153687,0.01503317
3961.77034424,0.01484692
3963.69915161,0.01492693
3965.62795898,0.01515379
3967.55676636,0.01491360
3969.48557373,0.01486099
3971.41438110,0.01479640
3973.34318848,0.01472938
3975.27199585,0.01473849
3977.20080322,0.01468893
3979.12961060,0.01480304
3981.05841797,0.01472349
3982.98722534,0.01477272
3984.91603271,0.01457523
3986.84484009,0.01456882
3988.77364746,0.01474359
3990.70245483,0.01454968
3992.63126221,0.01459340
3994.56006958,0.01454270
3996.48887695,0.01459314
3998.41768433,0.01446851
4000.34649170,0.01442553
4002.27529907,0.01448163
4004.20410645,0.01436809
4006.13291382,0.01446749
4008.06172119,0.01429093
4009.99052856,0.01437132
4011.91933594,0.01432828
4013.84814331,0.01423441
4015.77695068,0.01434582
4017.70575806,0.01422272
4019.63456543,0.01427288
4021.56337280,0.01423421
4023.49218018,0.01422842
4025.42098755,0.01411835
4027.34979492,0.01410084
4029.27860229,0.01417786
4031.20740967,0.01409027
4033.13621704,0.01408323
4035.06502441,0.01399889
4036.99383179,0.01399473
4038.92263916,0.01396756
4040.85144653,0.01401594
4042.78025391,0.01394639
4044.70906128,0.01387321
4046.63786865,0.01390370
4048.56667603,0.01385204
4050.49548340,0.01385477
4052.42429077,0.01377247
4054.35309814,0.01387707
4056.28190552,0.01380011
4058.21071289,0.01374690
4060.13952026,0.01369914
4062.06832764,0.01358798
4063.99713501,0.01376622
4065.92594238,0.01369523
4067.85474976,0.01364670
4069.78355713,0.01352996
4071.71236450,0.01353045
4073.64117187,0.01358614
4075.56997925,0.01353140
4077.49878662,0.01353557
4079.42759399,0.01341492
4081.35640137,0.01352389
4083.28520874,0.01342329
4085.21401611,0.01338967
4087.14282349,0.01335825
4089.07163086,0.01328000
4091.00043823,0.01341647
4092.92924561,0.01328440
4094.85805298,0.01333778
4096.78686035,0.01329766
4098.71566772,0.01323491
4100.64447510,0.01319913
4102.57328247,0.01314117
4104.50208984,0.01326660
4106.43089722,0.01318092
4108.35970459,0.01313412
4110.28851196,0.01307329
4112.21731934,0.01306785
4114.14612671,0.01305623
4116.07493408,0.01298056
4118.00374145,0.01293902
4119.93254883,0.01298178
4121.86135620,0.01304461
4123.79016357,0.01295042
4125.71897095,0.01298788
4127.64777832,0.01283484
4129.57658569,0.01284393
4131.50539307,0.01286252
4133.43420044,0.01271385
4135.36300781,0.01283522
4137.29181519,0.01276073
4139.22062256,0.01278990
4141.14942993,0.01271205
4143.07823730,0.01258080
4145.00704468,0.01266006
4146.93585205,0.01262751
4148.86465942,0.01261390
4150.79346680,0.01261100
4152.72227417,0.01263753
4154.65108154,0.01256840
4156.57988892,0.01260380
4158.50869629,0.01254972
4160.43750366,0.01245577
4162.36631103,0.01253859
4164.29511841,0.01242488
4166.22392578,0.01234590
4168.15273315,0.01232449
4170.08154053,0.01235055
4172.01034790,0.01232989
4173.93915527,0.01232505
4175.86796265,0.01238189
4177.79677002,0.01225689
4179.72557739,0.01220976
4181.65438477,0.01221331
4183.58319214,0.01215616
4185.51199951,0.01216985
4187.44080688,0.01220975
4189.36961426,0.01216636
4191.29842163,0.01215003
4193.22722900,0.01211046
4195.15603638,0.01210648
4197.08484375,0.01208463
4199.01365112,0.01204224
4200.94245850,0.01205686
4202.87126587,0.01184715
4204.80007324,0.01190266
4206.72888062,0.01192012
4208.65768799,0.01181199
4210.58649536,0.01191831
4212.51530273,0.01181714
4214.44411011,0.01181855
4216.37291748,0.01178694
4218.30172485,0.01179172
4220.23053223,0.01183490
4222.15933960,0.01174248
4224.08814697,0.01166179
4226.01695435,0.01164697
4227.94576172,0.01168378
4229.87456909,0.01155770
4231.80337646,0.01167095
4233.73218384,0.01156781
4235.66099121,0.01148558
4237.58979858,0.01166896
4239.51860596,0.01155762
4241.44741333,0.01153713
4243.37622070,0.01143054
4245.30502808,0.01152188
4247.23383545,0.01156516
4249.16264282,0.01143491
4251.09145020,0.01140128
4253.02025757,0.01136096
4254.94906494,0.01152757
4256.87787231,0.01136681
4258.80667969,0.01124279
4260.73548706,0.01126511
4262.66429443,0.01127249
4264.59310181,0.01131157
4266.52190918,0.01125501
4268.45071655,0.01129628
4270.37952393,0.01116732
4272.30833130,0.01113025
4274.23713867,0.01112299
4276.16594604,0.01116424
4278.09475342,0.01114882
4280.02356079,0.01102598
4281.95236816,0.01111102
4283.88117554,0.01104188
4285.80998291,0.01101926
4287.73879028,0.01104074
4289.66759766,0.01109386
4291.59640503,0.01097194
4293.52521240,0.01087478
4295.45401978,0.01093969
4297.38282715,0.01080772
4299.31163452,0.01090981
4301.24044189,0.01084939
4303.16924927,0.01084684
4305.09805664,0.01086371
4307.02686401,0.01074007
4308.95567139,0.01086775
4310.88447876,0.01074781
4312.81328613,0.01070524
4314.74209351,0.01072000
4316.67090088,0.01068558
4318.59970825,0.01068320
4320.52851562,0.01063041
4322.45732300,0.01064740
4324.38613037,0.01062399
4326.31493774,0.01061000
4328.24374512,0.01052944
4330.17255249,0.01056340
4332.10135986,0.01050958
4334.03016724,0.01041739
4335.95897461,0.01049319
4337.88778198,0.01050182
4339.81658936,0.01049931
4341.74539673,0.01040545
4343.67420410,0.01042201
4345.60301147,0.01041571
4347.53181885,0.01033403
4349.46062622,0.01035840
4351.38943359,0.01034640
4353.31824097,0.01023516
4355.24704834,0.01015280
4357.17585571,0.01023662
4359.10466309,0.01022651
4361.03347046,0.01022489
4362.96227783,0.01016402
4364.89108520,0.01009152
4366.81989258,0.01015291
4368.74869995,0.01015699
4370.67750732,0.01015014
4372.60631470,0.01006268
4374.53512207,0.01009357
4376.46392944,0.01010789
4378.39273682,0.01007225
4380.32154419,0.01005355
4382.25035156,0.00997484
4384.17915894,0.00997012
4386.10796631,0.00991406
4388.03677368,0.00998092
4389.96558105,0.00999045
4391.89438843,0.00988930
4393.82319580,0.00987365
4395.75200317,0.00986724
4397.68081055,0.00985387
4399.60961792,0.00979776
4401.53842529,0.00977431
4403.46723267,0.00974821
4405.39604004,0.00981187
4407.32484741,0.00977348
4409.25365478,0.00972949
4411.18246216,0.00974079
4413.11126953,0.00963615
4415.04007690,0.00968029
4416.96888428,0.00964522
4418.89769165,0.00960415
4420.82649902,0.00962119
4422.75530640,0.00958652
4424.68411377,0.00954341
4426.61292114,0.00947994
4428.54172852,0.00949876
4430.47053589,0.00950919
4432.39934326,0.00951535
4434.32815063,0.00947670
4436.25695801,0.00948944
4438.18576538,0.00944711
4440.11457275,0.00940897
4442.04338013,0.00938990
4443.97218750,0.00928424
4445.90099487,0.00935778
4447.82980225,0.00926995
4449.75860962,0.00921892
4451.68741699,0.00925463
4453.61622437,0.00924237
4455.54503174,0.00931592
4457.47383911,0.00916745
4459.40264648,0.00913006
4461.33145386,0.00923584
4463.26026123,0.00926965
4465.18906860,0.00918217
4467.11787598,0.00905525
4469.04668335,0.00902548
4470.97549072,0.00902116
4472.90429810,0.00911688
4474.83310547,0.00914221
4476.76191284,0.00910142
4478.69072021,0.00901299
4480.61952759,0.00895466
4482.54833496,0.00895976
4484.47714233,0.00896548
4486.40594971,0.00896660
4488.33475708,0.00888523
4490.26356445,0.00888507
4492.19237183,0.00890097
4494.12117920,0.00896750
4496.04998657,0.00890690
4497.97879395,0.00884845
4499.90760132,0.00894035
4501.83640869,0.00879342
4503.76521606,0.00876506
4505.69402344,0.00879556
4507.62283081,0.00874705
4509.55163818,0.00877047
4511.48044556,0.00871247
4513.40925293,0.00863698
4515.33806030,0.00863068
4517.26686768,0.00865039
4519.19567505,0.00863346
4521.12448242,0.00865501
4523.05328979,0.00861110
4524.98209717,0.00853193
4526.91090454,0.00849802
4528.83971191,0.00854517
4530.76851929,0.00857601
4532.69732666,0.00852850
4534.62613403,0.00854093
4536.55494141,0.00848780
4538.48374878,0.00851756
4540.41255615,0.00846118
4542.34136353,0.00843446
4544.27017090,0.00845360
4546.19897827,0.00831996
4548.12778564,0.00837428
4550.05659302,0.00828684
4551.98540039,0.00828038
4553.91420776,0.00834472
4555.84301514,0.00829873
4557.77182251,0.00831595
4559.70062988,0.00819547
4561.62943726,0.00821393
4563.55824463,0.00821850
4565.48705200,0.00820719
4567.41585937,0.00820897
4569.34466675,0.00819247
4571.27347412,0.00819325
4573.20228149,0.00809718
4575.13108887,0.00814592
4577.05989624,0.00814182
4578.98870361,0.00810418
4580.91751099,0.00803506
4582.84631836,0.00803906
4584.77512573,0.00810086
4586.70393311,0.00797513
4588.63274048,0.00793462
4590.56154785,0.00793180
4592.49035522,0.00801640
4594.41916260,0.00797956
4596.34796997,0.00790491
4598.27677734,0.00793616
4600.20558472,0.00785966
4602.13439209,0.00793264
4604.06319946,0.00791194
4605.99200684,0.00781864
4607.92081421,0.00782693
4609.84962158,0.00781038
4611.77842895,0.00784439
4613.70723633,0.00781757
4615.63604370,0.00769894
4617.56485107,0.00771608
4619.49365845,0.00772058
4621.42246582,0.00762165
4623.35127319,0.00768180
4625.28008057,0.00762641
4627.20888794,0.00764360
4629.13769531,0.00770052
4631.06650269,0.00758513
4632.99531006,0.00765216
4634.92411743,0.00763418
4636.85292480,0.00761341
4638.78173218,0.00757006
4640.71053955,0.00752285
4642.63934692,0.00759251
4644.56815430,0.00755221
4646.49696167,0.00752762
4648.42576904,0.00747789
4650.35457642,0.00749395
4652.28338379,0.00746107
4654.21219116,0.00744294
4656.14099853,0.00749773
4658.06980591,0.00741370
4659.99861328,0.00738019
4661.92742065,0.00737367
4663.85622803,0.00742483
4665.78503540,0.00742336
4667.71384277,0.00734327
4669.64265015,0.00730637
4671.57145752,0.00733560
4673.50026489,0.00735783
4675.42907227,0.00728591
4677.35787964,0.00730322
4679.28668701,0.00728530
4681.21549438,0.00723330
4683.14430176,0.00718455
4685.07310913,0.00723400
4687.00191650,0.00727534
4688.93072388,0.00715525
4690.85953125,0.00717058
4692.78833862,0.00709958
4694.71714600,0.00703046
4696.64595337,0.00711056
4698.57476074,0.00715401
4700.50356812,0.00712476
4702.43237549,0.00705686
4704.36118286,0.00704098
4706.28999023,0.00702017
4708.21879761,0.00707985
4710.14760498,0.00705025
4712.07641235,0.00698426
4714.00521973,0.00698388
4715.93402710,0.00700678
4717.86283447,0.00701814
4719.79164185,0.00687907
4721.72044922,0.00694801
4723.64925659,0.00693994
4725.57806396,0.00683580
4727.50687134,0.00695494
4729.43567871,0.00689613
4731.36448608,0.00682800
4733.29329346,0.00690180
4735.22210083,0.00689726
4737.15090820,0.00678532
4739.07971558,0.00676198
4741.00852295,0.00682244
4742.93733032,0.00679492
4744.86613770,0.00677748
4746.79494507,0.00677754
4748.72375244,0.00669811
4750.65255981,0.00661785
4752.58136719,0.00667074
4754.51017456,0.00666033
4756.43898193,0.00662190
4758.36778931,0.00668433
4760.29659668,0.00669548
4762.22540405,0.00666417
4764.15421143,0.00659167
4766.08301880,0.00655770
4768.01182617,0.00656728
4769.94063354,0.00655785
4771.86944092,0.00651495
4773.79824829,0.00649457
4775.72705566,0.00652733
4777.65586304,0.00651526
4779.58467041,0.00650600
4781.51347778,0.00648575
4783.44228516,0.00646886
4785.37109253,0.00646200
4787.29989990,0.00646047
4789.22870728,0.00647668
4791.15751465,0.00642285
4793.08632202,0.00632260
4795.01512939,0.00634831
4796.94393677,0.00641673
4798.87274414,0.00634186
4800.80155151,0.00640311
4802.73035889,0.00643179
4804.65916626,0.00632646
4806.58797363,0.00632916
4808.51678101,0.00629513
4810.44558838,0.00633598
4812.37439575,0.00631111
4814.30320312,0.00618375
4816.23201050,0.00616961
4818.16081787,0.00622094
4820.08962524,0.00626188
4822.01843262,0.00621639
4823.94723999,0.00615344
4825.87604736,0.00614385
4827.80485474,0.00621688
4829.73366211,0.00613152
4831.66246948,0.00608743
4833.59127686,0.00614957
4835.52008423,0.00608937
4837.44889160,0.00614561
4839.37769897,0.00602993
4841.30650635,0.00596362
4843.23531372,0.00604819
4845.16412109,0.00603442
4847.09292847,0.00608400
4849.02173584,0.00598411
4850.95054321,0.00599464
4852.87935059,0.00597553
4854.80815796,0.00586458
4856.73696533,0.00594655
4858.66577270,0.00590952
4860.59458008,0.00590979
4862.52338745,0.00591578
4864.45219482,0.00588408
4866.38100220,0.00591797
4868.30980957,0.00588952
4870.23861694,0.00588317
4872.16742432,0.00583357
4874.09623169,0.00579135
4876.02503906,0.00583560
4877.95384644,0.00584905
4879.88265381,0.00582567
4881.81146118,0.00581782
4883.74026855,0.00573735
4885.66907593,0.00564328
4887.59788330,0.00571463
4889.52669067,0.00573650
4891.45549805,0.00570650
4893.38430542,0.00574423
4895.31311279,0.00573813
4897.24192017,0.00572050
4899.17072754,0.00567142
4901.09953491,0.00565542
4903.02834228,0.00567615
4904.95714966,0.00563421
4906.88595703,0.00560194
4908.81476440,0.00555919
4910.74357178,0.00554126
4912.67237915,0.00561336
4914.60118652,0.00561385
4916.52999390,0.00550848
4918.45880127,0.00550189
4920.38760864,0.00553474
4922.31641602,0.00550727
4924.24522339,0.00547204
4926.17403076,0.00543587
4928.10283813,0.00548916
4930.03164551,0.00549847
4931.96045288,0.00548583
4933.88926025,0.00546511
4935.81806763,0.00537176
4937.74687500,0.00545763
4939.67568237,0.00548761
4941.60448975,0.00541389
4943.53329712,0.00541740
4945.46210449,0.00543501
4947.39091187,0.00540315
4949.31971924,0.00533831
4951.24852661,0.00541455
4953.17733398,0.00532170
4955.10614136,0.00524373
4957.03494873,0.00529822
4958.96375610,0.00522872
4960.89256348,0.00529313
4962.82137085,0.00524812
4964.75017822,0.00521952
4966.67898560,0.00526731
4968.60779297,0.00521152
4970.53660034,0.00525559
4972.46540771,0.00520707
4974.39421509,0.00515307
4976.32302246,0.00515718
4978.25182983,0.00513819
4980.18063721,0.00510884
4982.10944458,0.00506695
4984.03825195,0.00509636
4985.96705933,0.00515380
4987.89586670,0.00511432
4989.82467407,0.00503790
4991.75348145,0.00514559
4993.68228882,0.00512091
4995.61109619,0.00503748
4997.53990356,0.00511139
4999.46871094,0.00503289
5001.39751831,0.00503160
5003.32632568,0.00506441
5005.25513306,0.00491896
5007.18394043,0.00490681
5009.11274780,0.00503914
5011.04155518,0.00499081
5012.97036255,0.00493554
5014.89916992,0.00497673
5016.82797729,0.00490007
5018.75678467,0.00491087
5020.68559204,0.00492910
5022.61439941,0.00488462
5024.54320679,0.00487571
5026.47201416,0.00486844
5028.40082153,0.00488235
5030.32962891,0.00486228
5032.25843628,0.00489724
5034.18724365,0.00489075
5036.11605103,0.00483010
5038.04485840,0.00478680
5039.97366577,0.00477991
5041.90247314,0.00486711
5043.83128052,0.00484417
5045.76008789,0.00478455
5047.68889526,0.00479737
5049.61770264,0.00470196
5051.54651001,0.00467155
5053.47531738,0.00476649
5055.40412476,0.00465136
5057.33293213,0.00461905
5059.26173950,0.00467317
5061.19054687,0.00460156
5063.11935425,0.00469877
5065.04816162,0.00468149
5066.97696899,0.00464992
5068.90577637,0.00466532
5070.83458374,0.00459469
5072.76339111,0.00460558
5074.69219849,0.00452387
5076.62100586,0.00458628
5078.54981323,0.00461855
5080.47862061,0.00449964
5082.40742798,0.00454440
5084.33623535,0.00458906
5086.26504272,0.00457078
5088.19385010,0.00447986
5090.12265747,0.00447866
5092.05146484,0.00455572
5093.98027222,0.00449401
5095.90907959,0.00444274
5097.83788696,0.00449006
5099.76669434,0.00446966
5101.69550171,0.00442572
5103.62430908,0.00446326
5105.55311645,0.00449139
5107.48192383,0.00440737
5109.41073120,0.00431520
5111.33953857,0.00446883
5113.26834595,0.00446546
5115.19715332,0.00437291
5117.12596069,0.00442444
5119.05476807,0.00431964
5120.98357544,0.00436227
5122.91238281,0.00437225
5124.84119019,0.00433991
5126.76999756,0.00434362
5128.69880493,0.00431665
5130.62761230,0.00443063
5132.55641968,0.00430818
5134.48522705,0.00426151
5136.41403442,0.00432190
5138.34284180,0.00426439
5140.27164917,0.00429274
5142.20045654,0.00422632
5144.12926392,0.00417527
5146.05807129,0.00420827
5147.98687866,0.00423274
5149.91568603,0.00423796
5151.84449341,0.00421519
5153.77330078,0.00414584
5155.70210815,0.00418874
5157.63091553,0.00417108
5159.55972290,0.00403915
5161.48853027,0.00415696
5163.41733765,0.00414261
5165.34614502,0.00409277
5167.27495239,0.00413805
5169.20375977,0.00410717
5171.13256714,0.00412131
5173.06137451,0.00408404
5174.99018188,0.00408601
5176.91898926,0.00404271
5178.84779663,0.00403903
5180.77660400,0.00403393
5182.70541138,0.00402287
5184.63421875,0.00402840
5186.56302612,0.00394843
5188.49183350,0.00404766
5190.42064087,0.00401528
5192.34944824,0.00400147
5194.27825562,0.00402582
5196.20706299,0.00391683
5198.13587036,0.00396101
5200.06467773,0.00393118
5201.99348511,0.00399001
5203.92229248,0.00400930
5205.85109985,0.00390466
5207.77990723,0.00389320
5209.70871460,0.00386863
5211.63752197,0.00390165
5213.56632935,0.00392711
5215.49513672,0.00391496
5217.42394409,0.00382332
5219.35275146,0.00383031
5221.28155884,0.00385706
5223.21036621,0.00375934
5225.13917358,0.00374659
5227.06798096,0.00375626
5228.99678833,0.00382553
5230.92559570,0.00380657
5232.85440308,0.00376803
5234.78321045,0.00382021
5236.71201782,0.00378380
5238.64082520,0.00372721
5240.56963257,0.00379260
5242.49843994,0.00386106
5244.42724731,0.00371050
5246.35605469,0.00373374
5248.28486206,0.00369442
5250.21366943,0.00358532
5252.14247681,0.00381364
5254.07128418,0.00374882
5256.00009155,0.00368841
5257.92889893,0.00375814
5259.85770630,0.00367595
5261.78651367,0.00367411
5263.71532104,0.00360177
5265.64412842,0.00364901
5267.57293579,0.00367476
5269.50174316,0.00359223
5271.43055054,0.00363624
5273.35935791,0.00368336
5275.28816528,0.00367476
5277.21697266,0.00361938
5279.14578003,0.00363378
5281.07458740,0.00361217
5283.00339478,0.00360552
5284.93220215,0.00360341
5286.86100952,0.00358232
5288.78981689,0.00359648
5290.71862427,0.00345779
5292.64743164,0.00352588
5294.57623901,0.00363699
5296.50504639,0.00352897
5298.43385376,0.00348572
5300.36266113,0.00347680
5302.29146851,0.00348761
5304.22027588,0.00342073
5306.14908325,0.00342406
5308.07789062,0.00348704
5310.00669800,0.00349005
5311.93550537,0.00347512
5313.86431274,0.00346824
5315.79312012,0.00352620
5317.72192749,0.00341044
5319.65073486,0.00339203
5321.57954224,0.00346512
5323.50834961,0.00346743
5325.43715698,0.00346410
5327.36596436,0.00328252
5329.29477173,0.00333972
5331.22357910,0.00343117
5333.15238647,0.00333069
5335.08119385,0.00335186
5337.01000122,0.00330001
5338.93880859,0.00321576
5340.86761597,0.00330018
5342.79642334,0.00335666
5344.72523071,0.00321192
5346.65403809,0.00321413
5348.58284546,0.00332717
5350.51165283,0.00333958
5352.44046020,0.00327230
5354.36926758,0.00322085
5356.29807495,0.00331930
5358.22688232,0.00327727
5360.15568970,0.00329207
5362.08449707,0.00328868
5364.01330444,0.00319159
5365.94211182,0.00327627
5367.87091919,0.00325753
5369.79972656,0.00324282
5371.72853394,0.00320357
5373.65734131,0.00319018
5375.58614868,0.00318218
5377.51495605,0.00314126
5379.44376343,0.00328585
5381.37257080,0.00324317
5383.30137817,0.00315932
5385.23018555,0.00314739
5387.15899292,0.00309746
5389.08780029,0.00314097
5391.01660767,0.00318157
5392.94541504,0.00311899
5394.87422241,0.00303171
5396.80302978,0.00310644
5398.73183716,0.00312472
5400.66064453,0.00311868
5402.58945190,0.00307102
5404.51825928,0.00300400
5406.44706665,0.00311502
5408.37587402,0.00306875
5410.30468140,0.00304402
5412.23348877,0.00303313
5414.16229614,0.00296236
5416.09110352,0.00302795
5418.01991089,0.00301216
5419.94871826,0.00302747
5421.87752563,0.00302995
5423.80633301,0.00298957
5425.73514038,0.00305867
5427.66394775,0.00301313
5429.59275513,0.00289385
5431.52156250,0.00294603
5433.45036987,0.00299677
5435.37917725,0.00288853
5437.30798462,0.00289910
5439.23679199,0.00297395
5441.16559936,0.00290262
5443.09440674,0.00292975
5445.02321411,0.00298834
5446.95202148,0.00289483
5448.88082886,0.00286703
5450.80963623,0.00291020
5452.73844360,0.00294089
5454.66725098,0.00290694
5456.59605835,0.00285016
5458.52486572,0.00293596
5460.45367310,0.00297261
5462.38248047,0.00291061
5464.31128784,0.00287520
5466.24009521,0.00286518
5468.16890259,0.00281604
5470.09770996,0.00281296
5472.02651733,0.00295184
5473.95532471,0.00287825
5475.88413208,0.00274194
5477.81293945,0.00278721
5479.74174683,0.00282716
5481.67055420,0.00284937
5483.59936157,0.00277007
5485.52816895,0.00276256
5487.45697632,0.00282777
5489.38578369,0.00278274
5491.31459106,0.00280451
5493.24339844,0.00278639
5495.17220581,0.00272474
5497.10101318,0.00277634
5499.02982056,0.00273865
5500.95862793,0.00271920
5502.88743530,0.00277071
5504.81624268,0.00274342
5506.74505005,0.00276013
5508.67385742,0.00272261
5510.60266479,0.00273391
5512.53147217,0.00274043
5514.46027954,0.00267137
5516.38908691,0.00268847
5518.31789429,0.00261255
5520.24670166,0.00268995
5522.17550903,0.00271003
5524.10431641,0.00263101
5526.03312378,0.00275553
5527.96193115,0.00268405
5529.89073853,0.00264178
5531.81954590,0.00268093
5533.74835327,0.00267033
5535.67716064,0.00268721
5537.60596802,0.00263437
5539.53477539,0.00258893
5541.46358276,0.00256398
5543.39239014,0.00262799
5545.32119751,0.00260325
5547.25000488,0.00256088
5549.17881226,0.00260699
5551.10761963,0.00258476
5553.03642700,0.00258865
5554.96523437,0.00258972
5556.89404175,0.00259157
5558.82284912,0.00252141
5560.75165649,0.00251565
5562.68046387,0.00258920
5564.60927124,0.00253798
5566.53807861,0.00256959
5568.46688599,0.00258658
5570.39569336,0.00254210
5572.32450073,0.00255650
5574.25330811,0.00248333
5576.18211548,0.00245418
5578.11092285,0.00253353
5580.03973022,0.00251009
5581.96853760,0.00249134
5583.89734497,0.00254007
5585.82615234,0.00253202
5587.75495972,0.00245287
5589.68376709,0.00243799
5591.61257446,0.00249215
5593.54138184,0.00240614
5595.47018921,0.00245205
5597.39899658,0.00248172
5599.32780395,0.00237686
5601.25661133,0.00249165
5603.18541870,0.00245283
5605.11422607,0.00237331
5607.04303345,0.00241149
5608.97184082,0.00239719
5610.90064819,0.00241564
5612.82945557,0.00237707
5614.75826294,0.00239323
5616.68707031,0.00242478
5618.61587769,0.00236336
5620.54468506,0.00230815
5622.47349243,0.00235162
5624.40229980,0.00236931
5626.33110718,0.00236461
5628.25991455,0.00237649
5630.18872192,0.00228937
5632.11752930,0.00232343
5634.04633667,0.00233981
5635.97514404,0.00230597
5637.90395142,0.00231912
5639.83275879,0.00234144
5641.76156616,0.00238609
5643.69037353,0.00229402
5645.61918091,0.00228069
5647.54798828,0.00230170
5649.47679565,0.00231243
5651.40560303,0.00228926
5653.33441040,0.00221325
5655.26321777,0.00225787
5657.19202515,0.00225768
5659.12083252,0.00230698
5661.04963989,0.00224594
5662.97844727,0.00215651
5664.90725464,0.00223474
5666.83606201,0.00227024
5668.76486938,0.00227740
5670.69367676,0.00219019
5672.62248413,0.00219092
5674.55129150,0.00220293
5676.48009888,0.00221187
5678.40890625,0.00224983
5680.33771362,0.00217612
5682.26652100,0.00222302
5684.19532837,0.00219512
5686.12413574,0.00210887
5688.05294311,0.00211696
5689.98175049,0.00212073
5691.91055786,0.00214510
5693.83936523,0.00216560
5695.76817261,0.00218960
5697.69697998,0.00214374
5699.62578735,0.00210750
5701.55459473,0.00209911
5703.48340210,0.00213031
5705.41220947,0.00219186
5707.34101685,0.00210026
5709.26982422,0.00203900
5711.19863159,0.00210289
5713.12743896,0.00208303
5715.05624634,0.00203854
5716.98505371,0.00205839
5718.91386108,0.00206475
5720.84266846,0.00212766
5722.77147583,0.00211166
5724.70028320,0.00203195
5726.62909058,0.00205955
5728.55789795,0.00204536
5730.48670532,0.00208477
5732.41551270,0.00207797
5734.34432007,0.00199141
5736.27312744,0.00200056
5738.20193481,0.00198952
5740.13074219,0.00197315
5742.05954956,0.00197724
5743.98835693,0.00201813
5745.91716431,0.00199496
5747.84597168,0.00197491
5749.77477905,0.00203417
5751.70358643,0.00199086
5753.63239380,0.00197142
5755.56120117,0.00196775
5757.49000854,0.00195966
5759.41881592,0.00197755
5761.34762329,0.00195721
5763.27643066,0.00196925
5765.20523804,0.00194412
5767.13404541,0.00193721
5769.06285278,0.00196652
5770.99166016,0.00193082
5772.92046753,0.00189474
5774.84927490,0.00191575
5776.77808228,0.00194285
5778.70688965,0.00191041
5780.63569702,0.00194872
5782.56450439,0.00192939
5784.49331177,0.00183017
5786.42211914,0.00191161
5788.35092651,0.00193264
5790.27973389,0.00187141
5792.20854126,0.00189060
5794.13734863,0.00187681
5796.06615601,0.00184249
5797.99496338,0.00187999
5799.92377075,0.00190994
5801.85257812,0.00179157
5803.78138550,0.00180692
5805.71019287,0.00188872
5807.63900024,0.00183249
5809.56780762,0.00182808
5811.49661499,0.00182765
5813.42542236,0.00187731
5815.35422974,0.00185869
5817.28303711,0.00179346
5819.21184448,0.00176496
5821.14065186,0.00174855
5823.06945923,0.00185257
5824.99826660,0.00181507
5826.92707397,0.00181353
5828.85588135,0.00184187
5830.78468872,0.00178274
5832.71349609,0.00184504
5834.64230347,0.00182581
5836.57111084,0.00177005
5838.49991821,0.00171640
5840.42872559,0.00177526
5842.35753296,0.00183236
5844.28634033,0.00174036
5846.21514770,0.00178297
5848.14395508,0.00181136
5850.07276245,0.00177501
5852.00156982,0.00173216
5853.93037720,0.00173130
5855.85918457,0.00171876
5857.78799194,0.00167529
5859.71679932,0.00173555
5861.64560669,0.00171005
5863.57441406,0.00167762
5865.50322144,0.00168683
5867.43202881,0.00169969
5869.36083618,0.00171157
5871.28964355,0.00164568
5873.21845093,0.00165948
5875.14725830,0.00170802
5877.07606567,0.00168339
5879.00487305,0.00164372
5880.93368042,0.00163783
5882.86248779,0.00164445
5884.79129517,0.00164113
5886.72010254,0.00164569
5888.64890991,0.00166228
5890.57771728,0.00161887
5892.50652466,0.00160435
5894.43533203,0.00167764
5896.36413940,0.00161225
5898.29294678,0.00158050
5900.22175415,0.00161993
5902.15056152,0.00162371
5904.07936890,0.00165555
5906.00817627,0.00159434
5907.93698364,0.00157551
5909.86579102,0.00162029
5911.79459839,0.00159362
5913.72340576,0.00155713
5915.65221313,0.00161684
5917.58102051,0.00160454
5919.50982788,0.00155245
5921.43863525,0.00161544
5923.36744263,0.00156990
5925.29625000,0.00154667
5927.22505737,0.00150133
5929.15386475,0.00150553
5931.08267212,0.00159278
5933.01147949,0.00154559
5934.94028686,0.00159643
5936.86909424,0.00158054
5938.79790161,0.00153919
5940.72670898,0.00154453
5942.65551636,0.00155420
5944.58432373,0.00158385
5946.51313110,0.00151539
5948.44193848,0.00155303
5950.37074585,0.00155193
5952.29955322,0.00151867
5954.22836060,0.00147040
5956.15716797,0.00149024
5958.08597534,0.00157481
5960.01478271,0.00145855
5961.94359009,0.00150214
5963.87239746,0.00150191
5965.80120483,0.00146477
5967.73001221,0.00153821
5969.65881958,0.00146619
5971.58762695,0.00152010
5973.51643433,0.00151457
5975.44524170,0.00142269
5977.37404907,0.00146912
5979.30285645,0.00149342
5981.23166382,0.00150439
5983.16047119,0.00150558
5985.08927856,0.00144245
5987.01808594,0.00143920
5988.94689331,0.00146983
5990.87570068,0.00142374
5992.80450806,0.00141799
5994.73331543,0.00139187
5996.66212280,0.00146357
5998.59093018,0.00146426
6000.51973755,0.00130193
