399.26312622,-0.00009529
401.19193359,0.00026388
403.12074097,0.00021413
405.04954834,-0.00015863
406.97835571,0.00028493
408.90716309,0.00013995
410.83597046,0.00002836
412.76477783,0.00043067
414.69358521,0.00029449
416.62239258,0.00019862
418.55119995,0.00030566
420.48000732,0.00003426
422.40881470,0.00002433
424.33762207,0.00019546
426.26642944,0.00008071
428.19523682,0.00032220
430.12404419,0.00024058
432.05285156,0.00009511
433.98165894,0.00030063
435.91046631,0.00000553
437.83927368,0.00003917
439.76808105,0.00024169
441.69688843,0.00014725
443.62569580,0.00003204
445.55450317,0.00032065
447.48331055,0.00047846
449.41211792,-0.00006659
451.34092529,-0.00014536
453.26973267,0.00013957
455.19854004,0.00016705
457.12734741,0.00014808
459.05615479,0.00026272
460.98496216,0.00017643
462.91376953,0.00010993
464.84257690,0.00043264
466.77138428,0.00035065
468.70019165,0.00028635
470.62899902,0.00004585
472.55780640,-0.00015963
474.48661377,0.00032670
476.41542114,0.00026177
478.34422852,0.00013120
480.27303589,0.00034156
482.20184326,0.00017323
484.13065063,0.00021998
486.05945801,0.00040879
487.98826538,0.00045756
489.91707275,0.00059080
491.84588013,0.00006943
493.77468750,-0.00023865
495.70349487,0.00018555
497.63230225,0.00025577
499.56110962,0.00035471
501.48991699,0.00017564
503.41872437,0.00005789
505.34753174,0.00014439
507.27633911,0.00007317
509.20514648,0.00007781
511.13395386,0.00007577
513.06276123,0.00044021
514.99156860,0.00009759
516.92037598,0.00011367
518.84918335,0.00044960
520.77799072,0.00011978
522.70679810,0.00042459
524.63560547,0.00017484
526.56441284,0.00022995
528.49322021,0.00028865
530.42202759,-0.00005676
532.35083496,0.00022160
534.27964233,0.00014156
536.20844971,0.00024944
538.13725708,0.00014374
540.06606445,0.00024750
541.99487183,0.00023369
543.92367920,0.00005742
545.85248657,0.00042787
547.78129395,0.00018560
549.71010132,0.00022739
551.63890869,0.00005544
553.56771606,0.00006332
555.49652344,0.00042241
557.42533081,0.00034869
559.35413818,0.00031551
561.28294556,-0.00005347
563.21175293,0.00036298
565.14056030,0.00044800
567.06936768,0.00022155
568.99817505,0.00033767
570.92698242,0.00009972
572.85578979,0.00031510
574.78459717,-0.00001174
576.71340454,-0.00005707
578.64221191,0.00026330
580.57101929,0.00030861
582.49982666,0.00036213
584.42863403,0.00018841
586.35744141,0.00037830
588.28624878,-0.00003355
590.21505615,-0.00016032
592.14386353,0.00023023
594.07267090,0.00021979
596.00147827,0.00027877
597.93028564,0.00014823
599.85909302,0.00004730
601.78790039,0.00003680
603.71670776,0.00024933
605.64551514,0.00013198
607.57432251,0.00009651
609.50312988,0.00028720
611.43193726,0.00008621
613.36074463,0.00026414
615.28955200,0.00026473
617.21835938,0.00015437
619.14716675,0.00020711
621.07597412,0.00011975
623.00478149,0.00001051
624.93358887,-0.00009377
626.86239624,0.00016064
628.79120361,0.00034103
630.72001099,0.00031979
632.64881836,0.00004158
634.57762573,-0.00005668
636.50643311,0.00024549
638.43524048,0.00019453
640.36404785,0.00011431
642.29285522,0.00009499
644.22166260,0.00008852
646.15046997,0.00005202
648.07927734,0.00015511
650.00808472,-0.00000127
651.93689209,-0.00009118
653.86569946,0.00045189
655.79450684,0.00018027
657.72331421,0.00004079
659.65212158,0.00024844
661.58092896,0.00007436
663.50973633,0.00033838
665.43854370,0.00040192
667.36735107,0.00024806
669.29615845,0.00022910
671.22496582,0.00045947
673.15377319,0.00026943
675.08258057,0.00002782
677.01138794,0.00045279
678.94019531,0.00020247
680.86900269,-0.00011332
682.79781006,0.00011285
684.72661743,0.00036896
686.65542480,0.00021226
688.58423218,-0.00001707
690.51303955,0.00029466
692.44184692,0.00019577
694.37065430,0.00043151
696.29946167,0.00085683
698.22826904,0.00051848
700.15707642,0.00022628
702.08588379,0.00019725
704.01469116,0.00037153
705.94349854,0.00022152
707.87230591,0.00033408
709.80111328,0.00051035
711.72992065,0.00000302
713.65872803,0.00003883
715.58753540,0.00016027
717.51634277,0.00014106
719.44515015,0.00033244
721.37395752,0.00022460
723.30276489,0.00010264
725.23157227,0.00014038
727.16037964,-0.00007069
729.08918701,-0.00006978
731.01799438,0.00022422
732.94680176,0.00013697
734.87560913,0.00017996
736.80441650,0.00009287
738.73322388,0.00028851
740.66203125,0.00036580
742.59083862,-0.00003380
744.51964600,0.00033588
746.44845337,0.00025783
748.37726074,-0.00002944
750.30606812,0.00006393
752.23487549,0.00023532
754.16368286,0.00044818
756.09249023,0.00023775
758.02129761,0.00025651
759.95010498,0.00018388
761.87891235,0.00004232
763.80771973,0.00035492
765.73652710,0.00041432
767.66533447,0.00003395
769.59414185,0.00014758
771.52294922,0.00034449
773.45175659,0.00006410
775.38056396,0.00024660
777.30937134,0.00004457
779.23817871,-0.00006255
781.16698608,0.00042016
783.09579346,0.00015307
785.02460083,-0.00004411
786.95340820,0.00021795
788.88221558,0.00026070
790.81102295,0.00008342
792.73983032,0.00014500
794.66863770,0.00016298
796.59744507,0.00005859
798.52625244,-0.00004461
800.45505981,0.00009707
802.38386719,0.00050473
804.31267456,0.00012710
806.24148193,0.00009963
808.17028931,0.00043181
810.09909668,0.00024466
812.02790405,0.00047711
813.95671143,0.00047759
815.88551880,0.00013762
817.81432617,0.00016232
819.74313354,0.00014747
821.67194092,0.00004398
823.60074829,0.00017725
825.52955566,0.00022323
827.45836304,0.00028298
829.38717041,0.00047793
831.31597778,0.00025749
833.24478516,0.00012559
835.17359253,0.00022909
837.10239990,0.00021448
839.03120728,0.00037475
840.96001465,0.00050749
842.88882202,0.00043557
844.81762939,0.00039208
846.74643677,0.00020479
848.67524414,0.00024515
850.60405151,0.00067396
852.53285889,0.00044182
854.46166626,0.00015365
856.39047363,0.00036835
858.31928101,0.00030539
860.24808838,0.00024180
862.17689575,0.00030649
864.10570313,0.00032249
866.03451050,0.00022193
867.96331787,0.00012339
869.89212524,0.00020390
871.82093262,0.00045842
873.74973999,0.00038190
875.67854736,0.00017748
877.60735474,0.00041525
879.53616211,0.00025063
881.46496948,0.00016064
883.39377686,0.00025813
885.32258423,0.00021783
887.25139160,0.00026364
889.18019897,0.00024292
891.10900635,0.00047192
893.03781372,0.00029988
894.96662109,0.00023867
896.89542847,0.00031442
898.82423584,0.00020452
900.75304321,0.00030074
902.68185059,0.00013401
904.61065796,0.00032736
906.53946533,0.00041377
908.46827271,0.00019666
910.39708008,0.00027228
912.32588745,0.00029435
914.25469482,0.00021910
916.18350220,0.00023234
918.11230957,0.00026657
920.04111694,0.00015931
921.96992432,0.00034926
923.89873169,0.00041688
925.82753906,0.00027769
927.75634644,0.00025355
929.68515381,0.00013098
931.61396118,0.00026024
933.54276855,0.00051082
935.47157593,0.00046091
937.40038330,0.00025927
939.32919067,0.00037061
941.25799805,0.00047402
943.18680542,0.00034093
945.11561279,0.00034061
947.04442017,0.00039828
948.97322754,0.00036639
950.90203491,0.00023999
952.83084229,0.00034816
954.75964966,0.00041680
956.68845703,0.00044134
958.61726440,0.00045638
960.54607178,0.00035671
962.47487915,0.00037396
964.40368652,0.00008214
966.33249390,0.00031583
968.26130127,0.00057160
970.19010864,0.00040674
972.11891602,0.00050376
974.04772339,0.00036887
975.97653076,0.00047932
977.90533813,0.00049611
979.83414551,0.00048076
981.76295288,0.00059016
983.69176025,0.00060775
985.62056763,0.00054309
987.54937500,0.00045334
989.47818237,0.00067937
991.40698975,0.00058461
993.33579712,0.00060584
995.26460449,0.00063389
997.19341187,0.00062306
999.12221924,0.00076262
1001.05102661,0.00077922
1002.97983398,0.00088554
1004.90864136,0.00089747
1006.83744873,0.00118009
1008.76625610,0.00103550
1010.69506348,0.00095159
1012.62387085,0.00129714
1014.55267822,0.00126742
1016.48148560,0.00139690
1018.41029297,0.00140983
1020.33910034,0.00143797
1022.26790771,0.00138812
1024.19671509,0.00146978
1026.12552246,0.00166561
1028.05432983,0.00154283
1029.98313721,0.00172456
1031.91194458,0.00177233
1033.84075195,0.00180721
1035.76955933,0.00175148
1037.69836670,0.00178091
1039.62717407,0.00187745
1041.55598145,0.00163930
1043.48478882,0.00190466
1045.41359619,0.00213854
1047.34240356,0.00194814
1049.27121094,0.00152396
1051.20001831,0.00160012
1053.12882568,0.00182808
1055.05763306,0.00153482
1056.98644043,0.00160016
1058.91524780,0.00168536
1060.84405518,0.00178046
1062.77286255,0.00152838
1064.70166992,0.00149437
1066.63047729,0.00178706
1068.55928467,0.00143039
1070.48809204,0.00144035
1072.41689941,0.00134932
1074.34570679,0.00122252
1076.27451416,0.00130027
1078.20332153,0.00119744
1080.13212891,0.00131007
1082.06093628,0.00129696
1083.98974365,0.00118558
1085.91855103,0.00112611
1087.84735840,0.00113668
1089.77616577,0.00094532
1091.70497314,0.00092914
1093.63378052,0.00097066
1095.56258789,0.00089537
1097.49139526,0.00102740
1099.42020264,0.00097262
1101.34901001,0.00111290
1103.27781738,0.00096316
1105.20662476,0.00091929
1107.13543213,0.00118191
1109.06423950,0.00092128
1110.99304687,0.00090528
1112.92185425,0.00099107
1114.85066162,0.00078029
1116.77946899,0.00078753
1118.70827637,0.00120717
1120.63708374,0.00112595
1122.56589111,0.00101694
1124.49469849,0.00119406
1126.42350586,0.00089135
1128.35231323,0.00100040
1130.28112061,0.00105949
1132.20992798,0.00096015
1134.13873535,0.00114130
1136.06754272,0.00116131
1137.99635010,0.00111000
1139.92515747,0.00105658
1141.85396484,0.00124257
1143.78277222,0.00129879
1145.71157959,0.00125960
1147.64038696,0.00133014
1149.56919434,0.00144932
1151.49800171,0.00150928
1153.42680908,0.00147320
1155.35561646,0.00160517
1157.28442383,0.00173671
1159.21323120,0.00182657
1161.14203857,0.00169583
1163.07084595,0.00165392
1164.99965332,0.00183235
1166.92846069,0.00208407
1168.85726807,0.00199218
1170.78607544,0.00179066
1172.71488281,0.00207592
1174.64369019,0.00183174
1176.57249756,0.00208469
1178.50130493,0.00244691
1180.43011230,0.00202201
1182.35891968,0.00229786
1184.28772705,0.00243843
1186.21653442,0.00248806
1188.14534180,0.00283243
1190.07414917,0.00294486
1192.00295654,0.00293034
1193.93176392,0.00316873
1195.86057129,0.00337600
1197.78937866,0.00328377
1199.71818604,0.00373033
1201.64699341,0.00373941
1203.57580078,0.00367284
1205.50460815,0.00395738
1207.43341553,0.00385148
1209.36222290,0.00407704
1211.29103027,0.00429272
1213.21983765,0.00440085
1215.14864502,0.00448325
1217.07745239,0.00473078
1219.00625977,0.00474237
1220.93506714,0.00475676
1222.86387451,0.00514883
1224.79268188,0.00479945
1226.72148926,0.00489190
1228.65029663,0.00513133
1230.57910400,0.00491626
1232.50791138,0.00493988
1234.43671875,0.00496173
1236.36552612,0.00512724
1238.29433350,0.00497440
1240.22314087,0.00500914
1242.15194824,0.00496386
1244.08075562,0.00467637
1246.00956299,0.00493410
1247.93837036,0.00510427
1249.86717773,0.00502653
1251.79598511,0.00500302
1253.72479248,0.00503905
1255.65359985,0.00471458
1257.58240723,0.00472789
1259.51121460,0.00487198
1261.44002197,0.00456676
1263.36882935,0.00461245
1265.29763672,0.00459773
1267.22644409,0.00458897
1269.15525146,0.00442559
1271.08405884,0.00439021
1273.01286621,0.00452383
1274.94167358,0.00428063
1276.87048096,0.00434551
1278.79928833,0.00419443
1280.72809570,0.00409103
1282.65690308,0.00412811
1284.58571045,0.00399091
1286.51451782,0.00389220
1288.44332520,0.00382978
1290.37213257,0.00410997
1292.30093994,0.00379030
1294.22974731,0.00360490
1296.15855469,0.00380614
1298.08736206,0.00362092
1300.01616943,0.00380624
1301.94497681,0.00386020
1303.87378418,0.00389726
1305.80259155,0.00394340
1307.73139893,0.00392623
1309.66020630,0.00411804
1311.58901367,0.00406448
1313.51782104,0.00413714
1315.44662842,0.00425022
1317.37543579,0.00442641
1319.30424316,0.00453432
1321.23305054,0.00447774
1323.16185791,0.00471274
1325.09066528,0.00486165
1327.01947266,0.00507086
1328.94828003,0.00530963
1330.87708740,0.00524365
1332.80589478,0.00512980
1334.73470215,0.00526948
1336.66350952,0.00549450
1338.59231689,0.00548727
1340.52112427,0.00556843
1342.44993164,0.00575702
1344.37873901,0.00584076
1346.30754639,0.00572094
1348.23635376,0.00569722
1350.16516113,0.00578583
1352.09396851,0.00557156
1354.02277588,0.00560507
1355.95158325,0.00578868
1357.88039062,0.00574400
1359.80919800,0.00571595
1361.73800537,0.00540834
1363.66681274,0.00517960
1365.59562012,0.00544135
1367.52442749,0.00545929
1369.45323486,0.00543104
1371.38204224,0.00554734
1373.31084961,0.00528975
1375.23965698,0.00533338
1377.16846436,0.00555158
1379.09727173,0.00553333
1381.02607910,0.00553207
1382.95488647,0.00543424
1384.88369385,0.00543895
1386.81250122,0.00528480
1388.74130859,0.00530408
1390.67011597,0.00564236
1392.59892334,0.00550457
1394.52773071,0.00530343
1396.45653809,0.00542362
1398.38534546,0.00541709
1400.31415283,0.00551264
1402.24296021,0.00577981
1404.17176758,0.00557649
1406.10057495,0.00566166
1408.02938232,0.00598077
1409.95818970,0.00579266
1411.88699707,0.00552828
1413.81580444,0.00552528
1415.74461182,0.00585711
1417.67341919,0.00520081
1419.60222656,0.00474305
1421.53103394,0.00543045
1423.45984131,0.00533356
1425.38864868,0.00509410
1427.31745605,0.00500539
1429.24626343,0.00486891
1431.17507080,0.00474901
1433.10387817,0.00463948
1435.03268555,0.00434886
1436.96149292,0.00389954
1438.89030029,0.00443453
1440.81910767,0.00461797
1442.74791504,0.00436010
1444.67672241,0.00423084
1446.60552979,0.00389343
1448.53433716,0.00407608
1450.46314453,0.00415480
1452.39195190,0.00441475
1454.32075928,0.00447514
1456.24956665,0.00381138
1458.17837402,0.00391467
1460.10718140,0.00488879
1462.03598877,0.00540901
1463.96479614,0.00523796
1465.89360352,0.00550090
1467.82241089,0.00618889
1469.75121826,0.00643366
1471.68002563,0.00608196
1473.60883301,0.00632151
1475.53764038,0.00696982
1477.46644775,0.00739612
1479.39525513,0.00800644
1481.32406250,0.00813797
1483.25286987,0.00853790
1485.18167725,0.00888055
1487.11048462,0.00881485
1489.03929199,0.00870402
1490.96809937,0.00885596
1492.89690674,0.01027825
1494.82571411,0.00986952
1496.75452148,0.00899142
1498.68332886,0.01017702
1500.61213623,0.01030915
1502.54094360,0.01092756
1504.46975098,0.01026971
1506.39855835,0.00786742
1508.32736572,0.00968184
1510.25617310,0.01105525
1512.18498047,0.01064199
1514.11378784,0.01144242
1516.04259521,0.01045210
1517.97140259,0.01091140
1519.90020996,0.01066453
1521.82901733,0.00934117
1523.75782471,0.01109221
1525.68663208,0.01093024
1527.61543945,0.01096577
1529.54424683,0.01215962
1531.47305420,0.01161230
1533.40186157,0.01071108
1535.33066895,0.01147957
1537.25947632,0.01220315
1539.18828369,0.00915160
1541.11709106,0.00941115
1543.04589844,0.01101391
1544.97470581,0.01079650
1546.90351318,0.01237736
1548.83232056,0.01168430
1550.76112793,0.01225139
1552.68993530,0.01208664
1554.61874268,0.01111886
1556.54755005,0.01158947
1558.47635742,0.00835081
1560.40516479,0.00931321
1562.33397217,0.01261157
1564.26277954,0.01192437
1566.19158691,0.01241587
1568.12039429,0.01221753
1570.04920166,0.01105515
1571.97800903,0.01249105
1573.90681641,0.01253127
1575.83562378,0.01028618
1577.76443115,0.01156329
1579.69323853,0.01316080
1581.62204590,0.01244847
1583.55085327,0.01246789
1585.47966064,0.01257061
1587.40846802,0.01268593
1589.33727539,0.01258061
1591.26608276,0.01263087
1593.19489014,0.01254388
1595.12369751,0.01226759
1597.05250488,0.01240623
1598.98131226,0.01245273
1600.91011963,0.01256798
1602.83892700,0.01240139
1604.76773437,0.01249481
1606.69654175,0.01243080
1608.62534912,0.01253092
1610.55415649,0.01233017
1612.48296387,0.01244540
1614.41177124,0.01256836
1616.34057861,0.01054321
1618.26938599,0.01154733
1620.19819336,0.01305660
1622.12700073,0.01169813
1624.05580811,0.01186254
1625.98461548,0.01238428
1627.91342285,0.01238896
1629.84223022,0.01236667
1631.77103760,0.01301261
1633.69984497,0.01205948
1635.62865234,0.01040476
1637.55745972,0.01189379
1639.48626709,0.01266587
1641.41507446,0.01246189
1643.34388184,0.01290689
1645.27268921,0.01176123
1647.20149658,0.01070336
1649.13030396,0.01293983
1651.05911133,0.01213595
1652.98791870,0.00836900
1654.91672607,0.01100392
1656.84553345,0.01320433
1658.77434082,0.01256099
1660.70314819,0.01299102
1662.63195557,0.01187793
1664.56076294,0.01270932
1666.48957031,0.01359176
1668.41837769,0.01184525
1670.34718506,0.01183804
1672.27599243,0.01307230
1674.20479980,0.01196022
1676.13360718,0.01178585
1678.06241455,0.01331998
1679.99122192,0.01288024
1681.92002930,0.01280778
1683.84883667,0.01058004
1685.77764404,0.01060285
1687.70645142,0.01385414
1689.63525879,0.01218107
1691.56406616,0.01357542
1693.49287354,0.01345311
1695.42168091,0.01022280
1697.35048828,0.01249636
1699.27929565,0.01103407
1701.20810303,0.01040468
1703.13691040,0.01339726
1705.06571777,0.01250292
1706.99452515,0.01268697
1708.92333252,0.01328506
1710.85213989,0.01295978
1712.78094727,0.01310638
1714.70975464,0.01230851
1716.63856201,0.01127972
1718.56736938,0.01119117
1720.49617676,0.01302636
1722.42498413,0.01321812
1724.35379150,0.01248087
1726.28259888,0.01346504
1728.21140625,0.01262642
1730.14021362,0.01278198
1732.06902100,0.01225537
1733.99782837,0.00971595
1735.92663574,0.01189512
1737.85544312,0.01303289
1739.78425049,0.01173746
1741.71305786,0.01266302
1743.64186523,0.01277725
1745.57067261,0.01285429
1747.49947998,0.01309260
1749.42828735,0.01246990
1751.35709473,0.01200003
1753.28590210,0.01320359
1755.21470947,0.01376245
1757.14351685,0.01277384
1759.07232422,0.01371577
1761.00113159,0.01286541
1762.92993896,0.01262018
1764.85874634,0.01424351
1766.78755371,0.01302796
1768.71636108,0.01314159
1770.64516846,0.01303216
1772.57397583,0.01200210
1774.50278320,0.01309087
1776.43159058,0.01374969
1778.36039795,0.01362189
1780.28920532,0.01346237
1782.21801270,0.01364945
1784.14682007,0.01348545
1786.07562744,0.01344455
1788.00443481,0.01420273
1789.93324219,0.01366008
1791.86204956,0.01242457
1793.79085693,0.01286854
1795.71966431,0.01378209
1797.64847168,0.01361592
1799.57727905,0.01345265
1801.50608643,0.01345265
1803.43489380,0.01383276
1805.36370117,0.01399204
1807.29250854,0.01393216
1809.22131592,0.01397264
1811.15012329,0.01360042
1813.07893066,0.01403458
1815.00773804,0.01398171
1816.93654541,0.01386122
1818.86535278,0.01395882
1820.79416016,0.01389783
1822.72296753,0.01408703
1824.65177490,0.01322857
1826.58058228,0.01388766
1828.50938965,0.01384654
1830.43819702,0.01299446
1832.36700439,0.01418469
1834.29581177,0.01410233
1836.22461914,0.01402259
1838.15342651,0.01407319
1840.08223389,0.01411257
1842.01104126,0.01389506
1843.93984863,0.01272890
1845.86865601,0.01356309
1847.79746338,0.01411351
1849.72627075,0.01397231
1851.65507812,0.01422737
1853.58388550,0.01397686
1855.51269287,0.01405213
1857.44150024,0.01400645
1859.37030762,0.01406073
1861.29911499,0.01408758
1863.22792236,0.01411353
1865.15672974,0.01417498
1867.08553711,0.01363100
1869.01434448,0.01327855
1870.94315186,0.01375210
1872.87195923,0.01417064
1874.80076660,0.01394141
1876.72957397,0.01404564
1878.65838135,0.01402359
1880.58718872,0.01390871
1882.51599609,0.01402449
1884.44480347,0.01397932
1886.37361084,0.01425076
1888.30241821,0.01376083
1890.23122559,0.01347218
1892.16003296,0.01402095
1894.08884033,0.01381338
1896.01764771,0.01377428
1897.94645508,0.01384274
1899.87526245,0.01376096
1901.80406982,0.01397994
1903.73287720,0.01394386
1905.66168457,0.01397303
1907.59049194,0.01393083
1909.51929932,0.01379912
1911.44810669,0.01374721
1913.37691406,0.01376559
1915.30572144,0.01397208
1917.23452881,0.01349844
1919.16333618,0.01347573
1921.09214355,0.01386949
1923.02095093,0.01349840
1924.94975830,0.01391521
1926.87856567,0.01406334
1928.80737305,0.01376450
1930.73618042,0.01393735
1932.66498779,0.01365615
1934.59379517,0.01383819
1936.52260254,0.01389260
1938.45140991,0.01374598
1940.38021729,0.01389471
1942.30902466,0.01356892
1944.23783203,0.01370133
1946.16663940,0.01395863
1948.09544678,0.01386248
1950.02425415,0.01382741
1951.95306152,0.01390931
1953.88186890,0.01407329
1955.81067627,0.01393520
1957.73948364,0.01388621
1959.66829102,0.01386298
1961.59709839,0.01382045
1963.52590576,0.01395865
1965.45471313,0.01379403
1967.38352051,0.01363071
1969.31232788,0.01384698
1971.24113525,0.01396622
1973.16994263,0.01383422
1975.09875000,0.01385313
1977.02755737,0.01383831
1978.95636475,0.01381819
1980.88517212,0.01387462
1982.81397949,0.01375856
1984.74278687,0.01383700
1986.67159424,0.01377756
1988.60040161,0.01367062
1990.52920898,0.01371676
1992.45801636,0.01355212
1994.38682373,0.01383736
1996.31563110,0.01396079
1998.24443848,0.01367992
2000.17324585,0.01377948
2002.10205322,0.01376548
2004.03086060,0.01373732
2005.95966797,0.01366324
2007.88847534,0.01356968
2009.81728271,0.01364690
2011.74609009,0.01360369
2013.67489746,0.01378945
2015.60370483,0.01372560
2017.53251221,0.01352431
2019.46131958,0.01369691
2021.39012695,0.01358820
2023.31893433,0.01358181
2025.24774170,0.01365101
2027.17654907,0.01337893
2029.10535645,0.01340730
2031.03416382,0.01352416
2032.96297119,0.01335999
2034.89177856,0.01340522
2036.82058594,0.01356069
2038.74939331,0.01341510
2040.67820068,0.01333125
2042.60700806,0.01340248
2044.53581543,0.01336952
2046.46462280,0.01345223
2048.39343018,0.01343096
2050.32223755,0.01318345
2052.25104492,0.01314721
2054.17985229,0.01320477
2056.10865967,0.01323007
2058.03746704,0.01324541
2059.96627441,0.01330913
2061.89508179,0.01330951
2063.82388916,0.01302706
2065.75269653,0.01306456
2067.68150391,0.01321867
2069.61031128,0.01308140
2071.53911865,0.01317145
2073.46792603,0.01322085
2075.39673340,0.01307287
2077.32554077,0.01301459
2079.25434814,0.01314173
2081.18315552,0.01320716
2083.11196289,0.01298640
2085.04077026,0.01295505
2086.96957764,0.01302976
2088.89838501,0.01291919
2090.82719238,0.01294362
2092.75599976,0.01310780
2094.68480713,0.01312916
2096.61361450,0.01303128
2098.54242187,0.01283972
2100.47122925,0.01279283
2102.40003662,0.01303248
2104.32884399,0.01296261
2106.25765137,0.01287329
2108.18645874,0.01303215
2110.11526611,0.01297720
2112.04407349,0.01292651
2113.97288086,0.01289744
2115.90168823,0.01292797
2117.83049561,0.01299956
2119.75930298,0.01285005
2121.68811035,0.01274367
2123.61691772,0.01274595
2125.54572510,0.01274263
2127.47453247,0.01283060
2129.40333984,0.01279307
2131.33214722,0.01268280
2133.26095459,0.01284223
2135.18976196,0.01280427
2137.11856934,0.01272414
2139.04737671,0.01284307
2140.97618408,0.01271037
2142.90499146,0.01269439
2144.83379883,0.01269605
2146.76260620,0.01264600
2148.69141357,0.01273330
2150.62022095,0.01267113
2152.54902832,0.01265635
2154.47783569,0.01275727
2156.40664307,0.01278728
2158.33545044,0.01266371
2160.26425781,0.01273756
2162.19306519,0.01285019
2164.12187256,0.01265536
2166.05067993,0.01266825
2167.97948730,0.01271462
2169.90829468,0.01269756
2171.83710205,0.01269135
2173.76590942,0.01256608
2175.69471680,0.01262247
2177.62352417,0.01265618
2179.55233154,0.01259267
2181.48113892,0.01265158
2183.40994629,0.01267413
2185.33875366,0.01261459
2187.26756104,0.01256637
2189.19636841,0.01251446
2191.12517578,0.01256212
2193.05398315,0.01261396
2194.98279053,0.01255686
2196.91159790,0.01263518
2198.84040527,0.01259578
2200.76921265,0.01251666
2202.69802002,0.01260834
2204.62682739,0.01261694
2206.55563477,0.01265923
2208.48444214,0.01254435
2210.41324951,0.01244519
2212.34205688,0.01249467
2214.27086426,0.01245447
2216.19967163,0.01255958
2218.12847900,0.01254851
2220.05728638,0.01252330
2221.98609375,0.01258146
2223.91490112,0.01246179
2225.84370850,0.01245328
2227.77251587,0.01248714
2229.70132324,0.01253372
2231.63013062,0.01247692
2233.55893799,0.01234915
2235.48774536,0.01245923
2237.41655273,0.01240668
2239.34536011,0.01238823
2241.27416748,0.01257037
2243.20297485,0.01244880
2245.13178223,0.01237538
2247.06058960,0.01241772
2248.98939697,0.01230749
2250.91820435,0.01232603
2252.84701172,0.01222751
2254.77581909,0.01219348
2256.70462646,0.01238109
2258.63343384,0.01226950
2260.56224121,0.01230242
2262.49104858,0.01232311
2264.41985596,0.01224284
2266.34866333,0.01240473
2268.27747070,0.01228699
2270.20627808,0.01230238
2272.13508545,0.01230728
2274.06389282,0.01220166
2275.99270020,0.01233110
2277.92150757,0.01214511
2279.85031494,0.01221718
2281.77912231,0.01232496
2283.70792969,0.01209197
2285.63673706,0.01214407
2287.56554443,0.01211888
2289.49435181,0.01211598
2291.42315918,0.01216429
2293.35196655,0.01205926
2295.28077393,0.01206728
2297.20958130,0.01204123
2299.13838867,0.01196292
2301.06719604,0.01198918
2302.99600342,0.01200830
2304.92481079,0.01188972
2306.85361816,0.01186732
2308.78242554,0.01193175
2310.71123291,0.01169481
2312.64004028,0.01149682
2314.56884766,0.01161324
2316.49765503,0.01147327
2318.42646240,0.01120704
2320.35526978,0.01108090
2322.28407715,0.01089877
2324.21288452,0.01093751
2326.14169189,0.01078790
2328.07049927,0.01056066
2329.99930664,0.01065161
2331.92811401,0.01044309
2333.85692139,0.01041657
2335.78572876,0.01052972
2337.71453613,0.01037134
2339.64334351,0.01040775
2341.57215088,0.01046914
2343.50095825,0.01061156
2345.42976562,0.01085235
2347.35857300,0.01120208
2349.28738037,0.01150577
2351.21618774,0.01109924
2353.14499512,0.01053224
2355.07380249,0.01034941
2357.00260986,0.01008860
2358.93141724,0.00973054
2360.86022461,0.00967859
2362.78903198,0.00977553
2364.71783936,0.00978094
2366.64664673,0.00994208
2368.57545410,0.01017319
2370.50426147,0.01037622
2372.43306885,0.01062827
2374.36187622,0.01086382
2376.29068359,0.01117539
2378.21949097,0.01146664
2380.14829834,0.01160991
2382.07710571,0.01164831
2384.00591309,0.01171351
2385.93472046,0.01180789
2387.86352783,0.01180637
2389.79233521,0.01187589
2391.72114258,0.01186582
2393.64994995,0.01173651
2395.57875732,0.01174899
2397.50756470,0.01175031
2399.43637207,0.01174102
2401.36517944,0.01174487
2403.29398682,0.01175628
2405.22279419,0.01172598
2407.15160156,0.01157841
2409.08040894,0.01162845
2411.00921631,0.01175779
2412.93802368,0.01168344
2414.86683105,0.01167436
2416.79563843,0.01173380
2418.72444580,0.01168940
2420.65325317,0.01173385
2422.58206055,0.01173317
2424.51086792,0.01160814
2426.43967529,0.01164942
2428.36848267,0.01168259
2430.29729004,0.01167823
2432.22609741,0.01168214
2434.15490479,0.01159061
2436.08371216,0.01164477
2438.01251953,0.01169878
2439.94132690,0.01158183
2441.87013428,0.01158592
2443.79894165,0.01155728
2445.72774902,0.01145147
2447.65655640,0.01152808
2449.58536377,0.01147190
2451.51417114,0.01144356
2453.44297852,0.01161176
2455.37178589,0.01159516
2457.30059326,0.01153111
2459.22940063,0.01146496
2461.15820801,0.01144328
2463.08701538,0.01143041
2465.01582275,0.01141333
2466.94463013,0.01151446
2468.87343750,0.01154725
2470.80224487,0.01152254
2472.73105225,0.01142901
2474.65985962,0.01143973
2476.58866699,0.01144482
2478.51747437,0.01146343
2480.44628174,0.01151202
2482.37508911,0.01126736
2484.30389648,0.01131391
2486.23270386,0.01140685
2488.16151123,0.01138159
2490.09031860,0.01149862
2492.01912598,0.01138459
2493.94793335,0.01142005
2495.87674072,0.01145148
2497.80554810,0.01132294
2499.73435547,0.01139628
2501.66316284,0.01147616
2503.59197021,0.01140206
2505.52077759,0.01136771
2507.44958496,0.01137142
2509.37839233,0.01126920
2511.30719971,0.01135846
2513.23600708,0.01134172
2515.16481445,0.01123062
2517.09362183,0.01133548
2519.02242920,0.01128235
2520.95123657,0.01128289
2522.88004395,0.01131853
2524.80885132,0.01130127
2526.73765869,0.01135142
2528.66646606,0.01121054
2530.59527344,0.01114704
2532.52408081,0.01124632
2534.45288818,0.01117629
2536.38169556,0.01123664
2538.31050293,0.01124752
2540.23931030,0.01104048
2542.16811768,0.01118019
2544.09692505,0.01118482
2546.02573242,0.01106129
2547.95453979,0.01114901
2549.88334717,0.01109216
2551.81215454,0.01113328
2553.74096191,0.01116310
2555.66976929,0.01111627
2557.59857666,0.01108021
2559.52738403,0.01108807
2561.45619141,0.01109508
2563.38499878,0.01105665
2565.31380615,0.01114048
2567.24261353,0.01103060
2569.17142090,0.01105617
2571.10022827,0.01110049
2573.02903564,0.01094790
2574.95784302,0.01099104
2576.88665039,0.01097152
2578.81545776,0.01109790
2580.74426514,0.01108166
2582.67307251,0.01086399
2584.60187988,0.01099098
2586.53068726,0.01097798
2588.45949463,0.01088679
2590.38830200,0.01104905
2592.31710937,0.01098951
2594.24591675,0.01082486
2596.17472412,0.01090924
2598.10353149,0.01086707
2600.03233887,0.01082399
2601.96114624,0.01093747
2603.88995361,0.01101286
2605.81876099,0.01098239
2607.74756836,0.01088144
2609.67637573,0.01091884
2611.60518311,0.01096732
2613.53399048,0.01105795
2615.46279785,0.01091518
2617.39160522,0.01077125
2619.32041260,0.01088954
2621.24921997,0.01076625
2623.17802734,0.01082485
2625.10683472,0.01083521
2627.03564209,0.01074333
2628.96444946,0.01076161
2630.89325684,0.01069095
2632.82206421,0.01079963
2634.75087158,0.01076350
2636.67967895,0.01075424
2638.60848633,0.01075269
2640.53729370,0.01068177
2642.46610107,0.01073726
2644.39490845,0.01068611
2646.32371582,0.01070908
2648.25252319,0.01067192
2650.18133057,0.01070027
2652.11013794,0.01072171
2654.03894531,0.01063364
2655.96775269,0.01072224
2657.89656006,0.01070822
2659.82536743,0.01064437
2661.75417480,0.01063344
2663.68298218,0.01067396
2665.61178955,0.01068907
2667.54059692,0.01063047
2669.46940430,0.01061565
2671.39821167,0.01060872
2673.32701904,0.01054549
2675.25582642,0.01042193
2677.18463379,0.01048925
2679.11344116,0.01054328
2681.04224854,0.01048660
2682.97105591,0.01053946
2684.89986328,0.01054856
2686.82867065,0.01054395
2688.75747803,0.01054806
2690.68628540,0.01046946
2692.61509277,0.01042783
2694.54390015,0.01053167
2696.47270752,0.01053452
2698.40151489,0.01043139
2700.33032227,0.01036600
2702.25912964,0.01038802
2704.18793701,0.01052701
2706.11674438,0.01044135
2708.04555176,0.01039502
2709.97435913,0.01051302
2711.90316650,0.01043581
2713.83197388,0.01039106
2715.76078125,0.01040567
2717.68958862,0.01040774
2719.61839600,0.01039371
2721.54720337,0.01030253
2723.47601074,0.01033907
2725.40481812,0.01035003
2727.33362549,0.01018038
2729.26243286,0.01025188
2731.19124023,0.01038714
2733.12004761,0.01027501
2735.04885498,0.01028899
2736.97766235,0.01037572
2738.90646973,0.01025815
2740.83527710,0.01013094
2742.76408447,0.01022317
2744.69289185,0.01024670
2746.62169922,0.01011188
2748.55050659,0.01011835
2750.47931396,0.01019453
2752.40812134,0.01021676
2754.33692871,0.01015870
2756.26573608,0.01012470
2758.19454346,0.01009702
2760.12335083,0.01010274
2762.05215820,0.01016561
2763.98096558,0.01008242
2765.90977295,0.01004912
2767.83858032,0.01009801
2769.76738770,0.01006415
2771.69619507,0.01002506
2773.62500244,0.01005396
2775.55380981,0.01004591
2777.48261719,0.01002798
2779.41142456,0.01001679
2781.34023193,0.00998135
2783.26903931,0.01007478
2785.19784668,0.01000854
2787.12665405,0.00998737
2789.05546143,0.00995338
2790.98426880,0.00969506
2792.91307617,0.00984726
2794.84188354,0.00993580
2796.77069092,0.00981565
2798.69949829,0.00984716
2800.62830566,0.00977485
2802.55711304,0.00976579
2804.48592041,0.00983043
2806.41472778,0.00978439
2808.34353516,0.00973568
2810.27234253,0.00978232
2812.20114990,0.00979751
2814.12995728,0.00984718
2816.05876465,0.00983309
2817.98757202,0.00972110
2819.91637939,0.00968073
2821.84518677,0.00967095
2823.77399414,0.00972648
2825.70280151,0.00968114
2827.63160889,0.00971371
2829.56041626,0.00965419
2831.48922363,0.00959110
2833.41803101,0.00979795
2835.34683838,0.00961901
2837.27564575,0.00949384
2839.20445312,0.00962536
2841.13326050,0.00955740
2843.06206787,0.00945431
2844.99087524,0.00948141
2846.91968262,0.00946380
2848.84848999,0.00932030
2850.77729736,0.00944493
2852.70610474,0.00949191
2854.63491211,0.00941985
2856.56371948,0.00938606
2858.49252686,0.00934555
2860.42133423,0.00945855
2862.35014160,0.00938809
2864.27894897,0.00937183
2866.20775635,0.00933448
2868.13656372,0.00922541
2870.06537109,0.00934441
2871.99417847,0.00936277
2873.92298584,0.00925720
2875.85179321,0.00920478
2877.78060059,0.00929056
2879.70940796,0.00931223
2881.63821533,0.00924921
2883.56702270,0.00922048
2885.49583008,0.00924290
2887.42463745,0.00922448
2889.35344482,0.00912796
2891.28225220,0.00913549
2893.21105957,0.00912060
2895.13986694,0.00923447
2897.06867432,0.00918544
2898.99748169,0.00906437
2900.92628906,0.00920642
2902.85509644,0.00907908
2904.78390381,0.00903831
2906.71271118,0.00913558
2908.64151855,0.00914699
2910.57032593,0.00912065
2912.49913330,0.00891013
2914.42794067,0.00887212
2916.35674805,0.00899140
2918.28555542,0.00895916
2920.21436279,0.00881754
2922.14317017,0.00879872
2924.07197754,0.00877834
2926.00078491,0.00870009
2927.92959229,0.00881219
2929.85839966,0.00888168
2931.78720703,0.00882334
2933.71601440,0.00889260
2935.64482178,0.00891011
2937.57362915,0.00878838
2939.50243652,0.00883101
2941.43124390,0.00880049
2943.36005127,0.00878527
2945.28885864,0.00886020
2947.21766602,0.00873270
2949.14647339,0.00880116
2951.07528076,0.00879616
2953.00408813,0.00867900
2954.93289551,0.00881895
2956.86170288,0.00875340
2958.79051025,0.00867361
2960.71931763,0.00882640
2962.64812500,0.00869118
2964.57693237,0.00851637
2966.50573975,0.00863571
2968.43454712,0.00862456
2970.36335449,0.00867436
2972.29216187,0.00872795
2974.22096924,0.00871685
2976.14977661,0.00877690
2978.07858398,0.00863206
2980.00739136,0.00874856
2981.93619873,0.00880667
2983.86500610,0.00859730
2985.79381348,0.00870615
2987.72262085,0.00871054
2989.65142822,0.00854837
2991.58023560,0.00865101
2993.50904297,0.00872319
2995.43785034,0.00857166
2997.36665771,0.00866879
2999.29546509,0.00870249
3001.22427246,0.00854282
3003.15307983,0.00852909
3005.08188721,0.00855657
3007.01069458,0.00864912
3008.93950195,0.00851591
3010.86830933,0.00846609
3012.79711670,0.00848760
3014.72592407,0.00843349
3016.65473145,0.00855003
3018.58353882,0.00851037
3020.51234619,0.00852724
3022.44115356,0.00843769
3024.36996094,0.00835401
3026.29876831,0.00844421
3028.22757568,0.00844410
3030.15638306,0.00849119
3032.08519043,0.00836968
3034.01399780,0.00832745
3035.94280518,0.00838168
3037.87161255,0.00835045
3039.80041992,0.00834467
3041.72922729,0.00835301
3043.65803467,0.00830017
3045.58684204,0.00823961
3047.51564941,0.00835585
3049.44445679,0.00825509
3051.37326416,0.00821265
3053.30207153,0.00825268
3055.23087891,0.00815906
3057.15968628,0.00824717
3059.08849365,0.00817415
3061.01730103,0.00816275
3062.94610840,0.00821942
3064.87491577,0.00815170
3066.80372314,0.00816431
3068.73253052,0.00808563
3070.66133789,0.00810030
3072.59014526,0.00815206
3074.51895264,0.00800410
3076.44776001,0.00804018
3078.37656738,0.00818751
3080.30537476,0.00804422
3082.23418213,0.00798118
3084.16298950,0.00801646
3086.09179687,0.00802109
3088.02060425,0.00805573
3089.94941162,0.00795021
3091.87821899,0.00795283
3093.80702637,0.00800068
3095.73583374,0.00803163
3097.66464111,0.00797059
3099.59344849,0.00785243
3101.52225586,0.00794016
3103.45106323,0.00792691
3105.37987061,0.00788500
3107.30867798,0.00793692
3109.23748535,0.00791413
3111.16629272,0.00787947
3113.09510010,0.00797339
3115.02390747,0.00785235
3116.95271484,0.00770276
3118.88152222,0.00788295
3120.81032959,0.00777079
3122.73913696,0.00776162
3124.66794434,0.00783907
3126.59675171,0.00770069
3128.52555908,0.00775714
3130.45436645,0.00770100
3132.38317383,0.00765181
3134.31198120,0.00763085
3136.24078857,0.00766515
3138.16959595,0.00772897
3140.09840332,0.00764977
3142.02721069,0.00769183
3143.95601807,0.00766991
3145.88482544,0.00758043
3147.81363281,0.00750695
3149.74244019,0.00754327
3151.67124756,0.00755796
3153.60005493,0.00745041
3155.52886230,0.00751998
3157.45766968,0.00750074
3159.38647705,0.00743821
3161.31528442,0.00746173
3163.24409180,0.00737087
3165.17289917,0.00739709
3167.10170654,0.00747987
3169.03051392,0.00735292
3170.95932129,0.00733222
3172.88812866,0.00734435
3174.81693604,0.00727847
3176.74574341,0.00733192
3178.67455078,0.00721277
3180.60335815,0.00727471
3182.53216553,0.00739737
3184.46097290,0.00722300
3186.38978027,0.00723327
3188.31858765,0.00717513
3190.24739502,0.00717323
3192.17620239,0.00730520
3194.10500977,0.00723651
3196.03381714,0.00720466
3197.96262451,0.00718836
3199.89143188,0.00717449
3201.82023926,0.00710450
3203.74904663,0.00703149
3205.67785400,0.00712630
3207.60666138,0.00712288
3209.53546875,0.00707825
3211.46427612,0.00711491
3213.39308350,0.00703093
3215.32189087,0.00698790
3217.25069824,0.00702592
3219.17950562,0.00697083
3221.10831299,0.00700225
3223.03712036,0.00705921
3224.96592773,0.00697306
3226.89473511,0.00693078
3228.82354248,0.00699922
3230.75234985,0.00698865
3232.68115723,0.00688789
3234.60996460,0.00684899
3236.53877197,0.00688896
3238.46757935,0.00690021
3240.39638672,0.00690740
3242.32519409,0.00698198
3244.25400146,0.00688465
3246.18280884,0.00679346
3248.11161621,0.00691010
3250.04042358,0.00693074
3251.96923096,0.00687053
3253.89803833,0.00685648
3255.82684570,0.00685309
3257.75565308,0.00673122
3259.68446045,0.00677200
3261.61326782,0.00690358
3263.54207520,0.00678041
3265.47088257,0.00682788
3267.39968994,0.00688622
3269.32849731,0.00678469
3271.25730469,0.00676341
3273.18611206,0.00676196
3275.11491943,0.00679909
3277.04372681,0.00678821
3278.97253418,0.00678345
3280.90134155,0.00685004
3282.83014893,0.00682466
3284.75895630,0.00672922
3286.68776367,0.00675160
3288.61657104,0.00676094
3290.54537842,0.00668723
3292.47418579,0.00668584
3294.40299316,0.00670445
3296.33180054,0.00674937
3298.26060791,0.00677209
3300.18941528,0.00670290
3302.11822266,0.00659841
3304.04703003,0.00666116
3305.97583740,0.00674266
3307.90464478,0.00667990
3309.83345215,0.00668635
3311.76225952,0.00662680
3313.69106689,0.00660111
3315.61987427,0.00661056
3317.54868164,0.00662309
3319.47748901,0.00669198
3321.40629639,0.00662040
3323.33510376,0.00659477
3325.26391113,0.00661724
3327.19271851,0.00666945
3329.12152588,0.00665971
3331.05033325,0.00658411
3332.97914062,0.00664487
3334.90794800,0.00656714
3336.83675537,0.00642795
3338.76556274,0.00652708
3340.69437012,0.00662043
3342.62317749,0.00658452
3344.55198486,0.00661614
3346.48079224,0.00651591
3348.40959961,0.00645552
3350.33840698,0.00652443
3352.26721436,0.00647083
3354.19602173,0.00654011
3356.12482910,0.00650387
3358.05363647,0.00643842
3359.98244385,0.00645221
3361.91125122,0.00644409
3363.84005859,0.00648546
3365.76886597,0.00635902
3367.69767334,0.00636460
3369.62648071,0.00645284
3371.55528809,0.00646713
3373.48409546,0.00645398
3375.41290283,0.00638630
3377.34171020,0.00645295
3379.27051758,0.00646262
3381.19932495,0.00638147
3383.12813232,0.00640758
3385.05693970,0.00641416
3386.98574707,0.00628057
3388.91455444,0.00636221
3390.84336182,0.00644065
3392.77216919,0.00628876
3394.70097656,0.00626857
3396.62978394,0.00621783
3398.55859131,0.00620702
3400.48739868,0.00621627
3402.41620605,0.00620561
3404.34501343,0.00627036
3406.27382080,0.00634368
3408.20262817,0.00631925
3410.13143555,0.00619314
3412.06024292,0.00624861
3413.98905029,0.00621603
3415.91785767,0.00621624
3417.84666504,0.00624801
3419.77547241,0.00613206
3421.70427979,0.00607469
3423.63308716,0.00603035
3425.56189453,0.00618319
3427.49070190,0.00617536
3429.41950928,0.00604374
3431.34831665,0.00604991
3433.27712402,0.00613407
3435.20593140,0.00617263
3437.13473877,0.00603660
3439.06354614,0.00613419
3440.99235352,0.00608052
3442.92116089,0.00597327
3444.84996826,0.00607058
3446.77877563,0.00604159
3448.70758301,0.00605312
3450.63639038,0.00606942
3452.56519775,0.00608157
3454.49400513,0.00598880
3456.42281250,0.00592792
3458.35161987,0.00601494
3460.28042725,0.00597329
3462.20923462,0.00582837
3464.13804199,0.00598032
3466.06684937,0.00605912
3467.99565674,0.00583190
3469.92446411,0.00600692
3471.85327148,0.00599344
3473.78207886,0.00589066
3475.71088623,0.00599648
3477.63969360,0.00589822
3479.56850098,0.00592638
3481.49730835,0.00584941
3483.42611572,0.00587636
3485.35492310,0.00595939
3487.28373047,0.00592452
3489.21253784,0.00595613
3491.14134521,0.00596108
3493.07015259,0.00593018
3494.99895996,0.00581928
3496.92776733,0.00591015
3498.85657471,0.00587912
3500.78538208,0.00580826
3502.71418945,0.00579472
3504.64299683,0.00581775
3506.57180420,0.00599130
3508.50061157,0.00585225
3510.42941895,0.00586945
3512.35822632,0.00587555
3514.28703369,0.00580249
3516.21584106,0.00591808
3518.14464844,0.00582574
3520.07345581,0.00578822
3522.00226318,0.00580448
3523.93107056,0.00574514
3525.85987793,0.00572561
3527.78868530,0.00577170
3529.71749268,0.00575336
3531.64630005,0.00589846
3533.57510742,0.00599368
3535.50391479,0.00573658
3537.43272217,0.00570475
3539.36152954,0.00585548
3541.29033691,0.00589460
3543.21914429,0.00572505
3545.14795166,0.00570307
3547.07675903,0.00577009
3549.00556641,0.00581747
3550.93437378,0.00581334
3552.86318115,0.00562510
3554.79198853,0.00589193
3556.72079590,0.00591859
3558.64960327,0.00575402
3560.57841064,0.00575584
3562.50721802,0.00570219
3564.43602539,0.00576698
3566.36483276,0.00535517
3568.29364014,0.00537033
3570.22244751,0.00572856
3572.15125488,0.00578550
3574.08006226,0.00590988
3576.00886963,0.00579291
3577.93767700,0.00583136
3579.86648437,0.00582888
3581.79529175,0.00574932
3583.72409912,0.00587097
3585.65290649,0.00566402
3587.58171387,0.00528162
3589.51052124,0.00549113
3591.43932861,0.00589958
3593.36813599,0.00567827
3595.29694336,0.00560188
3597.22575073,0.00581510
3599.15455811,0.00572055
3601.08336548,0.00565808
3603.01217285,0.00573996
3604.94098022,0.00578789
3606.86978760,0.00568281
3608.79859497,0.00533844
3610.72740234,0.00547552
3612.65620972,0.00561503
3614.58501709,0.00538298
3616.51382446,0.00572429
3618.44263184,0.00533592
3620.37143921,0.00527118
3622.30024658,0.00579348
3624.22905395,0.00561062
3626.15786133,0.00601778
3628.08666870,0.00511269
3630.01547607,0.00467076
3631.94428345,0.00574948
3633.87309082,0.00566275
3635.80189819,0.00581689
3637.73070557,0.00570835
3639.65951294,0.00570131
3641.58832031,0.00585528
3643.51712769,0.00565717
3645.44593506,0.00581186
3647.37474243,0.00529559
3649.30354980,0.00487459
3651.23235718,0.00496800
3653.16116455,0.00567526
3655.08997192,0.00562211
3657.01877930,0.00523158
3658.94758667,0.00591881
3660.87639404,0.00575429
3662.80520142,0.00579604
3664.73400879,0.00570365
3666.66281616,0.00557016
3668.59162354,0.00545011
3670.52043091,0.00467000
3672.44923828,0.00557300
3674.37804565,0.00526252
3676.30685303,0.00443181
3678.23566040,0.00550517
3680.16446777,0.00558391
3682.09327515,0.00546450
3684.02208252,0.00570868
3685.95088989,0.00574761
3687.87969727,0.00514708
3689.80850464,0.00471521
3691.73731201,0.00534366
3693.66611938,0.00546962
3695.59492676,0.00558435
3697.52373413,0.00559865
3699.45254150,0.00554149
3701.38134888,0.00545476
3703.31015625,0.00527369
3705.23896362,0.00565916
3707.16777100,0.00545639
3709.09657837,0.00544394
3711.02538574,0.00506961
3712.95419312,0.00472185
3714.88300049,0.00549406
3716.81180786,0.00542884
3718.74061523,0.00547116
3720.66942261,0.00531980
3722.59822998,0.00516921
3724.52703735,0.00533591
3726.45584473,0.00499297
3728.38465210,0.00544378
3730.31345947,0.00527638
3732.24226685,0.00485737
3734.17107422,0.00485528
3736.09988159,0.00471237
3738.02868896,0.00494394
3739.95749634,0.00518982
3741.88630371,0.00539466
3743.81511108,0.00432734
3745.74391846,0.00418033
3747.67272583,0.00522829
3749.60153320,0.00445387
3751.53034058,0.00423560
3753.45914795,0.00484651
3755.38795532,0.00514315
3757.31676270,0.00538058
3759.24557007,0.00492177
3761.17437744,0.00502669
3763.10318481,0.00534680
3765.03199219,0.00503347
3766.96079956,0.00527269
3768.88960693,0.00511541
3770.81841431,0.00482161
3772.74722168,0.00524960
3774.67602905,0.00520602
3776.60483643,0.00528293
3778.53364380,0.00503731
3780.46245117,0.00488027
3782.39125854,0.00526395
3784.32006592,0.00500712
3786.24887329,0.00511212
3788.17768066,0.00516456
3790.10648804,0.00510514
3792.03529541,0.00521815
3793.96410278,0.00521561
3795.89291016,0.00493664
3797.82171753,0.00490386
3799.75052490,0.00507649
3801.67933228,0.00412122
3803.60813965,0.00479570
3805.53694702,0.00508160
3807.46575439,0.00423516
3809.39456177,0.00512739
3811.32336914,0.00506044
3813.25217651,0.00523757
3815.18098389,0.00468480
3817.10979126,0.00424238
3819.03859863,0.00518066
3820.96740601,0.00418758
3822.89621338,0.00452012
3824.82502075,0.00516987
3826.75382812,0.00473837
3828.68263550,0.00504111
3830.61144287,0.00482918
3832.54025024,0.00474247
3834.46905762,0.00478212
3836.39786499,0.00454782
3838.32667236,0.00420321
3840.25547974,0.00450825
3842.18428711,0.00485294
3844.11309448,0.00465350
3846.04190186,0.00481692
3847.97070923,0.00486082
3849.89951660,0.00495590
3851.82832397,0.00442428
3853.75713135,0.00351676
3855.68593872,0.00399051
3857.61474609,0.00498127
3859.54355347,0.00484984
3861.47236084,0.00466095
3863.40116821,0.00468691
3865.32997559,0.00427701
3867.25878296,0.00470390
3869.18759033,0.00434112
3871.11639770,0.00410720
3873.04520508,0.00489239
3874.97401245,0.00441256
3876.90281982,0.00476908
3878.83162720,0.00483745
3880.76043457,0.00419217
3882.68924194,0.00478291
3884.61804932,0.00446734
3886.54685669,0.00420248
3888.47566406,0.00481251
3890.40447144,0.00459611
3892.33327881,0.00432013
3894.26208618,0.00462916
3896.19089355,0.00473306
3898.11970093,0.00447831
3900.04850830,0.00425025
3901.97731567,0.00425016
3903.90612305,0.00425883
3905.83493042,0.00429316
3907.76373779,0.00460100
3909.69254517,0.00469475
3911.62135254,0.00464484
3913.55015991,0.00468406
3915.47896728,0.00460193
3917.40777466,0.00439718
3919.33658203,0.00433466
3921.26538940,0.00450589
3923.19419678,0.00448149
3925.12300415,0.00449268
3927.05181152,0.00454074
3928.98061890,0.00456492
3930.90942627,0.00449484
3932.83823364,0.00431518
3934.76704102,0.00456575
3936.69584839,0.00456857
3938.62465576,0.00442281
3940.55346313,0.00448816
3942.48227051,0.00432588
3944.41107788,0.00439059
3946.33988525,0.00447720
3948.26869263,0.00432486
3950.19750000,0.00437966
3952.12630737,0.00448080
3954.05511475,0.00440558
3955.98392212,0.00439753
3957.91272949,0.00440492
3959.84153687,0.00440508
3961.77034424,0.00444080
3963.69915161,0.00439043
3965.62795898,0.00443166
3967.55676636,0.00443172
3969.48557373,0.00434413
3971.41438110,0.00432865
3973.34318848,0.00428897
3975.27199585,0.00426276
3977.20080322,0.00434633
3979.12961060,0.00442518
3981.05841797,0.00437299
3982.98722534,0.00432211
3984.91603271,0.00434541
3986.84484009,0.00434424
3988.77364746,0.00421702
3990.70245483,0.00421820
3992.63126221,0.00428001
3994.56006958,0.00426268
3996.48887695,0.00430194
3998.41768433,0.00421720
4000.34649170,0.00426898
4002.27529907,0.00430739
4004.20410645,0.00430091
4006.13291382,0.00430404
4008.06172119,0.00412116
4009.99052856,0.00423398
4011.91933594,0.00428205
4013.84814331,0.00421941
4015.77695068,0.00419431
4017.70575806,0.00409569
4019.63456543,0.00420896
4021.56337280,0.00419660
4023.49218018,0.00415133
4025.42098755,0.00416273
4027.34979492,0.00411971
4029.27860229,0.00414706
4031.20740967,0.00421818
4033.13621704,0.00420356
4035.06502441,0.00411449
4036.99383179,0.00417559
4038.92263916,0.00412511
4040.85144653,0.00410302
4042.78025391,0.00414406
4044.70906128,0.00402874
4046.63786865,0.00403712
4048.56667603,0.00405208
4050.49548340,0.00406613
4052.42429077,0.00409512
4054.35309814,0.00400828
4056.28190552,0.00399907
4058.21071289,0.00408376
4060.13952026,0.00398572
4062.06832764,0.00394506
4063.99713501,0.00405953
4065.92594238,0.00399975
4067.85474976,0.00400041
4069.78355713,0.00400078
4071.71236450,0.00397378
4073.64117187,0.00397932
4075.56997925,0.00392005
4077.49878662,0.00393998
4079.42759399,0.00388381
4081.35640137,0.00387938
4083.28520874,0.00393123
4085.21401611,0.00387029
4087.14282349,0.00384106
4089.07163086,0.00388530
4091.00043823,0.00388605
4092.92924561,0.00384770
4094.85805298,0.00394325
4096.78686035,0.00398733
4098.71566772,0.00393329
4100.64447510,0.00386443
4102.57328247,0.00389598
4104.50208984,0.00386706
4106.43089722,0.00372113
4108.35970459,0.00385636
4110.28851196,0.00378799
4112.21731934,0.00370207
4114.14612671,0.00380235
4116.07493408,0.00370261
4118.00374145,0.00380180
4119.93254883,0.00375838
4121.86135620,0.00366568
4123.79016357,0.00378790
4125.71897095,0.00370672
4127.64777832,0.00372056
4129.57658569,0.00378453
4131.50539307,0.00367997
4133.43420044,0.00362409
4135.36300781,0.00373452
4137.29181519,0.00376090
4139.22062256,0.00364809
4141.14942993,0.00372262
4143.07823730,0.00369208
4145.00704468,0.00354933
4146.93585205,0.00360857
4148.86465942,0.00363998
4150.79346680,0.00362918
4152.72227417,0.00364861
4154.65108154,0.00368039
4156.57988892,0.00367916
4158.50869629,0.00361410
4160.43750366,0.00361390
4162.36631103,0.00360926
4164.29511841,0.00355160
4166.22392578,0.00349870
4168.15273315,0.00354526
4170.08154053,0.00364532
4172.01034790,0.00354913
4173.93915527,0.00351131
4175.86796265,0.00363176
4177.79677002,0.00355290
4179.72557739,0.00347669
4181.65438477,0.00352078
4183.58319214,0.00349239
4185.51199951,0.00351500
4187.44080688,0.00354236
4189.36961426,0.00352211
4191.29842163,0.00346369
4193.22722900,0.00341065
4195.15603638,0.00351312
4197.08484375,0.00351785
4199.01365112,0.00351314
4200.94245850,0.00350236
4202.87126587,0.00336133
4204.80007324,0.00345642
4206.72888062,0.00350507
4208.65768799,0.00346505
4210.58649536,0.00345386
4212.51530273,0.00338973
4214.44411011,0.00345812
4216.37291748,0.00339380
4218.30172485,0.00334445
4220.23053223,0.00337944
4222.15933960,0.00336630
4224.08814697,0.00343490
4226.01695435,0.00338359
4227.94576172,0.00333938
4229.87456909,0.00337302
4231.80337646,0.00340054
4233.73218384,0.00337302
4235.66099121,0.00332496
4237.58979858,0.00333541
4239.51860596,0.00325942
4241.44741333,0.00331417
4243.37622070,0.00335325
4245.30502808,0.00327425
4247.23383545,0.00334628
4249.16264282,0.00333161
4251.09145020,0.00326580
4253.02025757,0.00324983
4254.94906494,0.00326679
4256.87787231,0.00328020
4258.80667969,0.00321197
4260.73548706,0.00322535
4262.66429443,0.00322100
4264.59310181,0.00324767
4266.52190918,0.00323947
4268.45071655,0.00318425
4270.37952393,0.00330491
4272.30833130,0.00319072
4274.23713867,0.00312047
4276.16594604,0.00321249
4278.09475342,0.00312047
4280.02356079,0.00318123
4281.95236816,0.00318262
4283.88117554,0.00316315
4285.80998291,0.00318754
4287.73879028,0.00315799
4289.66759766,0.00317276
4291.59640503,0.00307972
4293.52521240,0.00313630
4295.45401978,0.00308467
4297.38282715,0.00307206
4299.31163452,0.00316530
4301.24044189,0.00298803
4303.16924927,0.00310335
4305.09805664,0.00312318
4307.02686401,0.00302663
4308.95567139,0.00316665
4310.88447876,0.00312161
4312.81328613,0.00304557
4314.74209351,0.00300356
4316.67090088,0.00307164
4318.59970825,0.00310098
4320.52851562,0.00299312
4322.45732300,0.00301684
4324.38613037,0.00304711
4326.31493774,0.00298049
4328.24374512,0.00299194
4330.17255249,0.00308115
4332.10135986,0.00294503
4334.03016724,0.00289133
4335.95897461,0.00293344
4337.88778198,0.00286631
4339.81658936,0.00293377
4341.74539673,0.00293813
4343.67420410,0.00299439
4345.60301147,0.00301159
4347.53181885,0.00294024
4349.46062622,0.00299101
4351.38943359,0.00291669
4353.31824097,0.00287636
4355.24704834,0.00290216
4357.17585571,0.00289610
4359.10466309,0.00285800
4361.03347046,0.00288748
4362.96227783,0.00301246
4364.89108520,0.00295674
4366.81989258,0.00295831
4368.74869995,0.00295871
4370.67750732,0.00282458
4372.60631470,0.00284057
4374.53512207,0.00287567
4376.46392944,0.00282120
4378.39273682,0.00279200
4380.32154419,0.00286569
4382.25035156,0.00286377
4384.17915894,0.00278766
4386.10796631,0.00279080
4388.03677368,0.00275679
4389.96558105,0.00277414
4391.89438843,0.00277754
4393.82319580,0.00276980
4395.75200317,0.00282837
4397.68081055,0.00276179
4399.60961792,0.00276920
4401.53842529,0.00282611
4403.46723267,0.00276616
4405.39604004,0.00272905
4407.32484741,0.00270138
4409.25365478,0.00272296
4411.18246216,0.00276852
4413.11126953,0.00277651
4415.04007690,0.00273159
4416.96888428,0.00270782
4418.89769165,0.00273048
4420.82649902,0.00264595
4422.75530640,0.00263488
4424.68411377,0.00271773
4426.61292114,0.00272715
4428.54172852,0.00271447
4430.47053589,0.00267736
4432.39934326,0.00260288
4434.32815063,0.00257586
4436.25695801,0.00264103
4438.18576538,0.00260412
4440.11457275,0.00264287
4442.04338013,0.00272218
4443.97218750,0.00255681
4445.90099487,0.00253168
4447.82980225,0.00258083
4449.75860962,0.00264252
4451.68741699,0.00269907
4453.61622437,0.00257449
4455.54503174,0.00262501
4457.47383911,0.00264929
4459.40264648,0.00258353
4461.33145386,0.00254743
4463.26026123,0.00247905
4465.18906860,0.00256299
4467.11787598,0.00255270
4469.04668335,0.00249342
4470.97549072,0.00251830
4472.90429810,0.00260521
4474.83310547,0.00262423
4476.76191284,0.00249418
4478.69072021,0.00256951
4480.61952759,0.00252819
4482.54833496,0.00246725
4484.47714233,0.00255055
4486.40594971,0.00247560
4488.33475708,0.00252156
4490.26356445,0.00247492
4492.19237183,0.00246928
4494.12117920,0.00255501
4496.04998657,0.00243702
4497.97879395,0.00243433
4499.90760132,0.00241741
4501.83640869,0.00237997
4503.76521606,0.00236761
4505.69402344,0.00241010
4507.62283081,0.00248363
4509.55163818,0.00237914
4511.48044556,0.00239233
4513.40925293,0.00246827
4515.33806030,0.00250088
4517.26686768,0.00246938
4519.19567505,0.00236345
4521.12448242,0.00237493
4523.05328979,0.00237355
4524.98209717,0.00233521
4526.91090454,0.00232950
4528.83971191,0.00240681
4530.76851929,0.00241781
4532.69732666,0.00236457
4534.62613403,0.00244970
4536.55494141,0.00238560
4538.48374878,0.00227359
4540.41255615,0.00237063
4542.34136353,0.00237115
4544.27017090,0.00230624
4546.19897827,0.00231730
4548.12778564,0.00222397
4550.05659302,0.00227177
4551.98540039,0.00236954
4553.91420776,0.00227003
4555.84301514,0.00230236
4557.77182251,0.00228655
4559.70062988,0.00225051
4561.62943726,0.00230881
4563.55824463,0.00228654
4565.48705200,0.00227543
4567.41585937,0.00220219
4569.34466675,0.00220799
4571.27347412,0.00227075
4573.20228149,0.00225768
4575.13108887,0.00224580
4577.05989624,0.00225109
4578.98870361,0.00222965
4580.91751099,0.00217037
4582.84631836,0.00224194
4584.77512573,0.00224260
4586.70393311,0.00219502
4588.63274048,0.00223793
4590.56154785,0.00222614
4592.49035522,0.00219708
4594.41916260,0.00219612
4596.34796997,0.00221313
4598.27677734,0.00214642
4600.20558472,0.00219522
4602.13439209,0.00218187
4604.06319946,0.00208032
4605.99200684,0.00218323
4607.92081421,0.00215930
4609.84962158,0.00217901
4611.77842895,0.00218179
4613.70723633,0.00206484
4615.63604370,0.00210662
4617.56485107,0.00214465
4619.49365845,0.00210251
4621.42246582,0.00204180
4623.35127319,0.00210916
4625.28008057,0.00212115
4627.20888794,0.00214206
4629.13769531,0.00220301
4631.06650269,0.00208294
4632.99531006,0.00208801
4634.92411743,0.00208740
4636.85292480,0.00205120
4638.78173218,0.00206712
4640.71053955,0.00203124
4642.63934692,0.00206219
4644.56815430,0.00210298
4646.49696167,0.00208883
4648.42576904,0.00198156
4650.35457642,0.00197861
4652.28338379,0.00203777
4654.21219116,0.00200653
4656.14099853,0.00203087
4658.06980591,0.00205846
4659.99861328,0.00207256
4661.92742065,0.00198706
4663.85622803,0.00196093
4665.78503540,0.00208903
4667.71384277,0.00204127
4669.64265015,0.00197651
4671.57145752,0.00203199
4673.50026489,0.00196352
4675.42907227,0.00191017
4677.35787964,0.00203906
4679.28668701,0.00203973
4681.21549438,0.00192766
4683.14430176,0.00196775
4685.07310913,0.00198160
4687.00191650,0.00196908
4688.93072388,0.00204312
4690.85953125,0.00200673
4692.78833862,0.00192164
4694.71714600,0.00193311
4696.64595337,0.00196485
4698.57476074,0.00196867
4700.50356812,0.00191403
4702.43237549,0.00195391
4704.36118286,0.00201474
4706.28999023,0.00190565
4708.21879761,0.00184202
4710.14760498,0.00185513
4712.07641235,0.00189029
4714.00521973,0.00190436
4715.93402710,0.00190407
4717.86283447,0.00198171
4719.79164185,0.00195376
4721.72044922,0.00187155
4723.64925659,0.00186930
4725.57806396,0.00183479
4727.50687134,0.00183904
4729.43567871,0.00190345
4731.36448608,0.00184260
4733.29329346,0.00182514
4735.22210083,0.00188885
4737.15090820,0.00182444
4739.07971558,0.00186846
4741.00852295,0.00185507
4742.93733032,0.00179897
4744.86613770,0.00192467
4746.79494507,0.00184765
4748.72375244,0.00182670
4750.65255981,0.00186089
4752.58136719,0.00177494
4754.51017456,0.00185156
4756.43898193,0.00179976
4758.36778931,0.00175519
4760.29659668,0.00184138
4762.22540405,0.00182524
4764.15421143,0.00179468
4766.08301880,0.00173943
4768.01182617,0.00178861
4769.94063354,0.00184124
4771.86944092,0.00180381
4773.79824829,0.00176527
4775.72705566,0.00167480
4777.65586304,0.00166493
4779.58467041,0.00168613
4781.51347778,0.00177476
4783.44228516,0.00183913
4785.37109253,0.00174506
4787.29989990,0.00174543
4789.22870728,0.00173109
4791.15751465,0.00173861
4793.08632202,0.00179866
4795.01512939,0.00173265
4796.94393677,0.00173107
4798.87274414,0.00176558
4800.80155151,0.00173942
4802.73035889,0.00170798
4804.65916626,0.00167624
4806.58797363,0.00173087
4808.51678101,0.00177853
4810.44558838,0.00168885
4812.37439575,0.00166507
4814.30320312,0.00169688
4816.23201050,0.00166454
4818.16081787,0.00171813
4820.08962524,0.00174377
4822.01843262,0.00166348
4823.94723999,0.00165069
4825.87604736,0.00172800
4827.80485474,0.00171513
4829.73366211,0.00167849
4831.66246948,0.00169096
4833.59127686,0.00157593
4835.52008423,0.00159851
4837.44889160,0.00163687
4839.37769897,0.00156157
4841.30650635,0.00159445
4843.23531372,0.00157744
4845.16412109,0.00167065
4847.09292847,0.00169750
4849.02173584,0.00160942
4850.95054321,0.00167568
4852.87935059,0.00163107
4854.80815796,0.00152556
4856.73696533,0.00154179
4858.66577270,0.00161395
4860.59458008,0.00159850
4862.52338745,0.00154085
4864.45219482,0.00151616
4866.38100220,0.00153610
4868.30980957,0.00155622
4870.23861694,0.00153338
4872.16742432,0.00158117
4874.09623169,0.00156197
4876.02503906,0.00157266
4877.95384644,0.00157869
4879.88265381,0.00156320
4881.81146118,0.00157384
4883.74026855,0.00147490
4885.66907593,0.00158514
4887.59788330,0.00158233
4889.52669067,0.00146443
4891.45549805,0.00153572
4893.38430542,0.00151221
4895.31311279,0.00148143
4897.24192017,0.00145907
4899.17072754,0.00150872
4901.09953491,0.00154678
4903.02834228,0.00154652
4904.95714966,0.00152825
4906.88595703,0.00150967
4908.81476440,0.00153929
4910.74357178,0.00140692
4912.67237915,0.00148194
4914.60118652,0.00151104
4916.52999390,0.00140222
4918.45880127,0.00151106
4920.38760864,0.00141929
4922.31641602,0.00138750
4924.24522339,0.00147774
4926.17403076,0.00142885
4928.10283813,0.00143123
4930.03164551,0.00149219
4931.96045288,0.00146421
4933.88926025,0.00137145
4935.81806763,0.00141132
4937.74687500,0.00144770
4939.67568237,0.00145669
4941.60448975,0.00145413
4943.53329712,0.00139139
4945.46210449,0.00134090
4947.39091187,0.00130938
4949.31971924,0.00140800
4951.24852661,0.00145684
4953.17733398,0.00137955
4955.10614136,0.00141445
4957.03494873,0.00141793
4958.96375610,0.00135063
4960.89256348,0.00139326
4962.82137085,0.00134684
4964.75017822,0.00135356
4966.67898560,0.00144866
4968.60779297,0.00139738
4970.53660034,0.00145707
4972.46540771,0.00142562
4974.39421509,0.00140392
4976.32302246,0.00141468
4978.25182983,0.00128570
4980.18063721,0.00138162
4982.10944458,0.00136705
4984.03825195,0.00135304
4985.96705933,0.00135517
4987.89586670,0.00125452
4989.82467407,0.00135683
4991.75348145,0.00132720
4993.68228882,0.00134778
4995.61109619,0.00138744
4997.53990356,0.00125361
4999.46871094,0.00121784
5001.39751831,0.00126872
5003.32632568,0.00132265
5005.25513306,0.00132198
5007.18394043,0.00136082
5009.11274780,0.00132840
5011.04155518,0.00131751
5012.97036255,0.00132391
5014.89916992,0.00128310
5016.82797729,0.00137977
5018.75678467,0.00131954
5020.68559204,0.00125537
5022.61439941,0.00133407
5024.54320679,0.00131745
5026.47201416,0.00129510
5028.40082153,0.00130754
5030.32962891,0.00130346
5032.25843628,0.00127285
5034.18724365,0.00126534
5036.11605103,0.00126911
5038.04485840,0.00127336
5039.97366577,0.00124762
5041.90247314,0.00124384
5043.83128052,0.00127041
5045.76008789,0.00126370
5047.68889526,0.00124822
5049.61770264,0.00119323
5051.54651001,0.00121186
5053.47531738,0.00122432
5055.40412476,0.00120616
5057.33293213,0.00117638
5059.26173950,0.00114941
5061.19054687,0.00125952
5063.11935425,0.00120370
5065.04816162,0.00113421
5066.97696899,0.00121510
5068.90577637,0.00119355
5070.83458374,0.00118814
5072.76339111,0.00119788
5074.69219849,0.00118820
5076.62100586,0.00118415
5078.54981323,0.00120019
5080.47862061,0.00119026
5082.40742798,0.00111693
5084.33623535,0.00114684
5086.26504272,0.00121685
5088.19385010,0.00123892
5090.12265747,0.00126729
5092.05146484,0.00123509
5093.98027222,0.00119946
5095.90907959,0.00120793
5097.83788696,0.00114792
5099.76669434,0.00112519
5101.69550171,0.00115991
5103.62430908,0.00116150
5105.55311645,0.00112725
5107.48192383,0.00111601
5109.41073120,0.00121839
5111.33953857,0.00119139
5113.26834595,0.00112267
5115.19715332,0.00112027
5117.12596069,0.00106933
5119.05476807,0.00114600
5120.98357544,0.00111952
5122.91238281,0.00107576
5124.84119019,0.00119811
5126.76999756,0.00115184
5128.69880493,0.00107387
5130.62761230,0.00111619
5132.55641968,0.00114405
5134.48522705,0.00115649
5136.41403442,0.00112381
5138.34284180,0.00107627
5140.27164917,0.00109859
5142.20045654,0.00107581
5144.12926392,0.00110520
5146.05807129,0.00113919
5147.98687866,0.00103706
5149.91568603,0.00107339
5151.84449341,0.00107455
5153.77330078,0.00104026
5155.70210815,0.00107287
5157.63091553,0.00102669
5159.55972290,0.00109995
5161.48853027,0.00108800
5163.41733765,0.00100713
5165.34614502,0.00106104
5167.27495239,0.00106247
5169.20375977,0.00107033
5171.13256714,0.00108476
5173.06137451,0.00102370
5174.99018188,0.00099327
5176.91898926,0.00105173
5178.84779663,0.00107037
5180.77660400,0.00104170
5182.70541138,0.00102914
5184.63421875,0.00100523
5186.56302612,0.00101508
5188.49183350,0.00106990
5190.42064087,0.00104723
5192.34944824,0.00096747
5194.27825562,0.00105505
5196.20706299,0.00107927
5198.13587036,0.00103988
5200.06467773,0.00112091
5201.99348511,0.00101649
5203.92229248,0.00095553
5205.85109985,0.00102722
5207.77990723,0.00101885
5209.70871460,0.00097755
5211.63752197,0.00088906
5213.56632935,0.00092315
5215.49513672,0.00099094
5217.42394409,0.00091996
5219.35275146,0.00086343
5221.28155884,0.00094426
5223.21036621,0.00101149
5225.13917358,0.00095230
5227.06798096,0.00094177
5228.99678833,0.00095265
5230.92559570,0.00093472
5232.85440308,0.00091147
5234.78321045,0.00092335
5236.71201782,0.00100394
5238.64082520,0.00100435
5240.56963257,0.00095860
5242.49843994,0.00097273
5244.42724731,0.00099139
5246.35605469,0.00095193
5248.28486206,0.00093728
5250.21366943,0.00098115
5252.14247681,0.00097422
5254.07128418,0.00091890
5256.00009155,0.00088632
5257.92889893,0.00091257
5259.85770630,0.00091003
5261.78651367,0.00090882
5263.71532104,0.00096599
5265.64412842,0.00096203
5267.57293579,0.00093420
5269.50174316,0.00094187
5271.43055054,0.00094255
5273.35935791,0.00089876
5275.28816528,0.00086605
5277.21697266,0.00086276
5279.14578003,0.00085714
5281.07458740,0.00088836
5283.00339478,0.00087277
5284.93220215,0.00086875
5286.86100952,0.00089523
5288.78981689,0.00084473
5290.71862427,0.00085462
5292.64743164,0.00088533
5294.57623901,0.00090562
5296.50504639,0.00096483
5298.43385376,0.00088525
5300.36266113,0.00082392
5302.29146851,0.00090215
5304.22027588,0.00086978
5306.14908325,0.00084431
5308.07789062,0.00088420
5310.00669800,0.00084196
5311.93550537,0.00084961
5313.86431274,0.00083763
5315.79312012,0.00080448
5317.72192749,0.00086526
5319.65073486,0.00088522
5321.57954224,0.00089561
5323.50834961,0.00086964
5325.43715698,0.00086992
5327.36596436,0.00091507
5329.29477173,0.00081401
5331.22357910,0.00077693
5333.15238647,0.00079566
5335.08119385,0.00085241
5337.01000122,0.00091757
5338.93880859,0.00077666
5340.86761597,0.00081028
5342.79642334,0.00088859
5344.72523071,0.00081123
5346.65403809,0.00079677
5348.58284546,0.00076336
5350.51165283,0.00084230
5352.44046020,0.00081526
5354.36926758,0.00075922
5356.29807495,0.00084401
5358.22688232,0.00079738
5360.15568970,0.00081849
5362.08449707,0.00077879
5364.01330444,0.00076729
5365.94211182,0.00081252
5367.87091919,0.00075366
5369.79972656,0.00086882
5371.72853394,0.00082908
5373.65734131,0.00075821
5375.58614868,0.00082488
5377.51495605,0.00075806
5379.44376343,0.00074575
5381.37257080,0.00074028
5383.30137817,0.00076844
5385.23018555,0.00083236
5387.15899292,0.00079526
5389.08780029,0.00075124
5391.01660767,0.00077795
5392.94541504,0.00079714
5394.87422241,0.00074242
5396.80302978,0.00074916
5398.73183716,0.00076127
5400.66064453,0.00072655
5402.58945190,0.00071992
5404.51825928,0.00079240
5406.44706665,0.00078777
5408.37587402,0.00068576
5410.30468140,0.00075234
5412.23348877,0.00076922
5414.16229614,0.00075262
5416.09110352,0.00075896
5418.01991089,0.00073553
5419.94871826,0.00077647
5421.87752563,0.00070812
5423.80633301,0.00073809
5425.73514038,0.00077344
5427.66394775,0.00071936
5429.59275513,0.00069922
5431.52156250,0.00066159
5433.45036987,0.00073401
5435.37917725,0.00067172
5437.30798462,0.00067401
5439.23679199,0.00069500
5441.16559936,0.00060957
5443.09440674,0.00076681
5445.02321411,0.00070018
5446.95202148,0.00065196
5448.88082886,0.00081990
5450.80963623,0.00073363
5452.73844360,0.00065048
5454.66725098,0.00066718
5456.59605835,0.00070965
5458.52486572,0.00070856
5460.45367310,0.00066311
5462.38248047,0.00067855
5464.31128784,0.00070117
5466.24009521,0.00070842
5468.16890259,0.00068649
5470.09770996,0.00068029
5472.02651733,0.00069925
5473.95532471,0.00072689
5475.88413208,0.00070365
5477.81293945,0.00070705
5479.74174683,0.00069957
5481.67055420,0.00059662
5483.59936157,0.00066072
5485.52816895,0.00067138
5487.45697632,0.00060787
5489.38578369,0.00068513
5491.31459106,0.00068192
5493.24339844,0.00069538
5495.17220581,0.00066129
5497.10101318,0.00062781
5499.02982056,0.00069671
5500.95862793,0.00065138
5502.88743530,0.00069051
5504.81624268,0.00068018
5506.74505005,0.00061098
5508.67385742,0.00069772
5510.60266479,0.00065862
5512.53147217,0.00066537
5514.46027954,0.00067883
5516.38908691,0.00057096
5518.31789429,0.00059215
5520.24670166,0.00064514
5522.17550903,0.00072375
5524.10431641,0.00063526
5526.03312378,0.00054844
5527.96193115,0.00066283
5529.89073853,0.00058119
5531.81954590,0.00061197
5533.74835327,0.00067537
5535.67716064,0.00056895
5537.60596802,0.00063022
5539.53477539,0.00064053
5541.46358276,0.00060093
5543.39239014,0.00059385
5545.32119751,0.00058710
5547.25000488,0.00060941
5549.17881226,0.00056430
5551.10761963,0.00058687
5553.03642700,0.00063854
5554.96523437,0.00057846
5556.89404175,0.00055625
5558.82284912,0.00063641
5560.75165649,0.00060676
5562.68046387,0.00056817
5564.60927124,0.00063533
5566.53807861,0.00059055
5568.46688599,0.00059777
5570.39569336,0.00066109
5572.32450073,0.00062148
5574.25330811,0.00058955
5576.18211548,0.00058622
5578.11092285,0.00059077
5580.03973022,0.00057331
5581.96853760,0.00058709
5583.89734497,0.00059219
5585.82615234,0.00059012
5587.75495972,0.00058088
5589.68376709,0.00052735
5591.61257446,0.00060143
5593.54138184,0.00065087
5595.47018921,0.00060325
5597.39899658,0.00056453
5599.32780395,0.00053888
5601.25661133,0.00060489
5603.18541870,0.00059404
5605.11422607,0.00057232
5607.04303345,0.00062408
5608.97184082,0.00057899
5610.90064819,0.00058580
5612.82945557,0.00058321
5614.75826294,0.00053003
5616.68707031,0.00057027
5618.61587769,0.00054445
5620.54468506,0.00056049
5622.47349243,0.00059390
5624.40229980,0.00055657
5626.33110718,0.00062954
5628.25991455,0.00058783
5630.18872192,0.00054747
5632.11752930,0.00056728
5634.04633667,0.00052153
5635.97514404,0.00058435
5637.90395142,0.00052561
5639.83275879,0.00050401
5641.76156616,0.00055825
5643.69037353,0.00052430
5645.61918091,0.00049671
5647.54798828,0.00046313
5649.47679565,0.00058303
5651.40560303,0.00047846
5653.33441040,0.00042827
5655.26321777,0.00057305
5657.19202515,0.00044244
5659.12083252,0.00052761
5661.04963989,0.00051424
5662.97844727,0.00043636
5664.90725464,0.00055184
5666.83606201,0.00045975
5668.76486938,0.00051069
5670.69367676,0.00053609
5672.62248413,0.00049466
5674.55129150,0.00052833
5676.48009888,0.00045882
5678.40890625,0.00046599
5680.33771362,0.00048340
5682.26652100,0.00047431
5684.19532837,0.00048393
5686.12413574,0.00051138
5688.05294311,0.00050085
5689.98175049,0.00047905
5691.91055786,0.00047482
5693.83936523,0.00046616
5695.76817261,0.00054294
5697.69697998,0.00050845
5699.62578735,0.00046670
5701.55459473,0.00051734
5703.48340210,0.00054109
5705.41220947,0.00056258
5707.34101685,0.00048693
5709.26982422,0.00044475
5711.19863159,0.00044526
5713.12743896,0.00043734
5715.05624634,0.00047946
5716.98505371,0.00050161
5718.91386108,0.00049384
5720.84266846,0.00047947
5722.77147583,0.00047998
5724.70028320,0.00048983
5726.62909058,0.00049625
5728.55789795,0.00045042
5730.48670532,0.00045577
5732.41551270,0.00047277
5734.34432007,0.00042450
5736.27312744,0.00044098
5738.20193481,0.00045889
5740.13074219,0.00047642
5742.05954956,0.00046471
5743.98835693,0.00047885
5745.91716431,0.00047276
5747.84597168,0.00041064
5749.77477905,0.00046535
5751.70358643,0.00046858
5753.63239380,0.00044729
5755.56120117,0.00043599
5757.49000854,0.00048839
5759.41881592,0.00050285
5761.34762329,0.00039794
5763.27643066,0.00050624
5765.20523804,0.00052283
5767.13404541,0.00047340
5769.06285278,0.00042926
5770.99166016,0.00034720
5772.92046753,0.00043556
5774.84927490,0.00040286
5776.77808228,0.00046730
5778.70688965,0.00051030
5780.63569702,0.00046442
5782.56450439,0.00049221
5784.49331177,0.00032946
5786.42211914,0.00036708
5788.35092651,0.00043278
5790.27973389,0.00041287
5792.20854126,0.00043695
5794.13734863,0.00038254
5796.06615601,0.00046749
5797.99496338,0.00043650
5799.92377075,0.00040751
5801.85257812,0.00042445
5803.78138550,0.00036585
5805.71019287,0.00042047
5807.63900024,0.00039075
5809.56780762,0.00041441
5811.49661499,0.00046586
5813.42542236,0.00044500
5815.35422974,0.00044388
5817.28303711,0.00041763
5819.21184448,0.00043929
5821.14065186,0.00042837
5823.06945923,0.00041288
5824.99826660,0.00041897
5826.92707397,0.00045959
5828.85588135,0.00043616
5830.78468872,0.00031035
5832.71349609,0.00036848
5834.64230347,0.00043317
5836.57111084,0.00037373
5838.49991821,0.00040489
5840.42872559,0.00042650
5842.35753296,0.00035507
5844.28634033,0.00038991
5846.21514770,0.00041268
5848.14395508,0.00035680
5850.07276245,0.00040123
5852.00156982,0.00040356
5853.93037720,0.00039382
5855.85918457,0.00038095
5857.78799194,0.00039653
5859.71679932,0.00043717
5861.64560669,0.00040447
5863.57441406,0.00047237
5865.50322144,0.00043454
5867.43202881,0.00037499
5869.36083618,0.00040756
5871.28964355,0.00036697
5873.21845093,0.00037630
5875.14725830,0.00036995
5877.07606567,0.00039104
5879.00487305,0.00039833
5880.93368042,0.00038848
5882.86248779,0.00038040
5884.79129517,0.00034115
5886.72010254,0.00039050
5888.64890991,0.00041352
5890.57771728,0.00040370
5892.50652466,0.00036778
5894.43533203,0.00036777
5896.36413940,0.00033277
5898.29294678,0.00030485
5900.22175415,0.00041131
5902.15056152,0.00039733
5904.07936890,0.00035741
5906.00817627,0.00034110
5907.93698364,0.00039960
5909.86579102,0.00041315
5911.79459839,0.00035339
5913.72340576,0.00040802
5915.65221313,0.00034267
5917.58102051,0.00038984
5919.50982788,0.00042059
5921.43863525,0.00033347
5923.36744263,0.00034196
5925.29625000,0.00031350
5927.22505737,0.00037329
5929.15386475,0.00034188
5931.08267212,0.00034037
5933.01147949,0.00039510
5934.94028686,0.00031915
5936.86909424,0.00032456
5938.79790161,0.00031797
5940.72670898,0.00030537
5942.65551636,0.00031344
5944.58432373,0.00037275
5946.51313110,0.00036423
5948.44193848,0.00030407
5950.37074585,0.00036268
5952.29955322,0.00030358
5954.22836060,0.00029089
5956.15716797,0.00036543
5958.08597534,0.00034110
5960.01478271,0.00031823
5961.94359009,0.00031914
5963.87239746,0.00029701
5965.80120483,0.00028182
5967.73001221,0.00034596
5969.65881958,0.00036823
5971.58762695,0.00035734
5973.51643433,0.00034482
5975.44524170,0.00030023
5977.37404907,0.00027988
5979.30285645,0.00025382
5981.23166382,0.00026794
5983.16047119,0.00034830
5985.08927856,0.00037200
5987.01808594,0.00032349
5988.94689331,0.00030894
5990.87570068,0.00027314
5992.80450806,0.00033454
5994.73331543,0.00042452
5996.66212280,0.00035170
5998.59093018,0.00033216
6000.51973755,0.00031280
