399.26312622,0.00005094
401.19193359,0.00038015
403.12074097,0.00018916
405.04954834,0.00029762
406.97835571,0.00049450
408.90716309,0.00025899
410.83597046,0.00031157
412.76477783,-0.00001831
414.69358521,-0.00000373
416.62239258,0.00074429
418.55119995,0.00057436
420.48000732,0.00038202
422.40881470,0.00055549
424.33762207,0.00002196
426.26642944,0.00006222
428.19523682,0.00055781
430.12404419,0.00045311
432.05285156,0.00039187
433.98165894,0.00028929
435.91046631,0.00031621
437.83927368,0.00031700
439.76808105,0.00058923
441.69688843,0.00078369
443.62569580,0.00017502
445.55450317,0.00044229
447.48331055,0.00051687
449.41211792,0.00009180
451.34092529,0.00023899
453.26973267,0.00018353
455.19854004,0.00032887
457.12734741,0.00037013
459.05615479,0.00048688
460.98496216,0.00027355
462.91376953,-0.00007113
464.84257690,0.00032810
466.77138428,0.00002061
468.70019165,-0.00005088
470.62899902,0.00029120
472.55780640,0.00005595
474.48661377,-0.00001544
476.41542114,0.00003029
478.34422852,0.00002067
480.27303589,0.00008190
482.20184326,0.00052962
484.13065063,0.00052390
486.05945801,-0.00001330
487.98826538,0.00001618
489.91707275,0.00006033
491.84588013,-0.00033319
493.77468750,0.00015740
495.70349487,0.00023139
497.63230225,0.00014399
499.56110962,0.00062798
501.48991699,0.00047842
503.41872437,0.00048217
505.34753174,0.00024062
507.27633911,0.00042218
509.20514648,0.00030445
511.13395386,-0.00018407
513.06276123,0.00003844
514.99156860,0.00034755
516.92037598,0.00077730
518.84918335,0.00041366
520.77799072,0.00018346
522.70679810,-0.00000927
524.63560547,-0.00031589
526.56441284,0.00026995
528.49322021,0.00040684
530.42202759,0.00015539
532.35083496,-0.00002501
534.27964233,0.00013646
536.20844971,0.00027357
538.13725708,0.00000338
540.06606445,0.00007798
541.99487183,0.00014997
543.92367920,0.00056431
545.85248657,0.00053231
547.78129395,-0.00003986
549.71010132,0.00032857
551.63890869,0.00022034
553.56771606,-0.00015120
555.49652344,0.00034752
557.42533081,0.00019648
559.35413818,-0.00008857
561.28294556,0.00015950
563.21175293,0.00002460
565.14056030,0.00006372
567.06936768,0.00001395
568.99817505,-0.00006292
570.92698242,0.00011594
572.85578979,-0.00010601
574.78459717,-0.00000512
576.71340454,-0.00000048
578.64221191,0.00012581
580.57101929,0.00022149
582.49982666,-0.00004275
584.42863403,-0.00006722
586.35744141,-0.00015687
588.28624878,0.00021766
590.21505615,0.00010131
592.14386353,0.00006310
594.07267090,0.00035227
596.00147827,0.00026596
597.93028564,0.00036472
599.85909302,0.00005363
601.78790039,0.00015732
603.71670776,0.00013787
605.64551514,0.00022807
607.57432251,0.00037368
609.50312988,-0.00010733
611.43193726,0.00023691
613.36074463,0.00001050
615.28955200,-0.00001077
617.21835938,0.00006082
619.14716675,-0.00038693
621.07597412,-0.00008102
623.00478149,0.00021110
624.93358887,0.00026922
626.86239624,-0.00010805
628.79120361,0.00004342
630.72001099,0.00047705
632.64881836,0.00047411
634.57762573,-0.00013770
636.50643311,0.00002141
638.43524048,0.00041098
640.36404785,0.00013593
642.29285522,0.00071106
644.22166260,0.00070663
646.15046997,0.00028486
648.07927734,0.00052012
650.00808472,0.00054877
651.93689209,0.00063999
653.86569946,0.00039850
655.79450684,0.00028368
657.72331421,0.00043051
659.65212158,0.00063885
661.58092896,0.00073762
663.50973633,0.00029125
665.43854370,0.00052354
667.36735107,0.00064323
669.29615845,0.00055159
671.22496582,0.00076346
673.15377319,0.00036257
675.08258057,0.00067947
677.01138794,0.00098168
678.94019531,0.00057534
680.86900269,0.00075697
682.79781006,0.00062889
684.72661743,0.00049892
686.65542480,0.00083043
688.58423218,0.00065982
690.51303955,0.00062736
692.44184692,0.00098603
694.37065430,0.00084703
696.29946167,0.00078568
698.22826904,0.00089740
700.15707642,0.00094790
702.08588379,0.00121867
704.01469116,0.00108224
705.94349854,0.00108024
707.87230591,0.00093965
709.80111328,0.00050608
711.72992065,0.00054653
713.65872803,0.00027694
715.58753540,0.00012229
717.51634277,0.00016866
719.44515015,0.00008059
721.37395752,0.00013099
723.30276489,0.00020112
725.23157227,0.00034284
727.16037964,0.00001681
729.08918701,-0.00016462
731.01799438,0.00007788
732.94680176,-0.00020469
734.87560913,0.00005954
736.80441650,0.00031890
738.73322388,0.00000833
740.66203125,0.00001666
742.59083862,0.00003466
744.51964600,0.00007798
746.44845337,0.00009192
748.37726074,0.00016248
750.30606812,0.00023636
752.23487549,0.00033534
754.16368286,0.00026644
756.09249023,0.00028554
758.02129761,0.00030962
759.95010498,0.00005142
761.87891235,0.00022466
763.80771973,0.00026941
765.73652710,0.00005205
767.66533447,0.00018528
769.59414185,0.00040242
771.52294922,0.00025276
773.45175659,0.00009837
775.38056396,0.00026941
777.30937134,0.00023559
779.23817871,0.00025308
781.16698608,0.00009775
783.09579346,-0.00008138
785.02460083,0.00031596
786.95340820,0.00029062
788.88221558,0.00004187
790.81102295,0.00025520
792.73983032,0.00044005
794.66863770,0.00042611
796.59744507,0.00024350
798.52625244,0.00033167
800.45505981,0.00047124
802.38386719,0.00018203
804.31267456,0.00022323
806.24148193,0.00034373
808.17028931,0.00025762
810.09909668,0.00015303
812.02790405,-0.00007651
813.95671143,0.00019897
815.88551880,0.00041221
817.81432617,0.00015346
819.74313354,0.00009928
821.67194092,0.00018529
823.60074829,0.00009346
825.52955566,0.00004202
827.45836304,0.00029318
829.38717041,0.00019028
831.31597778,0.00025718
833.24478516,0.00058731
835.17359253,0.00042422
837.10239990,0.00031265
839.03120728,0.00027286
840.96001465,0.00034118
842.88882202,0.00024619
844.81762939,0.00016474
846.74643677,0.00029309
848.67524414,0.00010923
850.60405151,0.00020123
852.53285889,0.00040288
854.46166626,0.00042891
856.39047363,0.00009935
858.31928101,0.00007028
860.24808838,0.00040645
862.17689575,0.00021751
864.10570313,0.00032828
866.03451050,0.00038496
867.96331787,0.00031588
869.89212524,0.00032627
871.82093262,0.00022980
873.74973999,0.00034001
875.67854736,0.00011788
877.60735474,0.00015900
879.53616211,0.00040115
881.46496948,0.00038447
883.39377686,0.00037747
885.32258423,0.00019328
887.25139160,0.00036605
889.18019897,0.00029513
891.10900635,0.00014018
893.03781372,0.00045122
894.96662109,0.00017756
896.89542847,0.00012601
898.82423584,0.00039114
900.75304321,0.00026526
902.68185059,0.00024500
904.61065796,0.00015512
906.53946533,0.00038685
908.46827271,0.00045026
910.39708008,0.00016154
912.32588745,0.00033140
914.25469482,0.00037311
916.18350220,0.00047548
918.11230957,0.00030583
920.04111694,0.00017765
921.96992432,0.00047585
923.89873169,0.00026396
925.82753906,0.00047955
927.75634644,0.00059413
929.68515381,0.00033554
931.61396118,0.00055377
933.54276855,0.00031319
935.47157593,0.00025713
937.40038330,0.00065224
939.32919067,0.00059814
941.25799805,0.00059081
943.18680542,0.00069585
945.11561279,0.00055235
947.04442017,0.00048245
948.97322754,0.00062449
950.90203491,0.00054117
952.83084229,0.00034877
954.75964966,0.00052162
956.68845703,0.00069438
958.61726440,0.00068595
960.54607178,0.00053134
962.47487915,0.00045767
964.40368652,0.00071717
966.33249390,0.00053798
968.26130127,0.00054746
970.19010864,0.00089052
972.11891602,0.00056476
974.04772339,0.00071909
975.97653076,0.00085436
977.90533813,0.00056711
979.83414551,0.00086672
981.76295288,0.00099099
983.69176025,0.00097570
985.62056763,0.00082230
987.54937500,0.00081958
989.47818237,0.00134183
991.40698975,0.00149882
993.33579712,0.00139240
995.26460449,0.00139927
997.19341187,0.00163793
999.12221924,0.00183590
1001.05102661,0.00202033
1002.97983398,0.00214075
1004.90864136,0.00211990
1006.83744873,0.00234568
1008.76625610,0.00244747
1010.69506348,0.00250893
1012.62387085,0.00247678
1014.55267822,0.00282716
1016.48148560,0.00325046
1018.41029297,0.00293093
1020.33910034,0.00291964
1022.26790771,0.00318848
1024.19671509,0.00354456
1026.12552246,0.00344319
1028.05432983,0.00340935
1029.98313721,0.00391820
1031.91194458,0.00367492
1033.84075195,0.00397236
1035.76955933,0.00430829
1037.69836670,0.00386090
1039.62717407,0.00389510
1041.55598145,0.00411822
1043.48478882,0.00419796
1045.41359619,0.00383333
1047.34240356,0.00382673
1049.27121094,0.00401377
1051.20001831,0.00375234
1053.12882568,0.00391105
1055.05763306,0.00378374
1056.98644043,0.00351934
1058.91524780,0.00363320
1060.84405518,0.00339131
1062.77286255,0.00331199
1064.70166992,0.00350765
1066.63047729,0.00322614
1068.55928467,0.00300724
1070.48809204,0.00299230
1072.41689941,0.00270053
1074.34570679,0.00276561
1076.27451416,0.00282031
1078.20332153,0.00245864
1080.13212891,0.00237238
1082.06093628,0.00227185
1083.98974365,0.00213238
1085.91855103,0.00205959
1087.84735840,0.00193587
1089.77616577,0.00205644
1091.70497314,0.00190318
1093.63378052,0.00174667
1095.56258789,0.00185006
1097.49139526,0.00161938
1099.42020264,0.00175310
1101.34901001,0.00180417
1103.27781738,0.00158369
1105.20662476,0.00174083
1107.13543213,0.00156980
1109.06423950,0.00148655
1110.99304687,0.00148567
1112.92185425,0.00162070
1114.85066162,0.00189690
1116.77946899,0.00151098
1118.70827637,0.00159137
1120.63708374,0.00168956
1122.56589111,0.00143048
1124.49469849,0.00175690
1126.42350586,0.00177524
1128.35231323,0.00171275
1130.28112061,0.00182870
1132.20992798,0.00172309
1134.13873535,0.00177386
1136.06754272,0.00184872
1137.99635010,0.00200203
1139.92515747,0.00225812
1141.85396484,0.00224821
1143.78277222,0.00215798
1145.71157959,0.00230848
1147.64038696,0.00254945
1149.56919434,0.00266109
1151.49800171,0.00269441
1153.42680908,0.00289533
1155.35561646,0.00309977
1157.28442383,0.00313920
1159.21323120,0.00317746
1161.14203857,0.00338657
1163.07084595,0.00373400
1164.99965332,0.00362826
1166.92846069,0.00356725
1168.85726807,0.00380777
1170.78607544,0.00389213
1172.71488281,0.00412369
1174.64369019,0.00423495
1176.57249756,0.00446366
1178.50130493,0.00469672
1180.43011230,0.00466367
1182.35891968,0.00486545
1184.28772705,0.00515361
1186.21653442,0.00544100
1188.14534180,0.00567199
1190.07414917,0.00600048
1192.00295654,0.00617886
1193.93176392,0.00618853
1195.86057129,0.00656917
1197.78937866,0.00708065
1199.71818604,0.00719704
1201.64699341,0.00735639
1203.57580078,0.00808475
1205.50460815,0.00813802
1207.43341553,0.00821305
1209.36222290,0.00887709
1211.29103027,0.00896481
1213.21983765,0.00920932
1215.14864502,0.00952606
1217.07745239,0.00978293
1219.00625977,0.00997684
1220.93506714,0.01006466
1222.86387451,0.01009195
1224.79268188,0.00997687
1226.72148926,0.01027742
1228.65029663,0.01017841
1230.57910400,0.01023912
1232.50791138,0.01048218
1234.43671875,0.01032657
1236.36552612,0.01056562
1238.29433350,0.01034822
1240.22314087,0.01029560
1242.15194824,0.01054053
1244.08075562,0.01027042
1246.00956299,0.01034684
1247.93837036,0.01035216
1249.86717773,0.01010853
1251.79598511,0.01025416
1253.72479248,0.01012162
1255.65359985,0.00980815
1257.58240723,0.00995701
1259.51121460,0.00960458
1261.44002197,0.00934326
1263.36882935,0.00953570
1265.29763672,0.00930086
1267.22644409,0.00928608
1269.15525146,0.00909291
1271.08405884,0.00892490
1273.01286621,0.00902156
1274.94167358,0.00877404
1276.87048096,0.00853257
1278.79928833,0.00832511
1280.72809570,0.00835172
1282.65690308,0.00826311
1284.58571045,0.00817656
1286.51451782,0.00811247
1288.44332520,0.00775101
1290.37213257,0.00778937
1292.30093994,0.00773402
1294.22974731,0.00750680
1296.15855469,0.00756993
1298.08736206,0.00768505
1300.01616943,0.00770153
1301.94497681,0.00761895
1303.87378418,0.00765971
1305.80259155,0.00774389
1307.73139893,0.00781564
1309.66020630,0.00793990
1311.58901367,0.00817769
1313.51782104,0.00825188
1315.44662842,0.00830546
1317.37543579,0.00856288
1319.30424316,0.00882599
1321.23305054,0.00930889
1323.16185791,0.00949216
1325.09066528,0.00961890
1327.01947266,0.01003871
1328.94828003,0.01024990
1330.87708740,0.01049719
1332.80589478,0.01063845
1334.73470215,0.01084930
1336.66350952,0.01100191
1338.59231689,0.01082815
1340.52112427,0.01106150
1342.44993164,0.01148724
1344.37873901,0.01169903
1346.30754639,0.01169419
1348.23635376,0.01150415
1350.16516113,0.01156052
1352.09396851,0.01158872
1354.02277588,0.01141148
1355.95158325,0.01146267
1357.88039062,0.01131663
1359.80919800,0.01104494
1361.73800537,0.01074525
1363.66681274,0.01055999
1365.59562012,0.01099651
1367.52442749,0.01086405
1369.45323486,0.01073463
1371.38204224,0.01082249
1373.31084961,0.01017362
1375.23965698,0.01046311
1377.16846436,0.01089518
1379.09727173,0.01056596
1381.02607910,0.01064343
1382.95488647,0.01076198
1384.88369385,0.01060570
1386.81250122,0.01027900
1388.74130859,0.01052280
1390.67011597,0.01115458
1392.59892334,0.01074165
1394.52773071,0.01024418
1396.45653809,0.01081179
1398.38534546,0.01077065
1400.31415283,0.01083670
1402.24296021,0.01151104
1404.17176758,0.01093282
1406.10057495,0.01101255
1408.02938232,0.01132422
1409.95818970,0.01108091
1411.88699707,0.01124443
1413.81580444,0.01092034
1415.74461182,0.01107879
1417.67341919,0.01002225
1419.60222656,0.00915735
1421.53103394,0.01045333
1423.45984131,0.01018211
1425.38864868,0.00971226
1427.31745605,0.00994524
1429.24626343,0.00934608
1431.17507080,0.00899138
1433.10387817,0.00907735
1435.03268555,0.00824002
1436.96149292,0.00738933
1438.89030029,0.00827954
1440.81910767,0.00830586
1442.74791504,0.00778894
1444.67672241,0.00799459
1446.60552979,0.00747247
1448.53433716,0.00760515
1450.46314453,0.00789558
1452.39195190,0.00800495
1454.32075928,0.00829433
1456.24956665,0.00722866
1458.17837402,0.00743087
1460.10718140,0.00949109
1462.03598877,0.01008348
1463.96479614,0.01010042
1465.89360352,0.01046083
1467.82241089,0.01172447
1469.75121826,0.01258029
1471.68002563,0.01140855
1473.60883301,0.01211968
1475.53764038,0.01357530
1477.46644775,0.01456521
1479.39525513,0.01592333
1481.32406250,0.01607696
1483.25286987,0.01721462
1485.18167725,0.01761281
1487.11048462,0.01727832
1489.03929199,0.01725300
1490.96809937,0.01725471
1492.89690674,0.02000141
1494.82571411,0.01958469
1496.75452148,0.01790306
1498.68332886,0.02015395
1500.61213623,0.02052108
1502.54094360,0.02202633
1504.46975098,0.02080668
1506.39855835,0.01556696
1508.32736572,0.01898951
1510.25617310,0.02179966
1512.18498047,0.02119276
1514.11378784,0.02286066
1516.04259521,0.02075252
1517.97140259,0.02177173
1519.90020996,0.02096241
1521.82901733,0.01853004
1523.75782471,0.02244142
1525.68663208,0.02193920
1527.61543945,0.02180856
1529.54424683,0.02391395
1531.47305420,0.02308695
1533.40186157,0.02127708
1535.33066895,0.02262375
1537.25947632,0.02395888
1539.18828369,0.01751642
1541.11709106,0.01867988
1543.04589844,0.02188070
1544.97470581,0.02098344
1546.90351318,0.02465397
1548.83232056,0.02295227
1550.76112793,0.02379651
1552.68993530,0.02369625
1554.61874268,0.02159300
1556.54755005,0.02291804
1558.47635742,0.01657281
1560.40516479,0.01825882
1562.33397217,0.02510478
1564.26277954,0.02355466
1566.19158691,0.02432149
1568.12039429,0.02399367
1570.04920166,0.02165303
1571.97800903,0.02466997
1573.90681641,0.02470815
1575.83562378,0.02016943
1577.76443115,0.02276771
1579.69323853,0.02577474
1581.62204590,0.02445205
1583.55085327,0.02474143
1585.47966064,0.02462558
1587.40846802,0.02456595
1589.33727539,0.02459775
1591.26608276,0.02466768
1593.19489014,0.02451024
1595.12369751,0.02444611
1597.05250488,0.02473770
1598.98131226,0.02462699
1600.91011963,0.02476533
1602.83892700,0.02437686
1604.76773437,0.02477777
1606.69654175,0.02444002
1608.62534912,0.02442824
1610.55415649,0.02438152
1612.48296387,0.02483213
1614.41177124,0.02495622
1616.34057861,0.02058515
1618.26938599,0.02257620
1620.19819336,0.02567963
1622.12700073,0.02279635
1624.05580811,0.02317553
1625.98461548,0.02435011
1627.91342285,0.02419831
1629.84223022,0.02394582
1631.77103760,0.02548164
1633.69984497,0.02364364
1635.62865234,0.01983619
1637.55745972,0.02292918
1639.48626709,0.02496740
1641.41507446,0.02446095
1643.34388184,0.02526749
1645.27268921,0.02274064
1647.20149658,0.02025293
1649.13030396,0.02502052
1651.05911133,0.02352542
1652.98791870,0.01579212
1654.91672607,0.02093364
1656.84553345,0.02558212
1658.77434082,0.02472880
1660.70314819,0.02542402
1662.63195557,0.02318778
1664.56076294,0.02450013
1666.48957031,0.02605307
1668.41837769,0.02282268
1670.34718506,0.02238644
1672.27599243,0.02520604
1674.20479980,0.02337625
1676.13360718,0.02264131
1678.06241455,0.02573562
1679.99122192,0.02484150
1681.92002930,0.02471385
1683.84883667,0.02034543
1685.77764404,0.02037795
1687.70645142,0.02719791
1689.63525879,0.02374534
1691.56406616,0.02605937
1693.49287354,0.02608919
1695.42168091,0.01974450
1697.35048828,0.02422635
1699.27929565,0.02108643
1701.20810303,0.01950131
1703.13691040,0.02586624
1705.06571777,0.02376604
1706.99452515,0.02424545
1708.92333252,0.02595106
1710.85213989,0.02507263
1712.78094727,0.02552868
1714.70975464,0.02370342
1716.63856201,0.02152411
1718.56736938,0.02122493
1720.49617676,0.02491029
1722.42498413,0.02574101
1724.35379150,0.02421145
1726.28259888,0.02607423
1728.21140625,0.02391939
1730.14021362,0.02428415
1732.06902100,0.02348646
1733.99782837,0.01836957
1735.92663574,0.02280397
1737.85544312,0.02474280
1739.78425049,0.02228034
1741.71305786,0.02428186
1743.64186523,0.02458068
1745.57067261,0.02463435
1747.49947998,0.02490668
1749.42828735,0.02378380
1751.35709473,0.02271197
1753.28590210,0.02525517
1755.21470947,0.02615960
1757.14351685,0.02407232
1759.07232422,0.02635243
1761.00113159,0.02464037
1762.92993896,0.02420713
1764.85874634,0.02733767
1766.78755371,0.02478258
1768.71636108,0.02513948
1770.64516846,0.02474421
1772.57397583,0.02262084
1774.50278320,0.02506360
1776.43159058,0.02628155
1778.36039795,0.02605879
1780.28920532,0.02571597
1782.21801270,0.02586207
1784.14682007,0.02589948
1786.07562744,0.02546198
1788.00443481,0.02662655
1789.93324219,0.02597198
1791.86204956,0.02377036
1793.79085693,0.02483609
1795.71966431,0.02635956
1797.64847168,0.02607775
1799.57727905,0.02576691
1801.50608643,0.02522524
1803.43489380,0.02613200
1805.36370117,0.02669501
1807.29250854,0.02637841
1809.22131592,0.02650374
1811.15012329,0.02588782
1813.07893066,0.02659266
1815.00773804,0.02660910
1816.93654541,0.02648884
1818.86535278,0.02672942
1820.79416016,0.02670315
1822.72296753,0.02692841
1824.65177490,0.02524748
1826.58058228,0.02638608
1828.50938965,0.02631563
1830.43819702,0.02475711
1832.36700439,0.02671774
1834.29581177,0.02652580
1836.22461914,0.02661490
1838.15342651,0.02663630
1840.08223389,0.02679146
1842.01104126,0.02657473
1843.93984863,0.02395087
1845.86865601,0.02553469
1847.79746338,0.02671601
1849.72627075,0.02621786
1851.65507812,0.02690577
1853.58388550,0.02646983
1855.51269287,0.02676689
1857.44150024,0.02656920
1859.37030762,0.02638594
1861.29911499,0.02664038
1863.22792236,0.02635969
1865.15672974,0.02666389
1867.08553711,0.02599301
1869.01434448,0.02496818
1870.94315186,0.02584951
1872.87195923,0.02665225
1874.80076660,0.02644750
1876.72957397,0.02667528
1878.65838135,0.02634052
1880.58718872,0.02638750
1882.51599609,0.02650199
1884.44480347,0.02603020
1886.37361084,0.02662662
1888.30241821,0.02601918
1890.23122559,0.02555243
1892.16003296,0.02631921
1894.08884033,0.02602619
1896.01764771,0.02606873
1897.94645508,0.02620073
1899.87526245,0.02620413
1901.80406982,0.02629219
1903.73287720,0.02603202
1905.66168457,0.02613739
1907.59049194,0.02581296
1909.51929932,0.02575422
1911.44810669,0.02603408
1913.37691406,0.02606343
1915.30572144,0.02629547
1917.23452881,0.02527540
1919.16333618,0.02528800
1921.09214355,0.02606475
1923.02095093,0.02533604
1924.94975830,0.02595399
1926.87856567,0.02616446
1928.80737305,0.02581380
1930.73618042,0.02615262
1932.66498779,0.02586123
1934.59379517,0.02616091
1936.52260254,0.02602962
1938.45140991,0.02601737
1940.38021729,0.02596617
1942.30902466,0.02526812
1944.23783203,0.02564687
1946.16663940,0.02580934
1948.09544678,0.02587637
1950.02425415,0.02603314
1951.95306152,0.02596781
1953.88186890,0.02601742
1955.81067627,0.02599120
1957.73948364,0.02597971
1959.66829102,0.02573533
1961.59709839,0.02598313
1963.52590576,0.02608797
1965.45471313,0.02577611
1967.38352051,0.02569675
1969.31232788,0.02567166
1971.24113525,0.02594344
1973.16994263,0.02589121
1975.09875000,0.02576354
1977.02755737,0.02596197
1978.95636475,0.02594923
1980.88517212,0.02580687
1982.81397949,0.02586044
1984.74278687,0.02586121
1986.67159424,0.02569200
1988.60040161,0.02575649
1990.52920898,0.02550219
1992.45801636,0.02530818
1994.38682373,0.02566642
1996.31563110,0.02575184
1998.24443848,0.02573359
2000.17324585,0.02564070
2002.10205322,0.02550176
2004.03086060,0.02562089
2005.95966797,0.02554995
2007.88847534,0.02555012
2009.81728271,0.02557115
2011.74609009,0.02542286
2013.67489746,0.02551730
2015.60370483,0.02525429
2017.53251221,0.02507727
2019.46131958,0.02525234
2021.39012695,0.02518024
2023.31893433,0.02522739
2025.24774170,0.02513398
2027.17654907,0.02516560
2029.10535645,0.02522835
2031.03416382,0.02507867
2032.96297119,0.02512649
2034.89177856,0.02495762
2036.82058594,0.02484152
2038.74939331,0.02496345
2040.67820068,0.02495911
2042.60700806,0.02472404
2044.53581543,0.02467477
2046.46462280,0.02479413
2048.39343018,0.02469153
2050.32223755,0.02463705
2052.25104492,0.02464859
2054.17985229,0.02469265
2056.10865967,0.02451324
2058.03746704,0.02443867
2059.96627441,0.02451979
2061.89508179,0.02452531
2063.82388916,0.02447145
2065.75269653,0.02417872
2067.68150391,0.02441366
2069.61031128,0.02448732
2071.53911865,0.02430275
2073.46792603,0.02436111
2075.39673340,0.02421134
2077.32554077,0.02437003
2079.25434814,0.02428669
2081.18315552,0.02412235
2083.11196289,0.02424510
2085.04077026,0.02420744
2086.96957764,0.02416314
2088.89838501,0.02404421
2090.82719238,0.02398953
2092.75599976,0.02397483
2094.68480713,0.02400558
2096.61361450,0.02397555
2098.54242187,0.02393646
2100.47122925,0.02389924
2102.40003662,0.02383571
2104.32884399,0.02388161
2106.25765137,0.02388471
2108.18645874,0.02392610
2110.11526611,0.02381084
2112.04407349,0.02387055
2113.97288086,0.02376664
2115.90168823,0.02353319
2117.83049561,0.02381516
2119.75930298,0.02374318
2121.68811035,0.02365362
2123.61691772,0.02371739
2125.54572510,0.02365533
2127.47453247,0.02354864
2129.40333984,0.02344375
2131.33214722,0.02366716
2133.26095459,0.02362964
2135.18976196,0.02359525
2137.11856934,0.02359203
2139.04737671,0.02338171
2140.97618408,0.02350062
2142.90499146,0.02351758
2144.83379883,0.02340382
2146.76260620,0.02342675
2148.69141357,0.02339652
2150.62022095,0.02337852
2152.54902832,0.02345691
2154.47783569,0.02342986
2156.40664307,0.02333909
2158.33545044,0.02338012
2160.26425781,0.02336197
2162.19306519,0.02333088
2164.12187256,0.02331131
2166.05067993,0.02319701
2167.97948730,0.02317533
2169.90829468,0.02322142
2171.83710205,0.02323569
2173.76590942,0.02326685
2175.69471680,0.02321253
2177.62352417,0.02314621
2179.55233154,0.02314964
2181.48113892,0.02324767
2183.40994629,0.02326950
2185.33875366,0.02310922
2187.26756104,0.02320307
2189.19636841,0.02318140
2191.12517578,0.02308282
2193.05398315,0.02318624
2194.98279053,0.02309717
2196.91159790,0.02314482
2198.84040527,0.02313801
2200.76921265,0.02302846
2202.69802002,0.02295849
2204.62682739,0.02292431
2206.55563477,0.02305142
2208.48444214,0.02295789
2210.41324951,0.02296460
2212.34205688,0.02299313
2214.27086426,0.02293659
2216.19967163,0.02297392
2218.12847900,0.02291257
2220.05728638,0.02300705
2221.98609375,0.02292681
2223.91490112,0.02281826
2225.84370850,0.02299400
2227.77251587,0.02288825
2229.70132324,0.02276027
2231.63013062,0.02289911
2233.55893799,0.02286502
2235.48774536,0.02270732
2237.41655273,0.02270070
2239.34536011,0.02269496
2241.27416748,0.02265432
2243.20297485,0.02270656
2245.13178223,0.02272752
2247.06058960,0.02258229
2248.98939697,0.02254163
2250.91820435,0.02264806
2252.84701172,0.02261480
2254.77581909,0.02248457
2256.70462646,0.02245232
2258.63343384,0.02249571
2260.56224121,0.02253801
2262.49104858,0.02256760
2264.41985596,0.02246391
2266.34866333,0.02259707
2268.27747070,0.02262448
2270.20627808,0.02228320
2272.13508545,0.02235322
2274.06389282,0.02237530
2275.99270020,0.02232380
2277.92150757,0.02238932
2279.85031494,0.02240196
2281.77912231,0.02250962
2283.70792969,0.02240526
2285.63673706,0.02233467
2287.56554443,0.02226903
2289.49435181,0.02227121
2291.42315918,0.02232232
2293.35196655,0.02218976
2295.28077393,0.02205256
2297.20958130,0.02193802
2299.13838867,0.02209164
2301.06719604,0.02199477
2302.99600342,0.02169635
2304.92481079,0.02162630
2306.85361816,0.02161551
2308.78242554,0.02151619
2310.71123291,0.02125406
2312.64004028,0.02121440
2314.56884766,0.02093121
2316.49765503,0.02062772
2318.42646240,0.02059148
2320.35526978,0.02029428
2322.28407715,0.02006387
2324.21288452,0.01982327
2326.14169189,0.01957818
2328.07049927,0.01937370
2329.99930664,0.01917016
2331.92811401,0.01909140
2333.85692139,0.01901712
2335.78572876,0.01896204
2337.71453613,0.01892879
2339.64334351,0.01889393
2341.57215088,0.01898033
2343.50095825,0.01926843
2345.42976562,0.01951982
2347.35857300,0.02028794
2349.28738037,0.02096651
2351.21618774,0.02022885
2353.14499512,0.01927705
2355.07380249,0.01868580
2357.00260986,0.01808197
2358.93141724,0.01779031
2360.86022461,0.01766658
2362.78903198,0.01759157
2364.71783936,0.01771085
2366.64664673,0.01793241
2368.57545410,0.01830449
2370.50426147,0.01877831
2372.43306885,0.01921148
2374.36187622,0.01977079
2376.29068359,0.02012573
2378.21949097,0.02056177
2380.14829834,0.02113543
2382.07710571,0.02125816
2384.00591309,0.02137782
2385.93472046,0.02145975
2387.86352783,0.02139040
2389.79233521,0.02137741
2391.72114258,0.02144728
2393.64994995,0.02141757
2395.57875732,0.02139610
2397.50756470,0.02148060
2399.43637207,0.02129868
2401.36517944,0.02137341
2403.29398682,0.02143519
2405.22279419,0.02134573
2407.15160156,0.02137915
2409.08040894,0.02120912
2411.00921631,0.02125711
2412.93802368,0.02125647
2414.86683105,0.02116440
2416.79563843,0.02122521
2418.72444580,0.02126367
2420.65325317,0.02122094
2422.58206055,0.02106206
2424.51086792,0.02110360
2426.43967529,0.02116651
2428.36848267,0.02111200
2430.29729004,0.02109753
2432.22609741,0.02107095
2434.15490479,0.02102192
2436.08371216,0.02111264
2438.01251953,0.02106868
2439.94132690,0.02103249
2441.87013428,0.02112833
2443.79894165,0.02088412
2445.72774902,0.02100116
2447.65655640,0.02096907
2449.58536377,0.02081198
2451.51417114,0.02105798
2453.44297852,0.02083653
2455.37178589,0.02085931
2457.30059326,0.02092364
2459.22940063,0.02083320
2461.15820801,0.02083608
2463.08701538,0.02069175
2465.01582275,0.02069344
2466.94463013,0.02056375
2468.87343750,0.02070830
2470.80224487,0.02081582
2472.73105225,0.02068452
2474.65985962,0.02066224
2476.58866699,0.02059177
2478.51747437,0.02064334
2480.44628174,0.02064987
2482.37508911,0.02070858
2484.30389648,0.02052209
2486.23270386,0.02045017
2488.16151123,0.02061323
2490.09031860,0.02055596
2492.01912598,0.02060165
2493.94793335,0.02043036
2495.87674072,0.02045521
2497.80554810,0.02054418
2499.73435547,0.02049240
2501.66316284,0.02055964
2503.59197021,0.02039175
2505.52077759,0.02047359
2507.44958496,0.02048288
2509.37839233,0.02033509
2511.30719971,0.02037491
2513.23600708,0.02042285
2515.16481445,0.02045159
2517.09362183,0.02025028
2519.02242920,0.02028586
2520.95123657,0.02034606
2522.88004395,0.02023135
2524.80885132,0.02032870
2526.73765869,0.02022348
2528.66646606,0.02019862
2530.59527344,0.02034423
2532.52408081,0.02019184
2534.45288818,0.02008335
2536.38169556,0.02015941
2538.31050293,0.02012113
2540.23931030,0.02009746
2542.16811768,0.02019211
2544.09692505,0.02009714
2546.02573242,0.02006869
2547.95453979,0.02015931
2549.88334717,0.02000468
2551.81215454,0.02001406
2553.74096191,0.02003747
2555.66976929,0.01993399
2557.59857666,0.02002391
2559.52738403,0.01994185
2561.45619141,0.01989317
2563.38499878,0.01997221
2565.31380615,0.01987082
2567.24261353,0.01985604
2569.17142090,0.01988285
2571.10022827,0.01989571
2573.02903564,0.01994347
2574.95784302,0.01982653
2576.88665039,0.01976938
2578.81545776,0.01983874
2580.74426514,0.01977233
2582.67307251,0.01974569
2584.60187988,0.01965284
2586.53068726,0.01960335
2588.45949463,0.01969191
2590.38830200,0.01965072
2592.31710937,0.01974433
2594.24591675,0.01964314
2596.17472412,0.01958158
2598.10353149,0.01977334
2600.03233887,0.01969310
2601.96114624,0.01966141
2603.88995361,0.01960159
2605.81876099,0.01960431
2607.74756836,0.01955280
2609.67637573,0.01947621
2611.60518311,0.01956132
2613.53399048,0.01935624
2615.46279785,0.01940494
2617.39160522,0.01944478
2619.32041260,0.01942448
2621.24921997,0.01959341
2623.17802734,0.01938103
2625.10683472,0.01927659
2627.03564209,0.01930991
2628.96444946,0.01928627
2630.89325684,0.01924135
2632.82206421,0.01928020
2634.75087158,0.01940240
2636.67967895,0.01927458
2638.60848633,0.01927833
2640.53729370,0.01929412
2642.46610107,0.01919238
2644.39490845,0.01917284
2646.32371582,0.01916524
2648.25252319,0.01916062
2650.18133057,0.01911016
2652.11013794,0.01915494
2654.03894531,0.01915849
2655.96775269,0.01914853
2657.89656006,0.01910114
2659.82536743,0.01905381
2661.75417480,0.01913173
2663.68298218,0.01895384
2665.61178955,0.01892393
2667.54059692,0.01895103
2669.46940430,0.01881484
2671.39821167,0.01898649
2673.32701904,0.01896881
2675.25582642,0.01891250
2677.18463379,0.01896061
2679.11344116,0.01875897
2681.04224854,0.01882069
2682.97105591,0.01889717
2684.89986328,0.01878527
2686.82867065,0.01882571
2688.75747803,0.01881504
2690.68628540,0.01872867
2692.61509277,0.01871430
2694.54390015,0.01879258
2696.47270752,0.01877001
2698.40151489,0.01865998
2700.33032227,0.01868980
2702.25912964,0.01872283
2704.18793701,0.01866589
2706.11674438,0.01864718
2708.04555176,0.01859553
2709.97435913,0.01848601
2711.90316650,0.01852917
2713.83197388,0.01851672
2715.76078125,0.01852852
2717.68958862,0.01863427
2719.61839600,0.01847900
2721.54720337,0.01844365
2723.47601074,0.01851921
2725.40481812,0.01843259
2727.33362549,0.01835904
2729.26243286,0.01833365
2731.19124023,0.01835570
2733.12004761,0.01831154
2735.04885498,0.01827694
2736.97766235,0.01836557
2738.90646973,0.01833740
2740.83527710,0.01811014
2742.76408447,0.01818163
2744.69289185,0.01829363
2746.62169922,0.01815845
2748.55050659,0.01829829
2750.47931396,0.01824274
2752.40812134,0.01806983
2754.33692871,0.01810676
2756.26573608,0.01802578
2758.19454346,0.01808550
2760.12335083,0.01816952
2762.05215820,0.01803662
2763.98096558,0.01791361
2765.90977295,0.01799622
2767.83858032,0.01792853
2769.76738770,0.01789614
2771.69619507,0.01800526
2773.62500244,0.01784969
2775.55380981,0.01795342
2777.48261719,0.01790237
2779.41142456,0.01774216
2781.34023193,0.01793680
2783.26903931,0.01786346
2785.19784668,0.01775434
2787.12665405,0.01764626
2789.05546143,0.01768070
2790.98426880,0.01777308
2792.91307617,0.01760336
2794.84188354,0.01767724
2796.77069092,0.01766944
2798.69949829,0.01755445
2800.62830566,0.01763364
2802.55711304,0.01756390
2804.48592041,0.01748326
2806.41472778,0.01751126
2808.34353516,0.01747161
2810.27234253,0.01748256
2812.20114990,0.01750464
2814.12995728,0.01738010
2816.05876465,0.01736969
2817.98757202,0.01745258
2819.91637939,0.01737732
2821.84518677,0.01732648
2823.77399414,0.01737593
2825.70280151,0.01727846
2827.63160889,0.01715152
2829.56041626,0.01720772
2831.48922363,0.01724367
2833.41803101,0.01718718
2835.34683838,0.01712082
2837.27564575,0.01710280
2839.20445312,0.01702016
2841.13326050,0.01691436
2843.06206787,0.01694306
2844.99087524,0.01693815
2846.91968262,0.01692497
2848.84848999,0.01676181
2850.77729736,0.01658375
2852.70610474,0.01666983
2854.63491211,0.01668742
2856.56371948,0.01669325
2858.49252686,0.01673312
2860.42133423,0.01666212
2862.35014160,0.01660544
2864.27894897,0.01665217
2866.20775635,0.01662484
2868.13656372,0.01653237
2870.06537109,0.01659941
2871.99417847,0.01649673
2873.92298584,0.01641359
2875.85179321,0.01650365
2877.78060059,0.01644242
2879.70940796,0.01649247
2881.63821533,0.01645303
2883.56702270,0.01635185
2885.49583008,0.01637755
2887.42463745,0.01635357
2889.35344482,0.01638289
2891.28225220,0.01628491
2893.21105957,0.01627894
2895.13986694,0.01629596
2897.06867432,0.01612666
2898.99748169,0.01615381
2900.92628906,0.01621936
2902.85509644,0.01624609
2904.78390381,0.01612596
2906.71271118,0.01600754
2908.64151855,0.01603906
2910.57032593,0.01593933
2912.49913330,0.01591387
2914.42794067,0.01579892
2916.35674805,0.01571915
2918.28555542,0.01581414
2920.21436279,0.01579830
2922.14317017,0.01577255
2924.07197754,0.01565980
2926.00078491,0.01571367
2927.92959229,0.01578960
2929.85839966,0.01565497
2931.78720703,0.01561943
2933.71601440,0.01558570
2935.64482178,0.01563443
2937.57362915,0.01567179
2939.50243652,0.01564053
2941.43124390,0.01565191
2943.36005127,0.01557587
2945.28885864,0.01554536
2947.21766602,0.01554166
2949.14647339,0.01554701
2951.07528076,0.01550252
2953.00408813,0.01545405
2954.93289551,0.01559304
2956.86170288,0.01554733
2958.79051025,0.01543514
2960.71931763,0.01544471
2962.64812500,0.01532171
2964.57693237,0.01529654
2966.50573975,0.01531368
2968.43454712,0.01534317
2970.36335449,0.01535902
2972.29216187,0.01529177
2974.22096924,0.01536890
2976.14977661,0.01533223
2978.07858398,0.01529241
2980.00739136,0.01529390
2981.93619873,0.01538034
2983.86500610,0.01543198
2985.79381348,0.01517245
2987.72262085,0.01537375
2989.65142822,0.01545032
2991.58023560,0.01521767
2993.50904297,0.01528496
2995.43785034,0.01513820
2997.36665771,0.01516217
2999.29546509,0.01523755
3001.22427246,0.01518279
3003.15307983,0.01524683
3005.08188721,0.01523655
3007.01069458,0.01516560
3008.93950195,0.01508558
3010.86830933,0.01515182
3012.79711670,0.01504261
3014.72592407,0.01498621
3016.65473145,0.01502264
3018.58353882,0.01486291
3020.51234619,0.01493456
3022.44115356,0.01505094
3024.36996094,0.01499357
3026.29876831,0.01482514
3028.22757568,0.01486650
3030.15638306,0.01490189
3032.08519043,0.01472469
3034.01399780,0.01471613
3035.94280518,0.01471339
3037.87161255,0.01474408
3039.80041992,0.01466429
3041.72922729,0.01464262
3043.65803467,0.01465793
3045.58684204,0.01450318
3047.51564941,0.01453068
3049.44445679,0.01454742
3051.37326416,0.01459831
3053.30207153,0.01450700
3055.23087891,0.01440780
3057.15968628,0.01450642
3059.08849365,0.01450147
3061.01730103,0.01459592
3062.94610840,0.01452025
3064.87491577,0.01439171
3066.80372314,0.01438981
3068.73253052,0.01430865
3070.66133789,0.01427289
3072.59014526,0.01425203
3074.51895264,0.01429003
3076.44776001,0.01433946
3078.37656738,0.01433826
3080.30537476,0.01422386
3082.23418213,0.01421509
3084.16298950,0.01432082
3086.09179687,0.01422751
3088.02060425,0.01422405
3089.94941162,0.01424194
3091.87821899,0.01409840
3093.80702637,0.01402886
3095.73583374,0.01405297
3097.66464111,0.01403811
3099.59344849,0.01399552
3101.52225586,0.01397768
3103.45106323,0.01395682
3105.37987061,0.01400436
3107.30867798,0.01399375
3109.23748535,0.01386450
3111.16629272,0.01384343
3113.09510010,0.01385540
3115.02390747,0.01374090
3116.95271484,0.01366206
3118.88152222,0.01366255
3120.81032959,0.01363643
3122.73913696,0.01364465
3124.66794434,0.01364271
3126.59675171,0.01358865
3128.52555908,0.01353303
3130.45436645,0.01351292
3132.38317383,0.01355567
3134.31198120,0.01349463
3136.24078857,0.01337287
3138.16959595,0.01347638
3140.09840332,0.01348560
3142.02721069,0.01331934
3143.95601807,0.01339318
3145.88482544,0.01334579
3147.81363281,0.01324326
3149.74244019,0.01330598
3151.67124756,0.01318952
3153.60005493,0.01320490
3155.52886230,0.01328148
3157.45766968,0.01314249
3159.38647705,0.01309117
3161.31528442,0.01307569
3163.24409180,0.01296941
3165.17289917,0.01297837
3167.10170654,0.01301494
3169.03051392,0.01296049
3170.95932129,0.01294348
3172.88812866,0.01288715
3174.81693604,0.01288040
3176.74574341,0.01283742
3178.67455078,0.01273444
3180.60335815,0.01277690
3182.53216553,0.01280701
3184.46097290,0.01271860
3186.38978027,0.01257802
3188.31858765,0.01263966
3190.24739502,0.01264135
3192.17620239,0.01251284
3194.10500977,0.01252277
3196.03381714,0.01250300
3197.96262451,0.01252069
3199.89143188,0.01246043
3201.82023926,0.01248736
3203.74904663,0.01254507
3205.67785400,0.01242566
3207.60666138,0.01244286
3209.53546875,0.01237915
3211.46427612,0.01227117
3213.39308350,0.01234145
3215.32189087,0.01232722
3217.25069824,0.01225170
3219.17950562,0.01238967
3221.10831299,0.01232877
3223.03712036,0.01221669
3224.96592773,0.01230705
3226.89473511,0.01214395
3228.82354248,0.01219502
3230.75234985,0.01216906
3232.68115723,0.01206295
3234.60996460,0.01218832
3236.53877197,0.01206516
3238.46757935,0.01208177
3240.39638672,0.01206291
3242.32519409,0.01206097
3244.25400146,0.01207833
3246.18280884,0.01197192
3248.11161621,0.01207598
3250.04042358,0.01199430
3251.96923096,0.01188712
3253.89803833,0.01191461
3255.82684570,0.01194824
3257.75565308,0.01188337
3259.68446045,0.01183657
3261.61326782,0.01199375
3263.54207520,0.01198023
3265.47088257,0.01189287
3267.39968994,0.01192758
3269.32849731,0.01193258
3271.25730469,0.01185446
3273.18611206,0.01195065
3275.11491943,0.01195047
3277.04372681,0.01181299
3278.97253418,0.01184961
3280.90134155,0.01185228
3282.83014893,0.01193765
3284.75895630,0.01186693
3286.68776367,0.01186174
3288.61657104,0.01188307
3290.54537842,0.01176073
3292.47418579,0.01184361
3294.40299316,0.01172532
3296.33180054,0.01178789
3298.26060791,0.01185557
3300.18941528,0.01170829
3302.11822266,0.01172441
3304.04703003,0.01164563
3305.97583740,0.01166718
3307.90464478,0.01167795
3309.83345215,0.01162988
3311.76225952,0.01166319
3313.69106689,0.01168385
3315.61987427,0.01158269
3317.54868164,0.01155145
3319.47748901,0.01164862
3321.40629639,0.01159470
3323.33510376,0.01157857
3325.26391113,0.01151910
3327.19271851,0.01157709
3329.12152588,0.01164152
3331.05033325,0.01155928
3332.97914062,0.01156726
3334.90794800,0.01150538
3336.83675537,0.01146871
3338.76556274,0.01137561
3340.69437012,0.01139094
3342.62317749,0.01143694
3344.55198486,0.01145014
3346.48079224,0.01150644
3348.40959961,0.01141962
3350.33840698,0.01140925
3352.26721436,0.01130692
3354.19602173,0.01134220
3356.12482910,0.01137822
3358.05363647,0.01124126
3359.98244385,0.01126845
3361.91125122,0.01125924
3363.84005859,0.01127584
3365.76886597,0.01123695
3367.69767334,0.01125638
3369.62648071,0.01129114
3371.55528809,0.01119266
3373.48409546,0.01112716
3375.41290283,0.01112004
3377.34171020,0.01115432
3379.27051758,0.01120445
3381.19932495,0.01127732
3383.12813232,0.01104791
3385.05693970,0.01099155
3386.98574707,0.01113829
3388.91455444,0.01111870
3390.84336182,0.01109805
3392.77216919,0.01090567
3394.70097656,0.01093516
3396.62978394,0.01092836
3398.55859131,0.01089804
3400.48739868,0.01095034
3402.41620605,0.01083189
3404.34501343,0.01090893
3406.27382080,0.01085169
3408.20262817,0.01083013
3410.13143555,0.01086218
3412.06024292,0.01080213
3413.98905029,0.01078523
3415.91785767,0.01074629
3417.84666504,0.01081245
3419.77547241,0.01071270
3421.70427979,0.01071537
3423.63308716,0.01078729
3425.56189453,0.01073090
3427.49070190,0.01074096
3429.41950928,0.01068725
3431.34831665,0.01069092
3433.27712402,0.01069852
3435.20593140,0.01061090
3437.13473877,0.01056598
3439.06354614,0.01062160
3440.99235352,0.01054818
3442.92116089,0.01054246
3444.84996826,0.01054238
3446.77877563,0.01032639
3448.70758301,0.01043469
3450.63639038,0.01049135
3452.56519775,0.01047177
3454.49400513,0.01060774
3456.42281250,0.01050642
3458.35161987,0.01046369
3460.28042725,0.01048933
3462.20923462,0.01047336
3464.13804199,0.01043548
3466.06684937,0.01034942
3467.99565674,0.01035952
3469.92446411,0.01034375
3471.85327148,0.01036578
3473.78207886,0.01040675
3475.71088623,0.01029871
3477.63969360,0.01035872
3479.56850098,0.01038501
3481.49730835,0.01017274
3483.42611572,0.01021867
3485.35492310,0.01036937
3487.28373047,0.01029355
3489.21253784,0.01019251
3491.14134521,0.01029339
3493.07015259,0.01026599
3494.99895996,0.01019142
3496.92776733,0.01035186
3498.85657471,0.01032094
3500.78538208,0.01023761
3502.71418945,0.01002995
3504.64299683,0.01006414
3506.57180420,0.01033971
3508.50061157,0.01016572
3510.42941895,0.01019964
3512.35822632,0.01017270
3514.28703369,0.01018267
3516.21584106,0.01039072
3518.14464844,0.01019154
3520.07345581,0.01020961
3522.00226318,0.01019316
3523.93107056,0.01006733
3525.85987793,0.01015625
3527.78868530,0.01009939
3529.71749268,0.01007580
3531.64630005,0.01014305
3533.57510742,0.01020126
3535.50391479,0.01018647
3537.43272217,0.01015878
3539.36152954,0.01020370
3541.29033691,0.01018326
3543.21914429,0.01013667
3545.14795166,0.00986740
3547.07675903,0.00972178
3549.00556641,0.01011965
3550.93437378,0.01007035
3552.86318115,0.00988451
3554.79198853,0.01012262
3556.72079590,0.01013426
3558.64960327,0.01016527
3560.57841064,0.00999110
3562.50721802,0.01002013
3564.43602539,0.01013264
3566.36483276,0.00937336
3568.29364014,0.00921801
3570.22244751,0.00988088
3572.15125488,0.01009028
3574.08006226,0.01007642
3576.00886963,0.01014348
3577.93767700,0.01009065
3579.86648437,0.01007467
3581.79529175,0.01008498
3583.72409912,0.01010458
3585.65290649,0.00986362
3587.58171387,0.00914161
3589.51052124,0.00938307
3591.43932861,0.01007330
3593.36813599,0.00985672
3595.29694336,0.00968224
3597.22575073,0.00990598
3599.15455811,0.00999835
3601.08336548,0.00991853
3603.01217285,0.00997518
3604.94098022,0.00995554
3606.86978760,0.00973059
3608.79859497,0.00920899
3610.72740234,0.00947366
3612.65620972,0.00973380
3614.58501709,0.00928623
3616.51382446,0.00998508
3618.44263184,0.00926478
3620.37143921,0.00895947
3622.30024658,0.01009727
3624.22905395,0.00983804
3626.15786133,0.01020630
3628.08666870,0.00873687
3630.01547607,0.00815170
3631.94428345,0.01001016
3633.87309082,0.00968720
3635.80189819,0.00985421
3637.73070557,0.01011126
3639.65951294,0.00990552
3641.58832031,0.00997157
3643.51712769,0.01000484
3645.44593506,0.01000713
3647.37474243,0.00895701
3649.30354980,0.00827548
3651.23235718,0.00848119
3653.16116455,0.00991374
3655.08997192,0.00965277
3657.01877930,0.00877945
3658.94758667,0.01008408
3660.87639404,0.00990511
3662.80520142,0.00998680
3664.73400879,0.00999012
3666.66281616,0.00988710
3668.59162354,0.00956243
3670.52043091,0.00806611
3672.44923828,0.00960187
3674.37804565,0.00906156
3676.30685303,0.00765993
3678.23566040,0.00955805
3680.16446777,0.00966463
3682.09327515,0.00960495
3684.02208252,0.00994143
3685.95088989,0.00978642
3687.87969727,0.00881621
3689.80850464,0.00818558
3691.73731201,0.00934313
3693.66611938,0.00946232
3695.59492676,0.00964842
3697.52373413,0.00970046
3699.45254150,0.00964740
3701.38134888,0.00946641
3703.31015625,0.00907787
3705.23896362,0.00991356
3707.16777100,0.00935036
3709.09657837,0.00919328
3711.02538574,0.00870778
3712.95419312,0.00819547
3714.88300049,0.00960208
3716.81180786,0.00932192
3718.74061523,0.00944350
3720.66942261,0.00930199
3722.59822998,0.00902899
3724.52703735,0.00927577
3726.45584473,0.00858604
3728.38465210,0.00936467
3730.31345947,0.00912822
3732.24226685,0.00854213
3734.17107422,0.00841142
3736.09988159,0.00799677
3738.02868896,0.00846626
3739.95749634,0.00901944
3741.88630371,0.00940035
3743.81511108,0.00736879
3745.74391846,0.00711202
3747.67272583,0.00904292
3749.60153320,0.00784057
3751.53034058,0.00728289
3753.45914795,0.00819864
3755.38795532,0.00892762
3757.31676270,0.00916034
3759.24557007,0.00851848
3761.17437744,0.00888876
3763.10318481,0.00926634
3765.03199219,0.00870969
3766.96079956,0.00891516
3768.88960693,0.00884918
3770.81841431,0.00849645
3772.74722168,0.00909895
3774.67602905,0.00914100
3776.60483643,0.00910353
3778.53364380,0.00880353
3780.46245117,0.00861750
3782.39125854,0.00906687
3784.32006592,0.00878850
3786.24887329,0.00885722
3788.17768066,0.00893828
3790.10648804,0.00896652
3792.03529541,0.00890944
3793.96410278,0.00894801
3795.89291016,0.00851331
3797.82171753,0.00841647
3799.75052490,0.00887028
3801.67933228,0.00711775
3803.60813965,0.00826192
3805.53694702,0.00890658
3807.46575439,0.00736313
3809.39456177,0.00882868
3811.32336914,0.00862735
3813.25217651,0.00893787
3815.18098389,0.00808856
3817.10979126,0.00721766
3819.03859863,0.00895718
3820.96740601,0.00735593
3822.89621338,0.00771930
3824.82502075,0.00884676
3826.75382812,0.00813014
3828.68263550,0.00867399
3830.61144287,0.00830646
3832.54025024,0.00796031
3834.46905762,0.00819316
3836.39786499,0.00793289
3838.32667236,0.00711390
3840.25547974,0.00769974
3842.18428711,0.00827555
3844.11309448,0.00793461
3846.04190186,0.00849404
3847.97070923,0.00835946
3849.89951660,0.00851805
3851.82832397,0.00762047
3853.75713135,0.00575209
3855.68593872,0.00682210
3857.61474609,0.00847000
3859.54355347,0.00821959
3861.47236084,0.00806130
3863.40116821,0.00790785
3865.32997559,0.00746190
3867.25878296,0.00827703
3869.18759033,0.00762423
3871.11639770,0.00716226
3873.04520508,0.00827041
3874.97401245,0.00762785
3876.90281982,0.00821326
3878.83162720,0.00833553
3880.76043457,0.00726820
3882.68924194,0.00820832
3884.61804932,0.00773299
3886.54685669,0.00713432
3888.47566406,0.00818701
3890.40447144,0.00783782
3892.33327881,0.00738801
3894.26208618,0.00803105
3896.19089355,0.00820213
3898.11970093,0.00780812
3900.04850830,0.00735551
3901.97731567,0.00728652
3903.90612305,0.00725900
3905.83493042,0.00739728
3907.76373779,0.00798539
3909.69254517,0.00798502
3911.62135254,0.00795632
3913.55015991,0.00808979
3915.47896728,0.00788325
3917.40777466,0.00760551
3919.33658203,0.00755607
3921.26538940,0.00781348
3923.19419678,0.00769722
3925.12300415,0.00758403
3927.05181152,0.00770843
3928.98061890,0.00782705
3930.90942627,0.00770666
3932.83823364,0.00747610
3934.76704102,0.00771527
3936.69584839,0.00784592
3938.62465576,0.00782510
3940.55346313,0.00772151
3942.48227051,0.00759311
3944.41107788,0.00762629
3946.33988525,0.00763133
3948.26869263,0.00757704
3950.19750000,0.00753085
3952.12630737,0.00765649
3954.05511475,0.00760335
3955.98392212,0.00762647
3957.91272949,0.00763683
3959.84153687,0.00751205
3961.77034424,0.00756009
3963.69915161,0.00752357
3965.62795898,0.00752493
3967.55676636,0.00746386
3969.48557373,0.00753124
3971.41438110,0.00754774
3973.34318848,0.00745973
3975.27199585,0.00744339
3977.20080322,0.00735029
3979.12961060,0.00748605
3981.05841797,0.00743712
3982.98722534,0.00738433
3984.91603271,0.00743273
3986.84484009,0.00744227
3988.77364746,0.00742020
3990.70245483,0.00723677
3992.63126221,0.00733662
3994.56006958,0.00732331
3996.48887695,0.00731339
3998.41768433,0.00737933
4000.34649170,0.00728212
4002.27529907,0.00733047
4004.20410645,0.00730222
4006.13291382,0.00728255
4008.06172119,0.00722536
4009.99052856,0.00715779
4011.91933594,0.00718747
4013.84814331,0.00718515
4015.77695068,0.00718058
4017.70575806,0.00714931
4019.63456543,0.00717699
4021.56337280,0.00719555
4023.49218018,0.00719000
4025.42098755,0.00713192
4027.34979492,0.00702556
4029.27860229,0.00707390
4031.20740967,0.00713653
4033.13621704,0.00703140
4035.06502441,0.00704034
4036.99383179,0.00708512
4038.92263916,0.00701332
4040.85144653,0.00703882
4042.78025391,0.00701797
4044.70906128,0.00700898
4046.63786865,0.00696279
4048.56667603,0.00696641
4050.49548340,0.00701909
4052.42429077,0.00691617
4054.35309814,0.00700138
4056.28190552,0.00697340
4058.21071289,0.00683384
4060.13952026,0.00685357
4062.06832764,0.00686092
4063.99713501,0.00685934
4065.92594238,0.00684544
4067.85474976,0.00685525
4069.78355713,0.00682137
4071.71236450,0.00682858
4073.64117187,0.00677042
4075.56997925,0.00673846
4077.49878662,0.00680318
4079.42759399,0.00672486
4081.35640137,0.00666557
4083.28520874,0.00666942
4085.21401611,0.00675991
4087.14282349,0.00675554
4089.07163086,0.00662525
4091.00043823,0.00661396
4092.92924561,0.00668619
4094.85805298,0.00662344
4096.78686035,0.00655675
4098.71566772,0.00665512
4100.64447510,0.00660513
4102.57328247,0.00664461
4104.50208984,0.00664427
4106.43089722,0.00654757
4108.35970459,0.00655273
4110.28851196,0.00643488
4112.21731934,0.00651916
4114.14612671,0.00655998
4116.07493408,0.00649924
4118.00374145,0.00655081
4119.93254883,0.00653255
4121.86135620,0.00650756
4123.79016357,0.00645406
4125.71897095,0.00644041
4127.64777832,0.00644323
4129.57658569,0.00645929
4131.50539307,0.00642182
4133.43420044,0.00638452
4135.36300781,0.00631860
4137.29181519,0.00623147
4139.22062256,0.00635612
4141.14942993,0.00638128
4143.07823730,0.00630443
4145.00704468,0.00626298
4146.93585205,0.00622918
4148.86465942,0.00622705
4150.79346680,0.00626162
4152.72227417,0.00626734
4154.65108154,0.00621878
4156.57988892,0.00625076
4158.50869629,0.00623153
4160.43750366,0.00622232
4162.36631103,0.00618178
4164.29511841,0.00616047
4166.22392578,0.00613639
4168.15273315,0.00610214
4170.08154053,0.00616080
4172.01034790,0.00600296
4173.93915527,0.00609123
4175.86796265,0.00619908
4177.79677002,0.00602924
4179.72557739,0.00604904
4181.65438477,0.00603589
4183.58319214,0.00606052
4185.51199951,0.00608201
4187.44080688,0.00600218
4189.36961426,0.00593422
4191.29842163,0.00596979
4193.22722900,0.00601546
4195.15603638,0.00593971
4197.08484375,0.00592469
4199.01365112,0.00593484
4200.94245850,0.00599269
4202.87126587,0.00595226
4204.80007324,0.00590505
4206.72888062,0.00591679
4208.65768799,0.00583912
4210.58649536,0.00582413
4212.51530273,0.00586502
4214.44411011,0.00589525
4216.37291748,0.00576422
4218.30172485,0.00574661
4220.23053223,0.00583515
4222.15933960,0.00582924
4224.08814697,0.00581323
4226.01695435,0.00572892
4227.94576172,0.00575970
4229.87456909,0.00575559
4231.80337646,0.00575738
4233.73218384,0.00581501
4235.66099121,0.00578525
4237.58979858,0.00575867
4239.51860596,0.00572406
4241.44741333,0.00565554
4243.37622070,0.00562377
4245.30502808,0.00568662
4247.23383545,0.00559138
4249.16264282,0.00565038
4251.09145020,0.00568507
4253.02025757,0.00558241
4254.94906494,0.00569564
4256.87787231,0.00550285
4258.80667969,0.00550531
4260.73548706,0.00561602
4262.66429443,0.00546755
4264.59310181,0.00553370
4266.52190918,0.00552615
4268.45071655,0.00548126
4270.37952393,0.00548770
4272.30833130,0.00552555
4274.23713867,0.00542827
4276.16594604,0.00535565
4278.09475342,0.00545679
4280.02356079,0.00541475
4281.95236816,0.00545204
4283.88117554,0.00543790
4285.80998291,0.00542744
4287.73879028,0.00540656
4289.66759766,0.00533505
4291.59640503,0.00545377
4293.52521240,0.00540940
4295.45401978,0.00530482
4297.38282715,0.00526311
4299.31163452,0.00530968
4301.24044189,0.00540121
4303.16924927,0.00534949
4305.09805664,0.00534592
4307.02686401,0.00525097
4308.95567139,0.00519602
4310.88447876,0.00528603
4312.81328613,0.00522618
4314.74209351,0.00522075
4316.67090088,0.00526906
4318.59970825,0.00523001
4320.52851562,0.00517136
4322.45732300,0.00509900
4324.38613037,0.00513881
4326.31493774,0.00514245
4328.24374512,0.00509477
4330.17255249,0.00513310
4332.10135986,0.00512604
4334.03016724,0.00512731
4335.95897461,0.00508465
4337.88778198,0.00502331
4339.81658936,0.00505211
4341.74539673,0.00506372
4343.67420410,0.00499906
4345.60301147,0.00505582
4347.53181885,0.00516424
4349.46062622,0.00503107
4351.38943359,0.00503539
4353.31824097,0.00497735
4355.24704834,0.00482224
4357.17585571,0.00498900
4359.10466309,0.00502138
4361.03347046,0.00501081
4362.96227783,0.00500740
4364.89108520,0.00499192
4366.81989258,0.00503550
4368.74869995,0.00488462
4370.67750732,0.00483520
4372.60631470,0.00489922
4374.53512207,0.00492941
4376.46392944,0.00489280
4378.39273682,0.00486533
4380.32154419,0.00487425
4382.25035156,0.00478502
4384.17915894,0.00482328
4386.10796631,0.00485276
4388.03677368,0.00480417
4389.96558105,0.00477581
4391.89438843,0.00471192
4393.82319580,0.00475681
4395.75200317,0.00478847
4397.68081055,0.00473940
4399.60961792,0.00474913
4401.53842529,0.00476778
4403.46723267,0.00471384
4405.39604004,0.00474044
4407.32484741,0.00484500
4409.25365478,0.00476090
4411.18246216,0.00469831
4413.11126953,0.00468292
4415.04007690,0.00457638
4416.96888428,0.00464439
4418.89769165,0.00460289
4420.82649902,0.00452908
4422.75530640,0.00464574
4424.68411377,0.00461736
4426.61292114,0.00460444
4428.54172852,0.00449673
4430.47053589,0.00450866
4432.39934326,0.00465110
4434.32815063,0.00448270
4436.25695801,0.00452607
4438.18576538,0.00459207
4440.11457275,0.00452890
4442.04338013,0.00456882
4443.97218750,0.00452512
4445.90099487,0.00451851
4447.82980225,0.00448558
4449.75860962,0.00445596
4451.68741699,0.00445884
4453.61622437,0.00446274
4455.54503174,0.00445232
4457.47383911,0.00445481
4459.40264648,0.00446053
4461.33145386,0.00438079
4463.26026123,0.00441939
4465.18906860,0.00442528
4467.11787598,0.00438267
4469.04668335,0.00438793
4470.97549072,0.00440687
4472.90429810,0.00436880
4474.83310547,0.00427990
4476.76191284,0.00437976
4478.69072021,0.00435489
4480.61952759,0.00427033
4482.54833496,0.00425750
4484.47714233,0.00426366
4486.40594971,0.00433427
4488.33475708,0.00424676
4490.26356445,0.00422534
4492.19237183,0.00422277
4494.12117920,0.00425391
4496.04998657,0.00429251
4497.97879395,0.00418199
4499.90760132,0.00421278
4501.83640869,0.00421537
4503.76521606,0.00418277
4505.69402344,0.00420963
4507.62283081,0.00418430
4509.55163818,0.00415988
4511.48044556,0.00416892
4513.40925293,0.00415434
4515.33806030,0.00410721
4517.26686768,0.00412028
4519.19567505,0.00409693
4521.12448242,0.00410579
4523.05328979,0.00413315
4524.98209717,0.00406260
4526.91090454,0.00401721
4528.83971191,0.00405587
4530.76851929,0.00411435
4532.69732666,0.00409274
4534.62613403,0.00406063
4536.55494141,0.00404768
4538.48374878,0.00405757
4540.41255615,0.00402634
4542.34136353,0.00396776
4544.27017090,0.00396570
4546.19897827,0.00395572
4548.12778564,0.00396969
4550.05659302,0.00392941
4551.98540039,0.00389783
4553.91420776,0.00394209
4555.84301514,0.00402868
4557.77182251,0.00401895
4559.70062988,0.00390586
4561.62943726,0.00394858
4563.55824463,0.00388923
4565.48705200,0.00383681
4567.41585937,0.00392442
4569.34466675,0.00389264
4571.27347412,0.00389177
4573.20228149,0.00386837
4575.13108887,0.00381100
4577.05989624,0.00384006
4578.98870361,0.00387275
4580.91751099,0.00378424
4582.84631836,0.00372276
4584.77512573,0.00381038
4586.70393311,0.00382331
4588.63274048,0.00378305
4590.56154785,0.00371488
4592.49035522,0.00371542
4594.41916260,0.00380095
4596.34796997,0.00374632
4598.27677734,0.00370921
4600.20558472,0.00375960
4602.13439209,0.00377438
4604.06319946,0.00373686
4605.99200684,0.00369023
4607.92081421,0.00371018
4609.84962158,0.00372625
4611.77842895,0.00368290
4613.70723633,0.00364198
4615.63604370,0.00365988
4617.56485107,0.00367118
4619.49365845,0.00362052
4621.42246582,0.00361408
4623.35127319,0.00358566
4625.28008057,0.00354915
4627.20888794,0.00360164
4629.13769531,0.00355970
4631.06650269,0.00352134
4632.99531006,0.00359111
4634.92411743,0.00360732
4636.85292480,0.00353273
4638.78173218,0.00345408
4640.71053955,0.00345655
4642.63934692,0.00346456
4644.56815430,0.00349204
4646.49696167,0.00349755
4648.42576904,0.00349169
4650.35457642,0.00350158
4652.28338379,0.00344901
4654.21219116,0.00347607
4656.14099853,0.00349465
4658.06980591,0.00348856
4659.99861328,0.00350318
4661.92742065,0.00347844
4663.85622803,0.00346367
4665.78503540,0.00343416
4667.71384277,0.00344404
4669.64265015,0.00345204
4671.57145752,0.00342566
4673.50026489,0.00335529
4675.42907227,0.00338362
4677.35787964,0.00342350
4679.28668701,0.00334843
4681.21549438,0.00339573
4683.14430176,0.00331320
4685.07310913,0.00327666
4687.00191650,0.00334212
4688.93072388,0.00328757
4690.85953125,0.00332176
4692.78833862,0.00327273
4694.71714600,0.00332115
4696.64595337,0.00332248
4698.57476074,0.00322962
4700.50356812,0.00336788
4702.43237549,0.00333202
4704.36118286,0.00321986
4706.28999023,0.00325038
4708.21879761,0.00327629
4710.14760498,0.00324980
4712.07641235,0.00324440
4714.00521973,0.00323671
4715.93402710,0.00319214
4717.86283447,0.00323253
4719.79164185,0.00318742
4721.72044922,0.00316211
4723.64925659,0.00315137
4725.57806396,0.00311311
4727.50687134,0.00318422
4729.43567871,0.00315006
4731.36448608,0.00317214
4733.29329346,0.00322505
4735.22210083,0.00316681
4737.15090820,0.00311938
4739.07971558,0.00311086
4741.00852295,0.00313533
4742.93733032,0.00310030
4744.86613770,0.00311433
4746.79494507,0.00306857
4748.72375244,0.00305570
4750.65255981,0.00312079
4752.58136719,0.00304077
4754.51017456,0.00308383
4756.43898193,0.00305868
4758.36778931,0.00300589
4760.29659668,0.00308125
4762.22540405,0.00304098
4764.15421143,0.00308595
4766.08301880,0.00302012
4768.01182617,0.00293215
4769.94063354,0.00303248
4771.86944092,0.00296335
4773.79824829,0.00294324
4775.72705566,0.00307189
4777.65586304,0.00303749
4779.58467041,0.00293896
4781.51347778,0.00295832
4783.44228516,0.00295066
4785.37109253,0.00293208
4787.29989990,0.00296163
4789.22870728,0.00293830
4791.15751465,0.00296814
4793.08632202,0.00294961
4795.01512939,0.00291041
4796.94393677,0.00293775
4798.87274414,0.00285689
4800.80155151,0.00284229
4802.73035889,0.00289527
4804.65916626,0.00282874
4806.58797363,0.00279669
4808.51678101,0.00282647
4810.44558838,0.00281294
4812.37439575,0.00285093
4814.30320312,0.00284215
4816.23201050,0.00276545
4818.16081787,0.00282874
4820.08962524,0.00287681
4822.01843262,0.00288036
4823.94723999,0.00292802
4825.87604736,0.00290294
4827.80485474,0.00280423
4829.73366211,0.00278911
4831.66246948,0.00280837
4833.59127686,0.00274941
4835.52008423,0.00278777
4837.44889160,0.00278845
4839.37769897,0.00276703
4841.30650635,0.00278760
4843.23531372,0.00275782
4845.16412109,0.00281258
4847.09292847,0.00268410
4849.02173584,0.00261564
4850.95054321,0.00272227
4852.87935059,0.00265462
4854.80815796,0.00268170
4856.73696533,0.00268823
4858.66577270,0.00265031
4860.59458008,0.00270363
4862.52338745,0.00270400
4864.45219482,0.00267322
4866.38100220,0.00264273
4868.30980957,0.00268991
4870.23861694,0.00268182
4872.16742432,0.00266979
4874.09623169,0.00264896
4876.02503906,0.00250524
4877.95384644,0.00257966
4879.88265381,0.00263790
4881.81146118,0.00256939
4883.74026855,0.00261807
4885.66907593,0.00252110
4887.59788330,0.00253136
4889.52669067,0.00261342
4891.45549805,0.00251162
4893.38430542,0.00258296
4895.31311279,0.00259328
4897.24192017,0.00252401
4899.17072754,0.00253864
4901.09953491,0.00250223
4903.02834228,0.00257433
4904.95714966,0.00257619
4906.88595703,0.00251904
4908.81476440,0.00254291
4910.74357178,0.00253292
4912.67237915,0.00254990
4914.60118652,0.00253984
4916.52999390,0.00249725
4918.45880127,0.00249839
4920.38760864,0.00249420
4922.31641602,0.00246177
4924.24522339,0.00246971
4926.17403076,0.00245007
4928.10283813,0.00244214
4930.03164551,0.00246530
4931.96045288,0.00240191
4933.88926025,0.00244240
4935.81806763,0.00243916
4937.74687500,0.00238579
4939.67568237,0.00245055
4941.60448975,0.00241250
4943.53329712,0.00243135
4945.46210449,0.00244400
4947.39091187,0.00232503
4949.31971924,0.00234194
4951.24852661,0.00240246
4953.17733398,0.00233047
4955.10614136,0.00228819
4957.03494873,0.00240964
4958.96375610,0.00241255
4960.89256348,0.00228637
4962.82137085,0.00235645
4964.75017822,0.00240048
4966.67898560,0.00229832
4968.60779297,0.00227691
4970.53660034,0.00227672
4972.46540771,0.00231316
4974.39421509,0.00235621
4976.32302246,0.00234368
4978.25182983,0.00232668
4980.18063721,0.00225847
4982.10944458,0.00230695
4984.03825195,0.00230681
4985.96705933,0.00218695
4987.89586670,0.00226103
4989.82467407,0.00231342
4991.75348145,0.00227243
4993.68228882,0.00225677
4995.61109619,0.00224784
4997.53990356,0.00225955
4999.46871094,0.00225022
5001.39751831,0.00222604
5003.32632568,0.00224736
5005.25513306,0.00230756
5007.18394043,0.00226169
5009.11274780,0.00223010
5011.04155518,0.00222010
5012.97036255,0.00216043
5014.89916992,0.00224962
5016.82797729,0.00227064
5018.75678467,0.00216955
5020.68559204,0.00215846
5022.61439941,0.00215176
5024.54320679,0.00217239
5026.47201416,0.00217115
5028.40082153,0.00214620
5030.32962891,0.00221483
5032.25843628,0.00213795
5034.18724365,0.00208808
5036.11605103,0.00219998
5038.04485840,0.00211453
5039.97366577,0.00209131
5041.90247314,0.00211528
5043.83128052,0.00205673
5045.76008789,0.00206165
5047.68889526,0.00202325
5049.61770264,0.00208696
5051.54651001,0.00204027
5053.47531738,0.00199086
5055.40412476,0.00209649
5057.33293213,0.00200935
5059.26173950,0.00202691
5061.19054687,0.00209897
5063.11935425,0.00206449
5065.04816162,0.00209998
5066.97696899,0.00204649
5068.90577637,0.00195536
5070.83458374,0.00201961
5072.76339111,0.00209250
5074.69219849,0.00203004
5076.62100586,0.00199451
5078.54981323,0.00202383
5080.47862061,0.00204895
5082.40742798,0.00199909
5084.33623535,0.00197303
5086.26504272,0.00199608
5088.19385010,0.00191649
5090.12265747,0.00198121
5092.05146484,0.00205036
5093.98027222,0.00200530
5095.90907959,0.00202087
5097.83788696,0.00199679
5099.76669434,0.00199560
5101.69550171,0.00193982
5103.62430908,0.00190886
5105.55311645,0.00192934
5107.48192383,0.00188709
5109.41073120,0.00190004
5111.33953857,0.00190335
5113.26834595,0.00196221
5115.19715332,0.00196571
5117.12596069,0.00189631
5119.05476807,0.00193736
5120.98357544,0.00192237
5122.91238281,0.00191536
5124.84119019,0.00192663
5126.76999756,0.00189492
5128.69880493,0.00191424
5130.62761230,0.00191106
5132.55641968,0.00188434
5134.48522705,0.00187080
5136.41403442,0.00186421
5138.34284180,0.00186157
5140.27164917,0.00184541
5142.20045654,0.00181682
5144.12926392,0.00183855
5146.05807129,0.00189058
5147.98687866,0.00183260
5149.91568603,0.00179423
5151.84449341,0.00182454
5153.77330078,0.00176935
5155.70210815,0.00175378
5157.63091553,0.00177045
5159.55972290,0.00172203
5161.48853027,0.00176249
5163.41733765,0.00180913
5165.34614502,0.00178364
5167.27495239,0.00180245
5169.20375977,0.00176622
5171.13256714,0.00175932
5173.06137451,0.00178627
5174.99018188,0.00170922
5176.91898926,0.00171515
5178.84779663,0.00169226
5180.77660400,0.00169213
5182.70541138,0.00180889
5184.63421875,0.00170365
5186.56302612,0.00167704
5188.49183350,0.00179952
5190.42064087,0.00169317
5192.34944824,0.00166408
5194.27825562,0.00169839
5196.20706299,0.00163210
5198.13587036,0.00170992
5200.06467773,0.00169712
5201.99348511,0.00162434
5203.92229248,0.00168392
5205.85109985,0.00163583
5207.77990723,0.00164247
5209.70871460,0.00166639
5211.63752197,0.00162564
5213.56632935,0.00166730
5215.49513672,0.00167009
5217.42394409,0.00166083
5219.35275146,0.00158009
5221.28155884,0.00157593
5223.21036621,0.00169136
5225.13917358,0.00165728
5227.06798096,0.00164765
5228.99678833,0.00163053
5230.92559570,0.00155410
5232.85440308,0.00159387
5234.78321045,0.00162047
5236.71201782,0.00159650
5238.64082520,0.00160708
5240.56963257,0.00157704
5242.49843994,0.00156568
5244.42724731,0.00157216
5246.35605469,0.00154554
5248.28486206,0.00156242
5250.21366943,0.00154209
5252.14247681,0.00155282
5254.07128418,0.00152909
5256.00009155,0.00154267
5257.92889893,0.00162881
5259.85770630,0.00152214
5261.78651367,0.00153671
5263.71532104,0.00153509
5265.64412842,0.00150265
5267.57293579,0.00160633
5269.50174316,0.00154864
5271.43055054,0.00155132
5273.35935791,0.00152984
5275.28816528,0.00155930
5277.21697266,0.00159494
5279.14578003,0.00139883
5281.07458740,0.00145994
5283.00339478,0.00157535
5284.93220215,0.00149256
5286.86100952,0.00152367
5288.78981689,0.00151548
5290.71862427,0.00143622
5292.64743164,0.00158253
5294.57623901,0.00154712
5296.50504639,0.00137138
5298.43385376,0.00150861
5300.36266113,0.00149567
5302.29146851,0.00150293
5304.22027588,0.00159108
5306.14908325,0.00150269
5308.07789062,0.00148197
5310.00669800,0.00139367
5311.93550537,0.00137752
5313.86431274,0.00145268
5315.79312012,0.00145958
5317.72192749,0.00145425
5319.65073486,0.00141489
5321.57954224,0.00136021
5323.50834961,0.00135348
5325.43715698,0.00143347
5327.36596436,0.00137493
5329.29477173,0.00134642
5331.22357910,0.00137994
5333.15238647,0.00128504
5335.08119385,0.00135370
5337.01000122,0.00137654
5338.93880859,0.00129747
5340.86761597,0.00145729
5342.79642334,0.00144710
5344.72523071,0.00120834
5346.65403809,0.00127642
5348.58284546,0.00139648
5350.51165283,0.00138285
5352.44046020,0.00134244
5354.36926758,0.00125199
5356.29807495,0.00132436
5358.22688232,0.00136615
5360.15568970,0.00132800
5362.08449707,0.00131541
5364.01330444,0.00128298
5365.94211182,0.00133901
5367.87091919,0.00137186
5369.79972656,0.00133039
5371.72853394,0.00128890
5373.65734131,0.00134315
5375.58614868,0.00131219
5377.51495605,0.00124964
5379.44376343,0.00133001
5381.37257080,0.00129631
5383.30137817,0.00126310
5385.23018555,0.00126365
5387.15899292,0.00128535
5389.08780029,0.00131570
5391.01660767,0.00129021
5392.94541504,0.00127764
5394.87422241,0.00125439
5396.80302978,0.00133924
5398.73183716,0.00131895
5400.66064453,0.00125977
5402.58945190,0.00126576
5404.51825928,0.00124075
5406.44706665,0.00133408
5408.37587402,0.00127691
5410.30468140,0.00125839
5412.23348877,0.00128987
5414.16229614,0.00117548
5416.09110352,0.00125913
5418.01991089,0.00125710
5419.94871826,0.00115991
5421.87752563,0.00120885
5423.80633301,0.00123293
5425.73514038,0.00130339
5427.66394775,0.00126795
5429.59275513,0.00114911
5431.52156250,0.00122775
5433.45036987,0.00123601
5435.37917725,0.00117596
5437.30798462,0.00121253
5439.23679199,0.00118358
5441.16559936,0.00119298
5443.09440674,0.00124369
5445.02321411,0.00121280
5446.95202148,0.00117985
5448.88082886,0.00118552
5450.80963623,0.00116902
5452.73844360,0.00117744
5454.66725098,0.00120492
5456.59605835,0.00116039
5458.52486572,0.00117755
5460.45367310,0.00118511
5462.38248047,0.00117344
5464.31128784,0.00116294
5466.24009521,0.00112961
5468.16890259,0.00117444
5470.09770996,0.00110070
5472.02651733,0.00110382
5473.95532471,0.00114940
5475.88413208,0.00109494
5477.81293945,0.00116845
5479.74174683,0.00116681
5481.67055420,0.00115653
5483.59936157,0.00113247
5485.52816895,0.00113697
5487.45697632,0.00118733
5489.38578369,0.00111013
5491.31459106,0.00112920
5493.24339844,0.00112210
5495.17220581,0.00117567
5497.10101318,0.00118539
5499.02982056,0.00106985
5500.95862793,0.00115667
5502.88743530,0.00113115
5504.81624268,0.00109471
5506.74505005,0.00109702
5508.67385742,0.00105557
5510.60266479,0.00113420
5512.53147217,0.00110384
5514.46027954,0.00108711
5516.38908691,0.00113207
5518.31789429,0.00111537
5520.24670166,0.00104496
5522.17550903,0.00100828
5524.10431641,0.00107921
5526.03312378,0.00106646
5527.96193115,0.00111451
5529.89073853,0.00114505
5531.81954590,0.00101222
5533.74835327,0.00103945
5535.67716064,0.00107828
5537.60596802,0.00106646
5539.53477539,0.00113613
5541.46358276,0.00102134
5543.39239014,0.00097352
5545.32119751,0.00111101
5547.25000488,0.00103055
5549.17881226,0.00102089
5551.10761963,0.00108962
5553.03642700,0.00102173
5554.96523437,0.00105616
5556.89404175,0.00105415
5558.82284912,0.00101515
5560.75165649,0.00099444
5562.68046387,0.00097416
5564.60927124,0.00105618
5566.53807861,0.00108121
5568.46688599,0.00099564
5570.39569336,0.00093275
5572.32450073,0.00098323
5574.25330811,0.00102129
5576.18211548,0.00102909
5578.11092285,0.00103063
5580.03973022,0.00097330
5581.96853760,0.00101031
5583.89734497,0.00102179
5585.82615234,0.00092455
5587.75495972,0.00092085
5589.68376709,0.00099157
5591.61257446,0.00094627
5593.54138184,0.00093261
5595.47018921,0.00097409
5597.39899658,0.00086873
5599.32780395,0.00091036
5601.25661133,0.00095576
5603.18541870,0.00090943
5605.11422607,0.00098546
5607.04303345,0.00093181
5608.97184082,0.00091209
5610.90064819,0.00097203
5612.82945557,0.00095386
5614.75826294,0.00093575
5616.68707031,0.00092357
5618.61587769,0.00095536
5620.54468506,0.00094117
5622.47349243,0.00094418
5624.40229980,0.00100397
5626.33110718,0.00095790
5628.25991455,0.00087577
5630.18872192,0.00093044
5632.11752930,0.00096851
5634.04633667,0.00087308
5635.97514404,0.00086571
5637.90395142,0.00087474
5639.83275879,0.00084409
5641.76156616,0.00086872
5643.69037353,0.00087666
5645.61918091,0.00086535
5647.54798828,0.00086855
5649.47679565,0.00093504
5651.40560303,0.00094401
5653.33441040,0.00086916
5655.26321777,0.00088786
5657.19202515,0.00092023
5659.12083252,0.00089916
5661.04963989,0.00090167
5662.97844727,0.00091214
5664.90725464,0.00089857
5666.83606201,0.00085770
5668.76486938,0.00083862
5670.69367676,0.00087259
5672.62248413,0.00086864
5674.55129150,0.00085821
5676.48009888,0.00087373
5678.40890625,0.00086041
5680.33771362,0.00085151
5682.26652100,0.00083058
5684.19532837,0.00083052
5686.12413574,0.00083927
5688.05294311,0.00083058
5689.98175049,0.00086582
5691.91055786,0.00086049
5693.83936523,0.00082491
5695.76817261,0.00085619
5697.69697998,0.00086665
5699.62578735,0.00082935
5701.55459473,0.00082782
5703.48340210,0.00079628
5705.41220947,0.00073403
5707.34101685,0.00078314
5709.26982422,0.00083763
5711.19863159,0.00078448
5713.12743896,0.00079608
5715.05624634,0.00083257
5716.98505371,0.00080927
5718.91386108,0.00083971
5720.84266846,0.00082696
5722.77147583,0.00081250
5724.70028320,0.00080898
5726.62909058,0.00075006
5728.55789795,0.00077816
5730.48670532,0.00076973
5732.41551270,0.00073350
5734.34432007,0.00078361
5736.27312744,0.00081578
5738.20193481,0.00079681
5740.13074219,0.00079780
5742.05954956,0.00079785
5743.98835693,0.00070503
5745.91716431,0.00072140
5747.84597168,0.00079744
5749.77477905,0.00076645
5751.70358643,0.00074131
5753.63239380,0.00076515
5755.56120117,0.00081232
5757.49000854,0.00075496
5759.41881592,0.00074138
5761.34762329,0.00076739
5763.27643066,0.00071689
5765.20523804,0.00074398
5767.13404541,0.00075979
5769.06285278,0.00078879
5770.99166016,0.00080726
5772.92046753,0.00073963
5774.84927490,0.00071784
5776.77808228,0.00072191
5778.70688965,0.00070358
5780.63569702,0.00069576
5782.56450439,0.00068176
5784.49331177,0.00067231
5786.42211914,0.00073279
5788.35092651,0.00073384
5790.27973389,0.00073431
5792.20854126,0.00076042
5794.13734863,0.00067364
5796.06615601,0.00070169
5797.99496338,0.00073721
5799.92377075,0.00067307
5801.85257812,0.00072497
5803.78138550,0.00074047
5805.71019287,0.00068678
5807.63900024,0.00072571
5809.56780762,0.00073394
5811.49661499,0.00067690
5813.42542236,0.00071436
5815.35422974,0.00071240
5817.28303711,0.00061411
5819.21184448,0.00061017
5821.14065186,0.00063854
5823.06945923,0.00068466
5824.99826660,0.00075033
5826.92707397,0.00068140
5828.85588135,0.00065463
5830.78468872,0.00069025
5832.71349609,0.00064275
5834.64230347,0.00070291
5836.57111084,0.00069219
5838.49991821,0.00063440
5840.42872559,0.00073393
5842.35753296,0.00070031
5844.28634033,0.00068761
5846.21514770,0.00068375
5848.14395508,0.00057928
5850.07276245,0.00066873
5852.00156982,0.00069105
5853.93037720,0.00064479
5855.85918457,0.00073019
5857.78799194,0.00065542
5859.71679932,0.00056970
5861.64560669,0.00064076
5863.57441406,0.00065574
5865.50322144,0.00062982
5867.43202881,0.00064355
5869.36083618,0.00066582
5871.28964355,0.00064786
5873.21845093,0.00063861
5875.14725830,0.00062699
5877.07606567,0.00063616
5879.00487305,0.00064847
5880.93368042,0.00057972
5882.86248779,0.00062583
5884.79129517,0.00063070
5886.72010254,0.00061937
5888.64890991,0.00066763
5890.57771728,0.00057792
5892.50652466,0.00060586
5894.43533203,0.00062539
5896.36413940,0.00064644
5898.29294678,0.00063112
5900.22175415,0.00051607
5902.15056152,0.00058328
5904.07936890,0.00060038
5906.00817627,0.00063717
5907.93698364,0.00060784
5909.86579102,0.00059984
5911.79459839,0.00065257
5913.72340576,0.00052983
5915.65221313,0.00059114
5917.58102051,0.00058417
5919.50982788,0.00060504
5921.43863525,0.00063739
5923.36744263,0.00047591
5925.29625000,0.00054889
5927.22505737,0.00057125
5929.15386475,0.00057521
5931.08267212,0.00061815
5933.01147949,0.00051644
5934.94028686,0.00052198
5936.86909424,0.00059981
5938.79790161,0.00059336
5940.72670898,0.00056074
5942.65551636,0.00058205
5944.58432373,0.00057284
5946.51313110,0.00057896
5948.44193848,0.00059723
5950.37074585,0.00059787
5952.29955322,0.00052159
5954.22836060,0.00050118
5956.15716797,0.00062549
5958.08597534,0.00052748
5960.01478271,0.00053453
5961.94359009,0.00064188
5963.87239746,0.00057053
5965.80120483,0.00054182
5967.73001221,0.00047384
5969.65881958,0.00050448
5971.58762695,0.00050757
5973.51643433,0.00048552
5975.44524170,0.00057569
5977.37404907,0.00053869
5979.30285645,0.00054285
5981.23166382,0.00055394
5983.16047119,0.00055013
5985.08927856,0.00055807
5987.01808594,0.00046496
5988.94689331,0.00049642
5990.87570068,0.00053768
5992.80450806,0.00050950
5994.73331543,0.00055416
5996.66212280,0.00050660
5998.59093018,0.00045247
6000.51973755,0.00047619
