399.26312622,0.00018201
401.19193359,-0.00008933
403.12074097,0.00041063
405.04954834,-0.00011852
406.97835571,-0.00032660
408.90716309,0.00027363
410.83597046,0.00052642
412.76477783,0.00028874
414.69358521,0.00010329
416.62239258,-0.00012049
418.55119995,0.00007897
420.48000732,0.00022273
422.40881470,-0.00017391
424.33762207,0.00033083
426.26642944,0.00020312
428.19523682,-0.00023643
430.12404419,0.00041215
432.05285156,0.00053088
433.98165894,0.00048394
435.91046631,0.00004960
437.83927368,0.00004204
439.76808105,0.00036055
441.69688843,-0.00008239
443.62569580,0.00023212
445.55450317,0.00039130
447.48331055,0.00006616
449.41211792,0.00003640
451.34092529,0.00033602
453.26973267,0.00048896
455.19854004,0.00011568
457.12734741,-0.00019151
459.05615479,0.00030688
460.98496216,0.00007218
462.91376953,0.00022990
464.84257690,0.00016591
466.77138428,-0.00014158
468.70019165,0.00056355
470.62899902,0.00031910
472.55780640,0.00023564
474.48661377,0.00013977
476.41542114,-0.00012630
478.34422852,0.00012424
480.27303589,-0.00008780
482.20184326,0.00030619
484.13065063,0.00028121
486.05945801,-0.00008604
487.98826538,0.00024097
489.91707275,0.00007963
491.84588013,0.00025570
493.77468750,0.00028416
495.70349487,0.00019383
497.63230225,0.00037725
499.56110962,-0.00003641
501.48991699,-0.00008212
503.41872437,0.00034625
505.34753174,0.00043414
507.27633911,0.00002528
509.20514648,0.00022843
511.13395386,0.00038678
513.06276123,0.00009372
514.99156860,0.00023818
516.92037598,0.00002307
518.84918335,-0.00028675
520.77799072,-0.00025061
522.70679810,0.00031470
524.63560547,0.00020529
526.56441284,-0.00007780
528.49322021,0.00030454
530.42202759,-0.00009027
532.35083496,0.00023435
534.27964233,0.00028870
536.20844971,-0.00004479
538.13725708,0.00004902
540.06606445,-0.00018764
541.99487183,0.00029189
543.92367920,0.00006713
545.85248657,-0.00005730
547.78129395,0.00027835
549.71010132,0.00020241
551.63890869,0.00023418
553.56771606,0.00011670
555.49652344,0.00051784
557.42533081,0.00024320
559.35413818,-0.00006225
561.28294556,0.00019007
563.21175293,0.00011781
565.14056030,0.00010454
567.06936768,-0.00012896
568.99817505,-0.00004994
570.92698242,-0.00016666
572.85578979,-0.00011899
574.78459717,0.00030500
576.71340454,0.00007851
578.64221191,0.00030113
580.57101929,0.00039317
582.49982666,0.00019749
584.42863403,0.00053658
586.35744141,0.00022202
588.28624878,0.00003985
590.21505615,0.00020624
592.14386353,-0.00005300
594.07267090,0.00008456
596.00147827,0.00029636
597.93028564,0.00047573
599.85909302,0.00027295
601.78790039,0.00002801
603.71670776,0.00028979
605.64551514,0.00028093
607.57432251,0.00039729
609.50312988,0.00039261
611.43193726,0.00028142
613.36074463,0.00014587
615.28955200,0.00025459
617.21835938,0.00038815
619.14716675,0.00008650
621.07597412,0.00034874
623.00478149,0.00017106
624.93358887,-0.00006421
626.86239624,-0.00004986
628.79120361,-0.00012418
630.72001099,0.00033753
632.64881836,0.00029199
634.57762573,0.00021086
636.50643311,0.00009748
638.43524048,-0.00016343
640.36404785,-0.00007833
642.29285522,0.00042857
644.22166260,0.00039009
646.15046997,0.00025350
648.07927734,0.00028665
650.00808472,-0.00005989
651.93689209,0.00027777
653.86569946,0.00039102
655.79450684,0.00023880
657.72331421,0.00049928
659.65212158,0.00060605
661.58092896,0.00071836
663.50973633,0.00031832
665.43854370,0.00025040
667.36735107,0.00048257
669.29615845,0.00049722
671.22496582,0.00045860
673.15377319,0.00028220
675.08258057,0.00045772
677.01138794,0.00003703
678.94019531,0.00000673
680.86900269,0.00064335
682.79781006,0.00054183
684.72661743,0.00061336
686.65542480,0.00070816
688.58423218,0.00045249
690.51303955,0.00049193
692.44184692,0.00051394
694.37065430,0.00031740
696.29946167,0.00058845
698.22826904,0.00055581
700.15707642,0.00033761
702.08588379,0.00083909
704.01469116,0.00072374
705.94349854,0.00046452
707.87230591,0.00064206
709.80111328,0.00043768
711.72992065,0.00032812
713.65872803,0.00061386
715.58753540,0.00046610
717.51634277,-0.00000424
719.44515015,-0.00001764
721.37395752,0.00013507
723.30276489,0.00029635
725.23157227,0.00007790
727.16037964,-0.00017210
729.08918701,-0.00005945
731.01799438,0.00009535
732.94680176,0.00026210
734.87560913,0.00015745
736.80441650,0.00014429
738.73322388,0.00023308
740.66203125,0.00033908
742.59083862,0.00017358
744.51964600,0.00005832
746.44845337,0.00021404
748.37726074,-0.00014589
750.30606812,0.00014000
752.23487549,0.00043705
754.16368286,0.00016178
756.09249023,0.00037363
758.02129761,0.00018368
759.95010498,0.00028718
761.87891235,0.00019387
763.80771973,-0.00018277
765.73652710,0.00026861
767.66533447,0.00031466
769.59414185,0.00026541
771.52294922,0.00025316
773.45175659,0.00007357
775.38056396,0.00016799
777.30937134,0.00010240
779.23817871,-0.00005619
781.16698608,0.00010839
783.09579346,0.00025896
785.02460083,0.00015861
786.95340820,0.00010363
788.88221558,-0.00000487
790.81102295,0.00015136
792.73983032,0.00025967
794.66863770,0.00013286
796.59744507,0.00053151
798.52625244,0.00060979
800.45505981,0.00001325
802.38386719,-0.00006324
804.31267456,0.00023638
806.24148193,0.00016573
808.17028931,0.00021110
810.09909668,0.00034954
812.02790405,0.00023946
813.95671143,0.00016980
815.88551880,-0.00000498
817.81432617,0.00007517
819.74313354,0.00032351
821.67194092,0.00014787
823.60074829,0.00017074
825.52955566,0.00025492
827.45836304,0.00015817
829.38717041,0.00028311
831.31597778,0.00003122
833.24478516,0.00001922
835.17359253,0.00035405
837.10239990,0.00025013
839.03120728,0.00050692
840.96001465,0.00035340
842.88882202,0.00012380
844.81762939,0.00045748
846.74643677,0.00025621
848.67524414,0.00041997
850.60405151,0.00054045
852.53285889,0.00012097
854.46166626,0.00009695
856.39047363,0.00006976
858.31928101,0.00025256
860.24808838,0.00063318
862.17689575,0.00052315
864.10570313,0.00029180
866.03451050,0.00019152
867.96331787,0.00024458
869.89212524,0.00024987
871.82093262,0.00009769
873.74973999,0.00028331
875.67854736,0.00030207
877.60735474,0.00018128
879.53616211,0.00021321
881.46496948,0.00013487
883.39377686,0.00014140
885.32258423,0.00011093
887.25139160,0.00027020
889.18019897,0.00017256
891.10900635,-0.00002001
893.03781372,0.00011537
894.96662109,0.00007604
896.89542847,0.00034709
898.82423584,0.00037259
900.75304321,0.00012536
902.68185059,0.00019124
904.61065796,0.00014059
906.53946533,-0.00000584
908.46827271,0.00000973
910.39708008,0.00020950
912.32588745,0.00009536
914.25469482,0.00020067
916.18350220,0.00035288
918.11230957,0.00013970
920.04111694,0.00030367
921.96992432,0.00038993
923.89873169,0.00021362
925.82753906,0.00025342
927.75634644,0.00043332
929.68515381,0.00039177
931.61396118,0.00036050
933.54276855,0.00035954
935.47157593,0.00028194
937.40038330,0.00030870
939.32919067,0.00039023
941.25799805,0.00038215
943.18680542,0.00035882
945.11561279,0.00068328
947.04442017,0.00039435
948.97322754,0.00027258
950.90203491,0.00054130
952.83084229,0.00024760
954.75964966,0.00058173
956.68845703,0.00043498
958.61726440,0.00021426
960.54607178,0.00068710
962.47487915,0.00053788
964.40368652,0.00028345
966.33249390,0.00031361
968.26130127,0.00060021
970.19010864,0.00056321
972.11891602,0.00056389
974.04772339,0.00055513
975.97653076,0.00034607
977.90533813,0.00049312
979.83414551,0.00042844
981.76295288,0.00064961
983.69176025,0.00069829
985.62056763,0.00062397
987.54937500,0.00088464
989.47818237,0.00072678
991.40698975,0.00085136
993.33579712,0.00108869
995.26460449,0.00101754
997.19341187,0.00109321
999.12221924,0.00115611
1001.05102661,0.00121435
1002.97983398,0.00135789
1004.90864136,0.00135981
1006.83744873,0.00143199
1008.76625610,0.00143333
1010.69506348,0.00157439
1012.62387085,0.00159952
1014.55267822,0.00118683
1016.48148560,0.00174050
1018.41029297,0.00203825
1020.33910034,0.00197096
1022.26790771,0.00230987
1024.19671509,0.00208191
1026.12552246,0.00220307
1028.05432983,0.00217001
1029.98313721,0.00224546
1031.91194458,0.00242334
1033.84075195,0.00224668
1035.76955933,0.00250634
1037.69836670,0.00254835
1039.62717407,0.00273791
1041.55598145,0.00256740
1043.48478882,0.00241245
1045.41359619,0.00261209
1047.34240356,0.00232347
1049.27121094,0.00244308
1051.20001831,0.00254011
1053.12882568,0.00252976
1055.05763306,0.00237737
1056.98644043,0.00212266
1058.91524780,0.00227508
1060.84405518,0.00219100
1062.77286255,0.00204106
1064.70166992,0.00200829
1066.63047729,0.00196740
1068.55928467,0.00193265
1070.48809204,0.00177170
1072.41689941,0.00164172
1074.34570679,0.00181908
1076.27451416,0.00181839
1078.20332153,0.00164531
1080.13212891,0.00168413
1082.06093628,0.00155373
1083.98974365,0.00143669
1085.91855103,0.00132773
1087.84735840,0.00127933
1089.77616577,0.00124209
1091.70497314,0.00127453
1093.63378052,0.00130189
1095.56258789,0.00114595
1097.49139526,0.00128383
1099.42020264,0.00102773
1101.34901001,0.00083899
1103.27781738,0.00112415
1105.20662476,0.00110475
1107.13543213,0.00093363
1109.06423950,0.00085314
1110.99304687,0.00088353
1112.92185425,0.00074376
1114.85066162,0.00091536
1116.77946899,0.00103278
1118.70827637,0.00096158
1120.63708374,0.00111989
1122.56589111,0.00091608
1124.49469849,0.00089227
1126.42350586,0.00106115
1128.35231323,0.00107297
1130.28112061,0.00092609
1132.20992798,0.00094185
1134.13873535,0.00122928
1136.06754272,0.00118082
1137.99635010,0.00115766
1139.92515747,0.00126151
1141.85396484,0.00146357
1143.78277222,0.00150129
1145.71157959,0.00145575
1147.64038696,0.00162231
1149.56919434,0.00173506
1151.49800171,0.00184690
1153.42680908,0.00186513
1155.35561646,0.00205507
1157.28442383,0.00198452
1159.21323120,0.00193477
1161.14203857,0.00215576
1163.07084595,0.00216068
1164.99965332,0.00237163
1166.92846069,0.00232133
1168.85726807,0.00243151
1170.78607544,0.00265040
1172.71488281,0.00255875
1174.64369019,0.00269245
1176.57249756,0.00279461
1178.50130493,0.00297775
1180.43011230,0.00304271
1182.35891968,0.00307063
1184.28772705,0.00312005
1186.21653442,0.00326693
1188.14534180,0.00363322
1190.07414917,0.00364506
1192.00295654,0.00381775
1193.93176392,0.00410005
1195.86057129,0.00422100
1197.78937866,0.00438392
1199.71818604,0.00448913
1201.64699341,0.00478910
1203.57580078,0.00485350
1205.50460815,0.00496898
1207.43341553,0.00549778
1209.36222290,0.00551508
1211.29103027,0.00565363
1213.21983765,0.00592377
1215.14864502,0.00585410
1217.07745239,0.00634381
1219.00625977,0.00631014
1220.93506714,0.00597997
1222.86387451,0.00623350
1224.79268188,0.00636340
1226.72148926,0.00673349
1228.65029663,0.00670931
1230.57910400,0.00664371
1232.50791138,0.00681492
1234.43671875,0.00659382
1236.36552612,0.00662561
1238.29433350,0.00658511
1240.22314087,0.00654650
1242.15194824,0.00653166
1244.08075562,0.00656189
1246.00956299,0.00668976
1247.93837036,0.00651817
1249.86717773,0.00645753
1251.79598511,0.00641948
1253.72479248,0.00643025
1255.65359985,0.00624376
1257.58240723,0.00621395
1259.51121460,0.00645336
1261.44002197,0.00613427
1263.36882935,0.00609793
1265.29763672,0.00605418
1267.22644409,0.00569922
1269.15525146,0.00581769
1271.08405884,0.00588090
1273.01286621,0.00565873
1274.94167358,0.00541895
1276.87048096,0.00536127
1278.79928833,0.00534202
1280.72809570,0.00514054
1282.65690308,0.00508453
1284.58571045,0.00514337
1286.51451782,0.00501257
1288.44332520,0.00485539
1290.37213257,0.00487046
1292.30093994,0.00492579
1294.22974731,0.00487177
1296.15855469,0.00465197
1298.08736206,0.00458299
1300.01616943,0.00475744
1301.94497681,0.00468639
1303.87378418,0.00458741
1305.80259155,0.00481857
1307.73139893,0.00489271
1309.66020630,0.00495714
1311.58901367,0.00527454
1313.51782104,0.00526926
1315.44662842,0.00536794
1317.37543579,0.00569129
1319.30424316,0.00568940
1321.23305054,0.00588526
1323.16185791,0.00607470
1325.09066528,0.00605598
1327.01947266,0.00633626
1328.94828003,0.00663415
1330.87708740,0.00673472
1332.80589478,0.00686314
1334.73470215,0.00698724
1336.66350952,0.00694954
1338.59231689,0.00697926
1340.52112427,0.00704418
1342.44993164,0.00715468
1344.37873901,0.00741320
1346.30754639,0.00748180
1348.23635376,0.00749469
1350.16516113,0.00744546
1352.09396851,0.00742882
1354.02277588,0.00753419
1355.95158325,0.00739224
1357.88039062,0.00726240
1359.80919800,0.00714410
1361.73800537,0.00679315
1363.66681274,0.00673182
1365.59562012,0.00693116
1367.52442749,0.00667326
1369.45323486,0.00676946
1371.38204224,0.00702957
1373.31084961,0.00656779
1375.23965698,0.00666722
1377.16846436,0.00685282
1379.09727173,0.00670066
1381.02607910,0.00668327
1382.95488647,0.00669958
1384.88369385,0.00687803
1386.81250122,0.00631689
1388.74130859,0.00641847
1390.67011597,0.00728198
1392.59892334,0.00675117
1394.52773071,0.00638579
1396.45653809,0.00692745
1398.38534546,0.00679526
1400.31415283,0.00674059
1402.24296021,0.00732816
1404.17176758,0.00710104
1406.10057495,0.00705437
1408.02938232,0.00729151
1409.95818970,0.00700600
1411.88699707,0.00703920
1413.81580444,0.00692614
1415.74461182,0.00706248
1417.67341919,0.00640906
1419.60222656,0.00583643
1421.53103394,0.00667658
1423.45984131,0.00642673
1425.38864868,0.00633421
1427.31745605,0.00640749
1429.24626343,0.00576560
1431.17507080,0.00584029
1433.10387817,0.00597037
1435.03268555,0.00540194
1436.96149292,0.00478046
1438.89030029,0.00519934
1440.81910767,0.00536515
1442.74791504,0.00504521
1444.67672241,0.00508516
1446.60552979,0.00486745
1448.53433716,0.00489665
1450.46314453,0.00494166
1452.39195190,0.00520650
1454.32075928,0.00542994
1456.24956665,0.00462869
1458.17837402,0.00484663
1460.10718140,0.00622899
1462.03598877,0.00647584
1463.96479614,0.00640908
1465.89360352,0.00668534
1467.82241089,0.00752682
1469.75121826,0.00821979
1471.68002563,0.00726635
1473.60883301,0.00756758
1475.53764038,0.00872243
1477.46644775,0.00937931
1479.39525513,0.01027459
1481.32406250,0.01032765
1483.25286987,0.01104053
1485.18167725,0.01128862
1487.11048462,0.01108384
1489.03929199,0.01123691
1490.96809937,0.01124033
1492.89690674,0.01294086
1494.82571411,0.01259098
1496.75452148,0.01155087
1498.68332886,0.01302407
1500.61213623,0.01329479
1502.54094360,0.01429698
1504.46975098,0.01328038
1506.39855835,0.01002441
1508.32736572,0.01237122
1510.25617310,0.01397258
1512.18498047,0.01356181
1514.11378784,0.01466368
1516.04259521,0.01331038
1517.97140259,0.01396079
1519.90020996,0.01337031
1521.82901733,0.01195186
1523.75782471,0.01447893
1525.68663208,0.01405324
1527.61543945,0.01413245
1529.54424683,0.01543104
1531.47305420,0.01489995
1533.40186157,0.01378507
1535.33066895,0.01446424
1537.25947632,0.01547538
1539.18828369,0.01144038
1541.11709106,0.01194110
1543.04589844,0.01401436
1544.97470581,0.01352965
1546.90351318,0.01572207
1548.83232056,0.01476851
1550.76112793,0.01530762
1552.68993530,0.01505973
1554.61874268,0.01395174
1556.54755005,0.01485337
1558.47635742,0.01076807
1560.40516479,0.01170319
1562.33397217,0.01595773
1564.26277954,0.01518011
1566.19158691,0.01575170
1568.12039429,0.01539395
1570.04920166,0.01380595
1571.97800903,0.01601781
1573.90681641,0.01592247
1575.83562378,0.01293903
1577.76443115,0.01450527
1579.69323853,0.01606401
1581.62204590,0.01583884
1583.55085327,0.01613276
1585.47966064,0.01582963
1587.40846802,0.01602994
1589.33727539,0.01576979
1591.26608276,0.01572486
1593.19489014,0.01571077
1595.12369751,0.01566723
1597.05250488,0.01587128
1598.98131226,0.01587779
1600.91011963,0.01600004
1602.83892700,0.01568772
1604.76773437,0.01600838
1606.69654175,0.01573673
1608.62534912,0.01572100
1610.55415649,0.01571390
1612.48296387,0.01587630
1614.41177124,0.01592471
1616.34057861,0.01327766
1618.26938599,0.01444879
1620.19819336,0.01636574
1622.12700073,0.01477831
1624.05580811,0.01499276
1625.98461548,0.01565587
1627.91342285,0.01550082
1629.84223022,0.01553788
1631.77103760,0.01657943
1633.69984497,0.01506528
1635.62865234,0.01284771
1637.55745972,0.01493910
1639.48626709,0.01613618
1641.41507446,0.01578218
1643.34388184,0.01613251
1645.27268921,0.01463285
1647.20149658,0.01317067
1649.13030396,0.01616926
1651.05911133,0.01513389
1652.98791870,0.01016503
1654.91672607,0.01362998
1656.84553345,0.01673718
1658.77434082,0.01601849
1660.70314819,0.01634485
1662.63195557,0.01495210
1664.56076294,0.01584981
1666.48957031,0.01693587
1668.41837769,0.01478603
1670.34718506,0.01452536
1672.27599243,0.01636443
1674.20479980,0.01504237
1676.13360718,0.01461002
1678.06241455,0.01678532
1679.99122192,0.01617814
1681.92002930,0.01584965
1683.84883667,0.01305898
1685.77764404,0.01317987
1687.70645142,0.01739989
1689.63525879,0.01517480
1691.56406616,0.01703835
1693.49287354,0.01709772
1695.42168091,0.01275149
1697.35048828,0.01566177
1699.27929565,0.01373747
1701.20810303,0.01281091
1703.13691040,0.01678581
1705.06571777,0.01531676
1706.99452515,0.01569610
1708.92333252,0.01686735
1710.85213989,0.01627970
1712.78094727,0.01641901
1714.70975464,0.01534648
1716.63856201,0.01382751
1718.56736938,0.01367069
1720.49617676,0.01625449
1722.42498413,0.01662321
1724.35379150,0.01562843
1726.28259888,0.01678428
1728.21140625,0.01554943
1730.14021362,0.01572353
1732.06902100,0.01502237
1733.99782837,0.01195168
1735.92663574,0.01486234
1737.85544312,0.01611927
1739.78425049,0.01442053
1741.71305786,0.01573222
1743.64186523,0.01592535
1745.57067261,0.01590840
1747.49947998,0.01613091
1749.42828735,0.01546003
1751.35709473,0.01499198
1753.28590210,0.01633307
1755.21470947,0.01693900
1757.14351685,0.01577906
1759.07232422,0.01707640
1761.00113159,0.01615664
1762.92993896,0.01574803
1764.85874634,0.01772309
1766.78755371,0.01608039
1768.71636108,0.01630239
1770.64516846,0.01617957
1772.57397583,0.01461995
1774.50278320,0.01633910
1776.43159058,0.01709989
1778.36039795,0.01683566
1780.28920532,0.01682794
1782.21801270,0.01685164
1784.14682007,0.01685049
1786.07562744,0.01657783
1788.00443481,0.01733611
1789.93324219,0.01688740
1791.86204956,0.01538641
1793.79085693,0.01626441
1795.71966431,0.01719957
1797.64847168,0.01694559
1799.57727905,0.01690460
1801.50608643,0.01654803
1803.43489380,0.01714001
1805.36370117,0.01733445
1807.29250854,0.01709885
1809.22131592,0.01737118
1811.15012329,0.01692978
1813.07893066,0.01737482
1815.00773804,0.01732409
1816.93654541,0.01729719
1818.86535278,0.01740085
1820.79416016,0.01728307
1822.72296753,0.01770366
1824.65177490,0.01657765
1826.58058228,0.01720938
1828.50938965,0.01712796
1830.43819702,0.01610170
1832.36700439,0.01758212
1834.29581177,0.01748575
1836.22461914,0.01754686
1838.15342651,0.01740844
1840.08223389,0.01745403
1842.01104126,0.01751398
1843.93984863,0.01568824
1845.86865601,0.01659713
1847.79746338,0.01741149
1849.72627075,0.01720662
1851.65507812,0.01767490
1853.58388550,0.01729042
1855.51269287,0.01750711
1857.44150024,0.01734974
1859.37030762,0.01724968
1861.29911499,0.01745850
1863.22792236,0.01723064
1865.15672974,0.01733297
1867.08553711,0.01682797
1869.01434448,0.01626241
1870.94315186,0.01685821
1872.87195923,0.01747220
1874.80076660,0.01732848
1876.72957397,0.01730857
1878.65838135,0.01729719
1880.58718872,0.01728624
1882.51599609,0.01719037
1884.44480347,0.01704475
1886.37361084,0.01732167
1888.30241821,0.01691836
1890.23122559,0.01678786
1892.16003296,0.01719534
1894.08884033,0.01702126
1896.01764771,0.01702156
1897.94645508,0.01708769
1899.87526245,0.01718215
1901.80406982,0.01707684
1903.73287720,0.01705094
1905.66168457,0.01728745
1907.59049194,0.01698810
1909.51929932,0.01704006
1911.44810669,0.01708433
1913.37691406,0.01708123
1915.30572144,0.01723634
1917.23452881,0.01646908
1919.16333618,0.01662857
1921.09214355,0.01719009
1923.02095093,0.01675932
1924.94975830,0.01703291
1926.87856567,0.01714847
1928.80737305,0.01717116
1930.73618042,0.01738767
1932.66498779,0.01696550
1934.59379517,0.01700800
1936.52260254,0.01709596
1938.45140991,0.01710173
1940.38021729,0.01703801
1942.30902466,0.01665772
1944.23783203,0.01690421
1946.16663940,0.01709855
1948.09544678,0.01712304
1950.02425415,0.01714212
1951.95306152,0.01697191
1953.88186890,0.01711841
1955.81067627,0.01703899
1957.73948364,0.01698117
1959.66829102,0.01712821
1961.59709839,0.01695885
1963.52590576,0.01703508
1965.45471313,0.01702502
1967.38352051,0.01680052
1969.31232788,0.01698365
1971.24113525,0.01705494
1973.16994263,0.01707111
1975.09875000,0.01711894
1977.02755737,0.01697557
1978.95636475,0.01699025
1980.88517212,0.01696480
1982.81397949,0.01703799
1984.74278687,0.01699551
1986.67159424,0.01679732
1988.60040161,0.01695379
1990.52920898,0.01670169
1992.45801636,0.01656860
1994.38682373,0.01692753
1996.31563110,0.01686484
1998.24443848,0.01693445
2000.17324585,0.01699350
2002.10205322,0.01679834
2004.03086060,0.01691098
2005.95966797,0.01686019
2007.88847534,0.01671846
2009.81728271,0.01679237
2011.74609009,0.01676830
2013.67489746,0.01683711
2015.60370483,0.01675765
2017.53251221,0.01651275
2019.46131958,0.01670678
2021.39012695,0.01681050
2023.31893433,0.01665403
2025.24774170,0.01659681
2027.17654907,0.01647176
2029.10535645,0.01641233
2031.03416382,0.01648488
2032.96297119,0.01659754
2034.89177856,0.01651000
2036.82058594,0.01655379
2038.74939331,0.01668030
2040.67820068,0.01626330
2042.60700806,0.01621512
2044.53581543,0.01640777
2046.46462280,0.01629080
2048.39343018,0.01633949
2050.32223755,0.01633207
2052.25104492,0.01638270
2054.17985229,0.01632032
2056.10865967,0.01617058
2058.03746704,0.01611436
2059.96627441,0.01608974
2061.89508179,0.01633460
2063.82388916,0.01614360
2065.75269653,0.01584266
2067.68150391,0.01603171
2069.61031128,0.01610031
2071.53911865,0.01599623
2073.46792603,0.01593290
2075.39673340,0.01598483
2077.32554077,0.01594255
2079.25434814,0.01589064
2081.18315552,0.01592072
2083.11196289,0.01593111
2085.04077026,0.01597985
2086.96957764,0.01587618
2088.89838501,0.01583713
2090.82719238,0.01587565
2092.75599976,0.01592161
2094.68480713,0.01598856
2096.61361450,0.01580713
2098.54242187,0.01576771
2100.47122925,0.01584974
2102.40003662,0.01572055
2104.32884399,0.01568678
2106.25765137,0.01567806
2108.18645874,0.01566075
2110.11526611,0.01571086
2112.04407349,0.01564179
2113.97288086,0.01565814
2115.90168823,0.01565161
2117.83049561,0.01554144
2119.75930298,0.01560242
2121.68811035,0.01560374
2123.61691772,0.01558107
2125.54572510,0.01563474
2127.47453247,0.01561924
2129.40333984,0.01553818
2131.33214722,0.01551295
2133.26095459,0.01559075
2135.18976196,0.01552190
2137.11856934,0.01551734
2139.04737671,0.01556852
2140.97618408,0.01540594
2142.90499146,0.01540994
2144.83379883,0.01550516
2146.76260620,0.01551834
2148.69141357,0.01557278
2150.62022095,0.01546035
2152.54902832,0.01541519
2154.47783569,0.01548875
2156.40664307,0.01541127
2158.33545044,0.01547770
2160.26425781,0.01543998
2162.19306519,0.01535285
2164.12187256,0.01546976
2166.05067993,0.01541592
2167.97948730,0.01542827
2169.90829468,0.01540814
2171.83710205,0.01532282
2173.76590942,0.01526693
2175.69471680,0.01520899
2177.62352417,0.01539581
2179.55233154,0.01539623
2181.48113892,0.01540120
2183.40994629,0.01549196
2185.33875366,0.01530005
2187.26756104,0.01524309
2189.19636841,0.01536438
2191.12517578,0.01536530
2193.05398315,0.01524654
2194.98279053,0.01524416
2196.91159790,0.01528507
2198.84040527,0.01521873
2200.76921265,0.01510582
2202.69802002,0.01519251
2204.62682739,0.01536692
2206.55563477,0.01523481
2208.48444214,0.01520263
2210.41324951,0.01521239
2212.34205688,0.01519231
2214.27086426,0.01529606
2216.19967163,0.01518360
2218.12847900,0.01513139
2220.05728638,0.01518307
2221.98609375,0.01512811
2223.91490112,0.01518188
2225.84370850,0.01518618
2227.77251587,0.01503612
2229.70132324,0.01509161
2231.63013062,0.01510006
2233.55893799,0.01503613
2235.48774536,0.01512532
2237.41655273,0.01509696
2239.34536011,0.01516032
2241.27416748,0.01506474
2243.20297485,0.01494673
2245.13178223,0.01505963
2247.06058960,0.01506008
2248.98939697,0.01504407
2250.91820435,0.01485655
2252.84701172,0.01488435
2254.77581909,0.01496268
2256.70462646,0.01479817
2258.63343384,0.01478090
2260.56224121,0.01486011
2262.49104858,0.01495087
2264.41985596,0.01481887
2266.34866333,0.01489175
2268.27747070,0.01493012
2270.20627808,0.01478419
2272.13508545,0.01486312
2274.06389282,0.01479222
2275.99270020,0.01483983
2277.92150757,0.01486714
2279.85031494,0.01486569
2281.77912231,0.01482912
2283.70792969,0.01468721
2285.63673706,0.01473489
2287.56554443,0.01462747
2289.49435181,0.01469661
2291.42315918,0.01475552
2293.35196655,0.01460641
2295.28077393,0.01462207
2297.20958130,0.01459825
2299.13838867,0.01454619
2301.06719604,0.01450239
2302.99600342,0.01452891
2304.92481079,0.01443046
2306.85361816,0.01432052
2308.78242554,0.01431853
2310.71123291,0.01411144
2312.64004028,0.01401372
2314.56884766,0.01402173
2316.49765503,0.01372781
2318.42646240,0.01345813
2320.35526978,0.01343966
2322.28407715,0.01326176
2324.21288452,0.01305683
2326.14169189,0.01296296
2328.07049927,0.01291923
2329.99930664,0.01279443
2331.92811401,0.01258497
2333.85692139,0.01271208
2335.78572876,0.01263812
2337.71453613,0.01252918
2339.64334351,0.01272180
2341.57215088,0.01273972
2343.50095825,0.01282430
2345.42976562,0.01297063
2347.35857300,0.01346709
2349.28738037,0.01393343
2351.21618774,0.01344341
2353.14499512,0.01269955
2355.07380249,0.01242994
2357.00260986,0.01216431
2358.93141724,0.01176165
2360.86022461,0.01179495
2362.78903198,0.01182128
2364.71783936,0.01172128
2366.64664673,0.01199520
2368.57545410,0.01225650
2370.50426147,0.01238705
2372.43306885,0.01267849
2374.36187622,0.01318823
2376.29068359,0.01361714
2378.21949097,0.01383499
2380.14829834,0.01392851
2382.07710571,0.01411578
2384.00591309,0.01436433
2385.93472046,0.01440741
2387.86352783,0.01445981
2389.79233521,0.01434584
2391.72114258,0.01424398
2393.64994995,0.01434100
2395.57875732,0.01426992
2397.50756470,0.01419013
2399.43637207,0.01415334
2401.36517944,0.01420560
2403.29398682,0.01419368
2405.22279419,0.01414069
2407.15160156,0.01423009
2409.08040894,0.01414296
2411.00921631,0.01404459
2412.93802368,0.01407739
2414.86683105,0.01410733
2416.79563843,0.01418753
2418.72444580,0.01423943
2420.65325317,0.01417961
2422.58206055,0.01414851
2424.51086792,0.01413397
2426.43967529,0.01406850
2428.36848267,0.01406595
2430.29729004,0.01405260
2432.22609741,0.01407901
2434.15490479,0.01405917
2436.08371216,0.01396637
2438.01251953,0.01403688
2439.94132690,0.01403421
2441.87013428,0.01394431
2443.79894165,0.01402027
2445.72774902,0.01404187
2447.65655640,0.01388156
2449.58536377,0.01389472
2451.51417114,0.01395324
2453.44297852,0.01392132
2455.37178589,0.01401740
2457.30059326,0.01383019
2459.22940063,0.01366983
2461.15820801,0.01389473
2463.08701538,0.01389713
2465.01582275,0.01383921
2466.94463013,0.01384244
2468.87343750,0.01375295
2470.80224487,0.01381296
2472.73105225,0.01380684
2474.65985962,0.01371564
2476.58866699,0.01377443
2478.51747437,0.01383146
2480.44628174,0.01388105
2482.37508911,0.01380516
2484.30389648,0.01372905
2486.23270386,0.01376664
2488.16151123,0.01366455
2490.09031860,0.01373133
2492.01912598,0.01367886
2493.94793335,0.01352455
2495.87674072,0.01371599
2497.80554810,0.01360829
2499.73435547,0.01356597
2501.66316284,0.01380112
2503.59197021,0.01371840
2505.52077759,0.01362541
2507.44958496,0.01373307
2509.37839233,0.01383332
2511.30719971,0.01356366
2513.23600708,0.01342513
2515.16481445,0.01367056
2517.09362183,0.01362612
2519.02242920,0.01354381
2520.95123657,0.01347099
2522.88004395,0.01345452
2524.80885132,0.01360364
2526.73765869,0.01351537
2528.66646606,0.01348385
2530.59527344,0.01351466
2532.52408081,0.01348213
2534.45288818,0.01346190
2536.38169556,0.01335306
2538.31050293,0.01339081
2540.23931030,0.01348138
2542.16811768,0.01345696
2544.09692505,0.01342105
2546.02573242,0.01343357
2547.95453979,0.01339543
2549.88334717,0.01334985
2551.81215454,0.01340432
2553.74096191,0.01330646
2555.66976929,0.01329501
2557.59857666,0.01339679
2559.52738403,0.01335729
2561.45619141,0.01333943
2563.38499878,0.01333738
2565.31380615,0.01334655
2567.24261353,0.01327844
2569.17142090,0.01336963
2571.10022827,0.01346499
2573.02903564,0.01332957
2574.95784302,0.01332499
2576.88665039,0.01325496
2578.81545776,0.01330211
2580.74426514,0.01330397
2582.67307251,0.01310711
2584.60187988,0.01316978
2586.53068726,0.01317980
2588.45949463,0.01318193
2590.38830200,0.01321777
2592.31710937,0.01315131
2594.24591675,0.01308318
2596.17472412,0.01308676
2598.10353149,0.01315229
2600.03233887,0.01313063
2601.96114624,0.01313131
2603.88995361,0.01301846
2605.81876099,0.01298341
2607.74756836,0.01305779
2609.67637573,0.01301853
2611.60518311,0.01303208
2613.53399048,0.01303484
2615.46279785,0.01305828
2617.39160522,0.01294100
2619.32041260,0.01293184
2621.24921997,0.01298703
2623.17802734,0.01291780
2625.10683472,0.01302888
2627.03564209,0.01293042
2628.96444946,0.01293991
2630.89325684,0.01297664
2632.82206421,0.01276683
2634.75087158,0.01286718
2636.67967895,0.01290289
2638.60848633,0.01283203
2640.53729370,0.01285995
2642.46610107,0.01283900
2644.39490845,0.01288498
2646.32371582,0.01284248
2648.25252319,0.01271407
2650.18133057,0.01277963
2652.11013794,0.01281969
2654.03894531,0.01278044
2655.96775269,0.01276441
2657.89656006,0.01273889
2659.82536743,0.01285754
2661.75417480,0.01278224
2663.68298218,0.01273685
2665.61178955,0.01274290
2667.54059692,0.01264955
2669.46940430,0.01278994
2671.39821167,0.01261117
2673.32701904,0.01261608
2675.25582642,0.01272773
2677.18463379,0.01257481
2679.11344116,0.01272069
2681.04224854,0.01257433
2682.97105591,0.01249238
2684.89986328,0.01256023
2686.82867065,0.01246233
2688.75747803,0.01248997
2690.68628540,0.01245325
2692.61509277,0.01249271
2694.54390015,0.01251941
2696.47270752,0.01251719
2698.40151489,0.01248015
2700.33032227,0.01250626
2702.25912964,0.01256502
2704.18793701,0.01246869
2706.11674438,0.01247100
2708.04555176,0.01243088
2709.97435913,0.01248317
2711.90316650,0.01250840
2713.83197388,0.01243349
2715.76078125,0.01242749
2717.68958862,0.01234264
2719.61839600,0.01237404
2721.54720337,0.01233414
2723.47601074,0.01229827
2725.40481812,0.01227046
2727.33362549,0.01212839
2729.26243286,0.01228116
2731.19124023,0.01235895
2733.12004761,0.01216870
2735.04885498,0.01221361
2736.97766235,0.01228083
2738.90646973,0.01217999
2740.83527710,0.01221227
2742.76408447,0.01221220
2744.69289185,0.01219188
2746.62169922,0.01224108
2748.55050659,0.01221539
2750.47931396,0.01214172
2752.40812134,0.01212704
2754.33692871,0.01220181
2756.26573608,0.01209158
2758.19454346,0.01209531
2760.12335083,0.01215403
2762.05215820,0.01209587
2763.98096558,0.01215018
2765.90977295,0.01197478
2767.83858032,0.01200630
2769.76738770,0.01209376
2771.69619507,0.01192183
2773.62500244,0.01194464
2775.55380981,0.01189405
2777.48261719,0.01191289
2779.41142456,0.01193358
2781.34023193,0.01187255
2783.26903931,0.01200604
2785.19784668,0.01197516
2787.12665405,0.01186956
2789.05546143,0.01187857
2790.98426880,0.01180623
2792.91307617,0.01181323
2794.84188354,0.01179563
2796.77069092,0.01169017
2798.69949829,0.01185109
2800.62830566,0.01189818
2802.55711304,0.01178042
2804.48592041,0.01178640
2806.41472778,0.01167491
2808.34353516,0.01161046
2810.27234253,0.01164185
2812.20114990,0.01165826
2814.12995728,0.01166316
2816.05876465,0.01164985
2817.98757202,0.01165061
2819.91637939,0.01166858
2821.84518677,0.01157790
2823.77399414,0.01141704
2825.70280151,0.01156126
2827.63160889,0.01165782
2829.56041626,0.01158214
2831.48922363,0.01156878
2833.41803101,0.01151277
2835.34683838,0.01152351
2837.27564575,0.01147405
2839.20445312,0.01145679
2841.13326050,0.01140223
2843.06206787,0.01128852
2844.99087524,0.01138128
2846.91968262,0.01134871
2848.84848999,0.01125311
2850.77729736,0.01124077
2852.70610474,0.01119532
2854.63491211,0.01123245
2856.56371948,0.01125349
2858.49252686,0.01121521
2860.42133423,0.01118217
2862.35014160,0.01115423
2864.27894897,0.01115496
2866.20775635,0.01108133
2868.13656372,0.01112285
2870.06537109,0.01113161
2871.99417847,0.01096788
2873.92298584,0.01112611
2875.85179321,0.01109964
2877.78060059,0.01096581
2879.70940796,0.01110379
2881.63821533,0.01103208
2883.56702270,0.01104572
2885.49583008,0.01105018
2887.42463745,0.01106886
2889.35344482,0.01108642
2891.28225220,0.01090137
2893.21105957,0.01087770
2895.13986694,0.01090512
2897.06867432,0.01090984
2898.99748169,0.01073173
2900.92628906,0.01075139
2902.85509644,0.01087861
2904.78390381,0.01069954
2906.71271118,0.01077671
2908.64151855,0.01080383
2910.57032593,0.01071252
2912.49913330,0.01065938
2914.42794067,0.01054985
2916.35674805,0.01049329
2918.28555542,0.01046330
2920.21436279,0.01060820
2922.14317017,0.01062722
2924.07197754,0.01047977
2926.00078491,0.01048306
2927.92959229,0.01060809
2929.85839966,0.01055491
2931.78720703,0.01042609
2933.71601440,0.01051378
2935.64482178,0.01055145
2937.57362915,0.01055266
2939.50243652,0.01054082
2941.43124390,0.01050602
2943.36005127,0.01041707
2945.28885864,0.01037322
2947.21766602,0.01048094
2949.14647339,0.01048644
2951.07528076,0.01049787
2953.00408813,0.01040784
2954.93289551,0.01033462
2956.86170288,0.01042906
2958.79051025,0.01046892
2960.71931763,0.01039538
2962.64812500,0.01023656
2964.57693237,0.01025303
2966.50573975,0.01023590
2968.43454712,0.01013214
2970.36335449,0.01021909
2972.29216187,0.01040649
2974.22096924,0.01033829
2976.14977661,0.01019638
2978.07858398,0.01039364
2980.00739136,0.01037780
2981.93619873,0.01030155
2983.86500610,0.01034426
2985.79381348,0.01029547
2987.72262085,0.01033959
2989.65142822,0.01021072
2991.58023560,0.01022431
2993.50904297,0.01032970
2995.43785034,0.01020034
2997.36665771,0.01021828
2999.29546509,0.01031022
3001.22427246,0.01021485
3003.15307983,0.01005956
3005.08188721,0.01010352
3007.01069458,0.01014267
3008.93950195,0.01017503
3010.86830933,0.01020712
3012.79711670,0.01005363
3014.72592407,0.01002025
3016.65473145,0.01000868
3018.58353882,0.01000645
3020.51234619,0.01011424
3022.44115356,0.01006525
3024.36996094,0.00997104
3026.29876831,0.00994175
3028.22757568,0.00998332
3030.15638306,0.01001442
3032.08519043,0.00992711
3034.01399780,0.00992907
3035.94280518,0.00996583
3037.87161255,0.00995541
3039.80041992,0.00995725
3041.72922729,0.00984106
3043.65803467,0.00980810
3045.58684204,0.00987594
3047.51564941,0.00981023
3049.44445679,0.00976785
3051.37326416,0.00981805
3053.30207153,0.00977334
3055.23087891,0.00969211
3057.15968628,0.00979393
3059.08849365,0.00973517
3061.01730103,0.00961812
3062.94610840,0.00968645
3064.87491577,0.00958075
3066.80372314,0.00960421
3068.73253052,0.00968433
3070.66133789,0.00966562
3072.59014526,0.00966599
3074.51895264,0.00955113
3076.44776001,0.00956815
3078.37656738,0.00955379
3080.30537476,0.00953668
3082.23418213,0.00952140
3084.16298950,0.00946542
3086.09179687,0.00955437
3088.02060425,0.00952782
3089.94941162,0.00955519
3091.87821899,0.00947719
3093.80702637,0.00939369
3095.73583374,0.00951615
3097.66464111,0.00944524
3099.59344849,0.00935330
3101.52225586,0.00923453
3103.45106323,0.00931063
3105.37987061,0.00947474
3107.30867798,0.00936026
3109.23748535,0.00932503
3111.16629272,0.00936988
3113.09510010,0.00937891
3115.02390747,0.00925570
3116.95271484,0.00925159
3118.88152222,0.00935113
3120.81032959,0.00921300
3122.73913696,0.00910372
3124.66794434,0.00913135
3126.59675171,0.00919152
3128.52555908,0.00916681
3130.45436645,0.00913527
3132.38317383,0.00903511
3134.31198120,0.00902960
3136.24078857,0.00911679
3138.16959595,0.00898477
3140.09840332,0.00904277
3142.02721069,0.00900277
3143.95601807,0.00893408
3145.88482544,0.00904546
3147.81363281,0.00895286
3149.74244019,0.00893170
3151.67124756,0.00883485
3153.60005493,0.00881294
3155.52886230,0.00888870
3157.45766968,0.00886671
3159.38647705,0.00884100
3161.31528442,0.00874723
3163.24409180,0.00887724
3165.17289917,0.00876822
3167.10170654,0.00858358
3169.03051392,0.00877421
3170.95932129,0.00874262
3172.88812866,0.00873601
3174.81693604,0.00878905
3176.74574341,0.00856426
3178.67455078,0.00846350
3180.60335815,0.00850793
3182.53216553,0.00848880
3184.46097290,0.00855489
3186.38978027,0.00856887
3188.31858765,0.00850231
3190.24739502,0.00845397
3192.17620239,0.00844094
3194.10500977,0.00855315
3196.03381714,0.00850556
3197.96262451,0.00844371
3199.89143188,0.00846257
3201.82023926,0.00842364
3203.74904663,0.00844225
3205.67785400,0.00834122
3207.60666138,0.00825876
3209.53546875,0.00829964
3211.46427612,0.00836964
3213.39308350,0.00832226
3215.32189087,0.00823029
3217.25069824,0.00826498
3219.17950562,0.00821850
3221.10831299,0.00821317
3223.03712036,0.00819038
3224.96592773,0.00820223
3226.89473511,0.00828637
3228.82354248,0.00824325
3230.75234985,0.00826989
3232.68115723,0.00819570
3234.60996460,0.00808179
3236.53877197,0.00811698
3238.46757935,0.00809623
3240.39638672,0.00811081
3242.32519409,0.00814019
3244.25400146,0.00806153
3246.18280884,0.00809599
3248.11161621,0.00814005
3250.04042358,0.00811113
3251.96923096,0.00821839
3253.89803833,0.00813444
3255.82684570,0.00797654
3257.75565308,0.00797163
3259.68446045,0.00797839
3261.61326782,0.00802449
3263.54207520,0.00794063
3265.47088257,0.00796842
3267.39968994,0.00804840
3269.32849731,0.00800657
3271.25730469,0.00805068
3273.18611206,0.00805185
3275.11491943,0.00805964
3277.04372681,0.00799304
3278.97253418,0.00792382
3280.90134155,0.00800141
3282.83014893,0.00798717
3284.75895630,0.00798124
3286.68776367,0.00798367
3288.61657104,0.00789107
3290.54537842,0.00790511
3292.47418579,0.00798652
3294.40299316,0.00797615
3296.33180054,0.00790947
3298.26060791,0.00791733
3300.18941528,0.00791995
3302.11822266,0.00779896
3304.04703003,0.00786485
3305.97583740,0.00791413
3307.90464478,0.00784610
3309.83345215,0.00796859
3311.76225952,0.00791444
3313.69106689,0.00781342
3315.61987427,0.00781229
3317.54868164,0.00782601
3319.47748901,0.00790775
3321.40629639,0.00782643
3323.33510376,0.00776832
3325.26391113,0.00779326
3327.19271851,0.00785491
3329.12152588,0.00783617
3331.05033325,0.00772018
3332.97914062,0.00782003
3334.90794800,0.00783363
3336.83675537,0.00769162
3338.76556274,0.00776070
3340.69437012,0.00781423
3342.62317749,0.00774756
3344.55198486,0.00780951
3346.48079224,0.00772741
3348.40959961,0.00768656
3350.33840698,0.00780767
3352.26721436,0.00764250
3354.19602173,0.00756992
3356.12482910,0.00762426
3358.05363647,0.00759061
3359.98244385,0.00755898
3361.91125122,0.00757108
3363.84005859,0.00766246
3365.76886597,0.00761907
3367.69767334,0.00756047
3369.62648071,0.00757532
3371.55528809,0.00754712
3373.48409546,0.00752761
3375.41290283,0.00759418
3377.34171020,0.00752992
3379.27051758,0.00749493
3381.19932495,0.00761443
3383.12813232,0.00749141
3385.05693970,0.00748538
3386.98574707,0.00751511
3388.91455444,0.00743395
3390.84336182,0.00741727
3392.77216919,0.00738189
3394.70097656,0.00742251
3396.62978394,0.00734206
3398.55859131,0.00735330
3400.48739868,0.00735850
3402.41620605,0.00726396
3404.34501343,0.00730260
3406.27382080,0.00739367
3408.20262817,0.00744118
3410.13143555,0.00731325
3412.06024292,0.00732004
3413.98905029,0.00732019
3415.91785767,0.00735561
3417.84666504,0.00735438
3419.77547241,0.00715893
3421.70427979,0.00721645
3423.63308716,0.00725063
3425.56189453,0.00725541
3427.49070190,0.00724772
3429.41950928,0.00726196
3431.34831665,0.00722814
3433.27712402,0.00710952
3435.20593140,0.00719946
3437.13473877,0.00717277
3439.06354614,0.00710023
3440.99235352,0.00702705
3442.92116089,0.00712504
3444.84996826,0.00715136
3446.77877563,0.00700031
3448.70758301,0.00713557
3450.63639038,0.00710385
3452.56519775,0.00710029
3454.49400513,0.00711788
3456.42281250,0.00706518
3458.35161987,0.00706062
3460.28042725,0.00695466
3462.20923462,0.00705375
3464.13804199,0.00707528
3466.06684937,0.00703623
3467.99565674,0.00704674
3469.92446411,0.00699367
3471.85327148,0.00707449
3473.78207886,0.00711815
3475.71088623,0.00699537
3477.63969360,0.00695405
3479.56850098,0.00695861
3481.49730835,0.00687537
3483.42611572,0.00693035
3485.35492310,0.00693066
3487.28373047,0.00691999
3489.21253784,0.00697513
3491.14134521,0.00693055
3493.07015259,0.00687857
3494.99895996,0.00691059
3496.92776733,0.00701706
3498.85657471,0.00690708
3500.78538208,0.00691405
3502.71418945,0.00688389
3504.64299683,0.00686159
3506.57180420,0.00707526
3508.50061157,0.00689681
3510.42941895,0.00686435
3512.35822632,0.00695799
3514.28703369,0.00696698
3516.21584106,0.00697195
3518.14464844,0.00682844
3520.07345581,0.00691302
3522.00226318,0.00680881
3523.93107056,0.00666920
3525.85987793,0.00682065
3527.78868530,0.00680593
3529.71749268,0.00671855
3531.64630005,0.00687624
3533.57510742,0.00697897
3535.50391479,0.00678394
3537.43272217,0.00672487
3539.36152954,0.00686591
3541.29033691,0.00698624
3543.21914429,0.00689380
3545.14795166,0.00667582
3547.07675903,0.00665835
3549.00556641,0.00685686
3550.93437378,0.00687513
3552.86318115,0.00676709
3554.79198853,0.00686913
3556.72079590,0.00682669
3558.64960327,0.00687383
3560.57841064,0.00687315
3562.50721802,0.00676106
3564.43602539,0.00683385
3566.36483276,0.00642524
3568.29364014,0.00625073
3570.22244751,0.00680225
3572.15125488,0.00697711
3574.08006226,0.00682271
3576.00886963,0.00686920
3577.93767700,0.00684090
3579.86648437,0.00686451
3581.79529175,0.00683777
3583.72409912,0.00677170
3585.65290649,0.00668624
3587.58171387,0.00614126
3589.51052124,0.00639224
3591.43932861,0.00690479
3593.36813599,0.00666064
3595.29694336,0.00664799
3597.22575073,0.00666380
3599.15455811,0.00666427
3601.08336548,0.00663187
3603.01217285,0.00668437
3604.94098022,0.00685204
3606.86978760,0.00665708
3608.79859497,0.00623163
3610.72740234,0.00641011
3612.65620972,0.00661058
3614.58501709,0.00634855
3616.51382446,0.00683902
3618.44263184,0.00636360
3620.37143921,0.00619223
3622.30024658,0.00688499
3624.22905395,0.00662760
3626.15786133,0.00704239
3628.08666870,0.00595062
3630.01547607,0.00546537
3631.94428345,0.00676128
3633.87309082,0.00657552
3635.80189819,0.00676642
3637.73070557,0.00681703
3639.65951294,0.00680322
3641.58832031,0.00681428
3643.51712769,0.00673059
3645.44593506,0.00680037
3647.37474243,0.00604637
3649.30354980,0.00569233
3651.23235718,0.00572443
3653.16116455,0.00668343
3655.08997192,0.00664881
3657.01877930,0.00604021
3658.94758667,0.00685558
3660.87639404,0.00673310
3662.80520142,0.00684943
3664.73400879,0.00675329
3666.66281616,0.00680156
3668.59162354,0.00652613
3670.52043091,0.00537623
3672.44923828,0.00654628
3674.37804565,0.00618974
3676.30685303,0.00522470
3678.23566040,0.00643246
3680.16446777,0.00654721
3682.09327515,0.00648403
3684.02208252,0.00673596
3685.95088989,0.00669474
3687.87969727,0.00601988
3689.80850464,0.00569449
3691.73731201,0.00630530
3693.66611938,0.00643598
3695.59492676,0.00660967
3697.52373413,0.00650558
3699.45254150,0.00652846
3701.38134888,0.00636660
3703.31015625,0.00620437
3705.23896362,0.00679536
3707.16777100,0.00638138
3709.09657837,0.00629895
3711.02538574,0.00593340
3712.95419312,0.00560115
3714.88300049,0.00656350
3716.81180786,0.00639415
3718.74061523,0.00642491
3720.66942261,0.00636530
3722.59822998,0.00616196
3724.52703735,0.00628102
3726.45584473,0.00585537
3728.38465210,0.00639747
3730.31345947,0.00629623
3732.24226685,0.00588978
3734.17107422,0.00575568
3736.09988159,0.00530651
3738.02868896,0.00566950
3739.95749634,0.00624940
3741.88630371,0.00644093
3743.81511108,0.00499098
3745.74391846,0.00481363
3747.67272583,0.00617224
3749.60153320,0.00529801
3751.53034058,0.00496512
3753.45914795,0.00565566
3755.38795532,0.00601077
3757.31676270,0.00617190
3759.24557007,0.00572176
3761.17437744,0.00598374
3763.10318481,0.00635583
3765.03199219,0.00601925
3766.96079956,0.00607427
3768.88960693,0.00601411
3770.81841431,0.00587154
3772.74722168,0.00623085
3774.67602905,0.00623456
3776.60483643,0.00622661
3778.53364380,0.00596289
3780.46245117,0.00579000
3782.39125854,0.00621417
3784.32006592,0.00601589
3786.24887329,0.00600903
3788.17768066,0.00618978
3790.10648804,0.00609008
3792.03529541,0.00611144
3793.96410278,0.00618723
3795.89291016,0.00576504
3797.82171753,0.00571985
3799.75052490,0.00596248
3801.67933228,0.00494247
3803.60813965,0.00569706
3805.53694702,0.00601876
3807.46575439,0.00512335
3809.39456177,0.00602610
3811.32336914,0.00587444
3813.25217651,0.00611383
3815.18098389,0.00547250
3817.10979126,0.00493341
3819.03859863,0.00610435
3820.96740601,0.00498029
3822.89621338,0.00529822
3824.82502075,0.00603351
3826.75382812,0.00550913
3828.68263550,0.00594875
3830.61144287,0.00568552
3832.54025024,0.00553268
3834.46905762,0.00564719
3836.39786499,0.00535873
3838.32667236,0.00487352
3840.25547974,0.00531712
3842.18428711,0.00571905
3844.11309448,0.00536871
3846.04190186,0.00583688
3847.97070923,0.00576377
3849.89951660,0.00566871
3851.82832397,0.00516991
3853.75713135,0.00396378
3855.68593872,0.00471365
3857.61474609,0.00582026
3859.54355347,0.00554741
3861.47236084,0.00550078
3863.40116821,0.00541514
3865.32997559,0.00505931
3867.25878296,0.00560088
3869.18759033,0.00512262
3871.11639770,0.00475728
3873.04520508,0.00564718
3874.97401245,0.00526775
3876.90281982,0.00556559
3878.83162720,0.00568835
3880.76043457,0.00491554
3882.68924194,0.00554613
3884.61804932,0.00525413
3886.54685669,0.00477947
3888.47566406,0.00556162
3890.40447144,0.00537461
3892.33327881,0.00506322
3894.26208618,0.00555128
3896.19089355,0.00565049
3898.11970093,0.00534694
3900.04850830,0.00505452
3901.97731567,0.00501700
3903.90612305,0.00495844
3905.83493042,0.00501819
3907.76373779,0.00552748
3909.69254517,0.00544159
3911.62135254,0.00528423
3913.55015991,0.00550090
3915.47896728,0.00524615
3917.40777466,0.00506351
3919.33658203,0.00520699
3921.26538940,0.00533635
3923.19419678,0.00529697
3925.12300415,0.00518531
3927.05181152,0.00524932
3928.98061890,0.00538633
3930.90942627,0.00526177
3932.83823364,0.00514247
3934.76704102,0.00536700
3936.69584839,0.00529691
3938.62465576,0.00520433
3940.55346313,0.00533759
3942.48227051,0.00516195
3944.41107788,0.00513470
3946.33988525,0.00524709
3948.26869263,0.00510732
3950.19750000,0.00510162
3952.12630737,0.00521776
3954.05511475,0.00520588
3955.98392212,0.00519895
3957.91272949,0.00522764
3959.84153687,0.00524384
3961.77034424,0.00518163
3963.69915161,0.00515833
3965.62795898,0.00518122
3967.55676636,0.00511771
3969.48557373,0.00510144
3971.41438110,0.00513502
3973.34318848,0.00514996
3975.27199585,0.00507897
3977.20080322,0.00511145
3979.12961060,0.00515896
3981.05841797,0.00507705
3982.98722534,0.00502376
3984.91603271,0.00499800
3986.84484009,0.00509898
3988.77364746,0.00501147
3990.70245483,0.00501769
3992.63126221,0.00509798
3994.56006958,0.00491214
3996.48887695,0.00494733
3998.41768433,0.00493508
4000.34649170,0.00497556
4002.27529907,0.00504054
4004.20410645,0.00496876
4006.13291382,0.00497398
4008.06172119,0.00495981
4009.99052856,0.00501583
4011.91933594,0.00488465
4013.84814331,0.00483604
4015.77695068,0.00488042
4017.70575806,0.00486644
4019.63456543,0.00495852
4021.56337280,0.00496417
4023.49218018,0.00495455
4025.42098755,0.00486629
4027.34979492,0.00491171
4029.27860229,0.00490991
4031.20740967,0.00488335
4033.13621704,0.00491321
4035.06502441,0.00479609
4036.99383179,0.00493285
4038.92263916,0.00482819
4040.85144653,0.00465226
4042.78025391,0.00474532
4044.70906128,0.00474429
4046.63786865,0.00479279
4048.56667603,0.00475651
4050.49548340,0.00472860
4052.42429077,0.00475843
4054.35309814,0.00479352
4056.28190552,0.00481430
4058.21071289,0.00477219
4060.13952026,0.00472374
4062.06832764,0.00472605
4063.99713501,0.00476668
4065.92594238,0.00469891
4067.85474976,0.00468052
4069.78355713,0.00456392
4071.71236450,0.00457273
4073.64117187,0.00464706
4075.56997925,0.00447433
4077.49878662,0.00464857
4079.42759399,0.00471240
4081.35640137,0.00458350
4083.28520874,0.00465652
4085.21401611,0.00458043
4087.14282349,0.00465019
4089.07163086,0.00470446
4091.00043823,0.00450889
4092.92924561,0.00452878
4094.85805298,0.00459164
4096.78686035,0.00448854
4098.71566772,0.00448533
4100.64447510,0.00447826
4102.57328247,0.00450075
4104.50208984,0.00462491
4106.43089722,0.00454351
4108.35970459,0.00445585
4110.28851196,0.00449374
4112.21731934,0.00444754
4114.14612671,0.00439239
4116.07493408,0.00441834
4118.00374145,0.00448869
4119.93254883,0.00445822
4121.86135620,0.00434199
4123.79016357,0.00437122
4125.71897095,0.00442798
4127.64777832,0.00439262
4129.57658569,0.00445702
4131.50539307,0.00444361
4133.43420044,0.00431755
4135.36300781,0.00433481
4137.29181519,0.00439491
4139.22062256,0.00434976
4141.14942993,0.00426130
4143.07823730,0.00428484
4145.00704468,0.00425646
4146.93585205,0.00420624
4148.86465942,0.00428581
4150.79346680,0.00430140
4152.72227417,0.00434595
4154.65108154,0.00432204
4156.57988892,0.00422950
4158.50869629,0.00428732
4160.43750366,0.00427587
4162.36631103,0.00420556
4164.29511841,0.00419258
4166.22392578,0.00421987
4168.15273315,0.00424647
4170.08154053,0.00424798
4172.01034790,0.00427187
4173.93915527,0.00421157
4175.86796265,0.00418724
4177.79677002,0.00423860
4179.72557739,0.00416984
4181.65438477,0.00411059
4183.58319214,0.00414937
4185.51199951,0.00417696
4187.44080688,0.00414325
4189.36961426,0.00416129
4191.29842163,0.00411999
4193.22722900,0.00397066
4195.15603638,0.00405477
4197.08484375,0.00410860
4199.01365112,0.00402024
4200.94245850,0.00409431
4202.87126587,0.00407781
4204.80007324,0.00398213
4206.72888062,0.00402395
4208.65768799,0.00405607
4210.58649536,0.00400748
4212.51530273,0.00398098
4214.44411011,0.00401227
4216.37291748,0.00404227
4218.30172485,0.00400826
4220.23053223,0.00394408
4222.15933960,0.00393418
4224.08814697,0.00393972
4226.01695435,0.00391799
4227.94576172,0.00391917
4229.87456909,0.00399277
4231.80337646,0.00397296
4233.73218384,0.00394259
4235.66099121,0.00399451
4237.58979858,0.00390042
4239.51860596,0.00387358
4241.44741333,0.00385045
4243.37622070,0.00381311
4245.30502808,0.00391139
4247.23383545,0.00386127
4249.16264282,0.00383699
4251.09145020,0.00390666
4253.02025757,0.00393236
4254.94906494,0.00387493
4256.87787231,0.00382953
4258.80667969,0.00389593
4260.73548706,0.00386386
4262.66429443,0.00385133
4264.59310181,0.00378374
4266.52190918,0.00367625
4268.45071655,0.00376492
4270.37952393,0.00376910
4272.30833130,0.00370316
4274.23713867,0.00374019
4276.16594604,0.00376249
4278.09475342,0.00379267
4280.02356079,0.00378607
4281.95236816,0.00366168
4283.88117554,0.00367742
4285.80998291,0.00372872
4287.73879028,0.00364843
4289.66759766,0.00369378
4291.59640503,0.00372766
4293.52521240,0.00365998
4295.45401978,0.00369548
4297.38282715,0.00372413
4299.31163452,0.00364270
4301.24044189,0.00364511
4303.16924927,0.00359776
4305.09805664,0.00350914
4307.02686401,0.00364083
4308.95567139,0.00364466
4310.88447876,0.00351342
4312.81328613,0.00358565
4314.74209351,0.00369391
4316.67090088,0.00355926
4318.59970825,0.00352538
4320.52851562,0.00364518
4322.45732300,0.00350497
4324.38613037,0.00352957
4326.31493774,0.00356573
4328.24374512,0.00346091
4330.17255249,0.00354636
4332.10135986,0.00353431
4334.03016724,0.00354993
4335.95897461,0.00357328
4337.88778198,0.00348471
4339.81658936,0.00343730
4341.74539673,0.00347569
4343.67420410,0.00353703
4345.60301147,0.00349619
4347.53181885,0.00344848
4349.46062622,0.00341786
4351.38943359,0.00344243
4353.31824097,0.00342770
4355.24704834,0.00341185
4357.17585571,0.00342035
4359.10466309,0.00336761
4361.03347046,0.00335768
4362.96227783,0.00335136
4364.89108520,0.00344149
4366.81989258,0.00341132
4368.74869995,0.00334142
4370.67750732,0.00343333
4372.60631470,0.00339856
4374.53512207,0.00333944
4376.46392944,0.00332210
4378.39273682,0.00333388
4380.32154419,0.00330526
4382.25035156,0.00330136
4384.17915894,0.00334081
4386.10796631,0.00332679
4388.03677368,0.00335607
4389.96558105,0.00333272
4391.89438843,0.00333617
4393.82319580,0.00330429
4395.75200317,0.00326139
4397.68081055,0.00325699
4399.60961792,0.00320429
4401.53842529,0.00324175
4403.46723267,0.00329464
4405.39604004,0.00331504
4407.32484741,0.00324419
4409.25365478,0.00327628
4411.18246216,0.00327597
4413.11126953,0.00312447
4415.04007690,0.00317838
4416.96888428,0.00315676
4418.89769165,0.00317783
4420.82649902,0.00322961
4422.75530640,0.00310370
4424.68411377,0.00312115
4426.61292114,0.00316402
4428.54172852,0.00315232
4430.47053589,0.00316639
4432.39934326,0.00322759
4434.32815063,0.00314343
4436.25695801,0.00302247
4438.18576538,0.00310954
4440.11457275,0.00309609
4442.04338013,0.00309095
4443.97218750,0.00314806
4445.90099487,0.00316193
4447.82980225,0.00313325
4449.75860962,0.00304373
4451.68741699,0.00310062
4453.61622437,0.00309349
4455.54503174,0.00305581
4457.47383911,0.00307818
4459.40264648,0.00304553
4461.33145386,0.00309332
4463.26026123,0.00296836
4465.18906860,0.00291708
4467.11787598,0.00301961
4469.04668335,0.00294634
4470.97549072,0.00298592
4472.90429810,0.00299470
4474.83310547,0.00301469
4476.76191284,0.00306139
4478.69072021,0.00292308
4480.61952759,0.00292424
4482.54833496,0.00296434
4484.47714233,0.00298261
4486.40594971,0.00297741
4488.33475708,0.00289481
4490.26356445,0.00296479
4492.19237183,0.00298082
4494.12117920,0.00285293
4496.04998657,0.00286151
4497.97879395,0.00289760
4499.90760132,0.00284568
4501.83640869,0.00288775
4503.76521606,0.00289657
4505.69402344,0.00287062
4507.62283081,0.00286375
4509.55163818,0.00279280
4511.48044556,0.00286780
4513.40925293,0.00289397
4515.33806030,0.00285564
4517.26686768,0.00291632
4519.19567505,0.00283552
4521.12448242,0.00279969
4523.05328979,0.00288087
4524.98209717,0.00283211
4526.91090454,0.00282658
4528.83971191,0.00286178
4530.76851929,0.00278893
4532.69732666,0.00282081
4534.62613403,0.00277703
4536.55494141,0.00271312
4538.48374878,0.00279590
4540.41255615,0.00273853
4542.34136353,0.00273130
4544.27017090,0.00272185
4546.19897827,0.00274608
4548.12778564,0.00279506
4550.05659302,0.00266202
4551.98540039,0.00272866
4553.91420776,0.00277329
4555.84301514,0.00268957
4557.77182251,0.00273497
4559.70062988,0.00273155
4561.62943726,0.00271973
4563.55824463,0.00277269
4565.48705200,0.00270581
4567.41585937,0.00265940
4569.34466675,0.00273707
4571.27347412,0.00262418
4573.20228149,0.00263458
4575.13108887,0.00272975
4577.05989624,0.00262113
4578.98870361,0.00263037
4580.91751099,0.00264160
4582.84631836,0.00263629
4584.77512573,0.00260226
4586.70393311,0.00257138
4588.63274048,0.00260463
4590.56154785,0.00256258
4592.49035522,0.00261529
4594.41916260,0.00266782
4596.34796997,0.00260174
4598.27677734,0.00256337
4600.20558472,0.00255598
4602.13439209,0.00247080
4604.06319946,0.00252500
4605.99200684,0.00262527
4607.92081421,0.00254924
4609.84962158,0.00254565
4611.77842895,0.00247823
4613.70723633,0.00250414
4615.63604370,0.00256011
4617.56485107,0.00248379
4619.49365845,0.00250937
4621.42246582,0.00243743
4623.35127319,0.00246750
4625.28008057,0.00251941
4627.20888794,0.00245086
4629.13769531,0.00244669
4631.06650269,0.00244399
4632.99531006,0.00248900
4634.92411743,0.00246307
4636.85292480,0.00247514
4638.78173218,0.00247702
4640.71053955,0.00244727
4642.63934692,0.00252070
4644.56815430,0.00244849
4646.49696167,0.00245101
4648.42576904,0.00251134
4650.35457642,0.00239350
4652.28338379,0.00240270
4654.21219116,0.00246240
4656.14099853,0.00235830
4658.06980591,0.00228467
4659.99861328,0.00238070
4661.92742065,0.00249114
4663.85622803,0.00240404
4665.78503540,0.00234425
4667.71384277,0.00240624
4669.64265015,0.00237418
4671.57145752,0.00241179
4673.50026489,0.00242884
4675.42907227,0.00237434
4677.35787964,0.00242284
4679.28668701,0.00239347
4681.21549438,0.00233012
4683.14430176,0.00228870
4685.07310913,0.00226355
4687.00191650,0.00232493
4688.93072388,0.00234127
4690.85953125,0.00228521
4692.78833862,0.00223840
4694.71714600,0.00226257
4696.64595337,0.00232552
4698.57476074,0.00230404
4700.50356812,0.00227468
4702.43237549,0.00225046
4704.36118286,0.00223742
4706.28999023,0.00231408
4708.21879761,0.00221603
4710.14760498,0.00218231
4712.07641235,0.00230140
4714.00521973,0.00222656
4715.93402710,0.00226405
4717.86283447,0.00226312
4719.79164185,0.00220554
4721.72044922,0.00221079
4723.64925659,0.00215154
4725.57806396,0.00227499
4727.50687134,0.00223130
4729.43567871,0.00212886
4731.36448608,0.00225755
4733.29329346,0.00225075
4735.22210083,0.00218603
4737.15090820,0.00219933
4739.07971558,0.00218164
4741.00852295,0.00215373
4742.93733032,0.00222614
4744.86613770,0.00219822
4746.79494507,0.00215160
4748.72375244,0.00220658
4750.65255981,0.00213551
4752.58136719,0.00208553
4754.51017456,0.00212041
4756.43898193,0.00215582
4758.36778931,0.00213575
4760.29659668,0.00216974
4762.22540405,0.00219261
4764.15421143,0.00206854
4766.08301880,0.00206234
4768.01182617,0.00212902
4769.94063354,0.00213908
4771.86944092,0.00204579
4773.79824829,0.00205098
4775.72705566,0.00212891
4777.65586304,0.00200824
4779.58467041,0.00200822
4781.51347778,0.00208200
4783.44228516,0.00207656
4785.37109253,0.00202070
4787.29989990,0.00198617
4789.22870728,0.00208755
4791.15751465,0.00208056
4793.08632202,0.00206325
4795.01512939,0.00206808
4796.94393677,0.00201394
4798.87274414,0.00205509
4800.80155151,0.00206423
4802.73035889,0.00205030
4804.65916626,0.00209259
4806.58797363,0.00208733
4808.51678101,0.00201790
4810.44558838,0.00200054
4812.37439575,0.00205382
4814.30320312,0.00202673
4816.23201050,0.00199002
4818.16081787,0.00199050
4820.08962524,0.00195794
4822.01843262,0.00196088
4823.94723999,0.00195623
4825.87604736,0.00196831
4827.80485474,0.00198382
4829.73366211,0.00196457
4831.66246948,0.00197606
4833.59127686,0.00193536
4835.52008423,0.00186773
4837.44889160,0.00182969
4839.37769897,0.00192936
4841.30650635,0.00199365
4843.23531372,0.00192049
4845.16412109,0.00195641
4847.09292847,0.00191180
4849.02173584,0.00190147
4850.95054321,0.00188092
4852.87935059,0.00182850
4854.80815796,0.00194014
4856.73696533,0.00186700
4858.66577270,0.00186152
4860.59458008,0.00185333
4862.52338745,0.00178241
4864.45219482,0.00187352
4866.38100220,0.00181605
4868.30980957,0.00187121
4870.23861694,0.00187787
4872.16742432,0.00180982
4874.09623169,0.00191307
4876.02503906,0.00182724
4877.95384644,0.00178241
4879.88265381,0.00183422
4881.81146118,0.00180364
4883.74026855,0.00180046
4885.66907593,0.00182230
4887.59788330,0.00181696
4889.52669067,0.00179945
4891.45549805,0.00181855
4893.38430542,0.00180639
4895.31311279,0.00187168
4897.24192017,0.00184762
4899.17072754,0.00176106
4901.09953491,0.00183571
4903.02834228,0.00176660
4904.95714966,0.00177058
4906.88595703,0.00182458
4908.81476440,0.00178106
4910.74357178,0.00182156
4912.67237915,0.00174546
4914.60118652,0.00175117
4916.52999390,0.00171954
4918.45880127,0.00165773
4920.38760864,0.00178055
4922.31641602,0.00176379
4924.24522339,0.00174900
4926.17403076,0.00171263
4928.10283813,0.00170836
4930.03164551,0.00173607
4931.96045288,0.00164007
4933.88926025,0.00166216
4935.81806763,0.00167486
4937.74687500,0.00168898
4939.67568237,0.00170825
4941.60448975,0.00171552
4943.53329712,0.00170615
4945.46210449,0.00165865
4947.39091187,0.00166245
4949.31971924,0.00164005
4951.24852661,0.00171904
4953.17733398,0.00165196
4955.10614136,0.00161903
4957.03494873,0.00171118
4958.96375610,0.00165833
4960.89256348,0.00168699
4962.82137085,0.00157837
4964.75017822,0.00160903
4966.67898560,0.00162606
4968.60779297,0.00152334
4970.53660034,0.00163742
4972.46540771,0.00158014
4974.39421509,0.00162063
4976.32302246,0.00163970
4978.25182983,0.00162538
4980.18063721,0.00163249
4982.10944458,0.00152854
4984.03825195,0.00163117
4985.96705933,0.00159903
4987.89586670,0.00158716
4989.82467407,0.00158307
4991.75348145,0.00159600
4993.68228882,0.00170930
4995.61109619,0.00158546
4997.53990356,0.00160077
4999.46871094,0.00157695
5001.39751831,0.00151153
5003.32632568,0.00152737
5005.25513306,0.00154171
5007.18394043,0.00165196
5009.11274780,0.00158069
5011.04155518,0.00159633
5012.97036255,0.00158331
5014.89916992,0.00148760
5016.82797729,0.00160635
5018.75678467,0.00158647
5020.68559204,0.00150596
5022.61439941,0.00152184
5024.54320679,0.00153367
5026.47201416,0.00156072
5028.40082153,0.00154237
5030.32962891,0.00146917
5032.25843628,0.00151979
5034.18724365,0.00158843
5036.11605103,0.00150164
5038.04485840,0.00150098
5039.97366577,0.00153394
5041.90247314,0.00151138
5043.83128052,0.00150469
5045.76008789,0.00146390
5047.68889526,0.00144334
5049.61770264,0.00143598
5051.54651001,0.00143207
5053.47531738,0.00143254
5055.40412476,0.00144042
5057.33293213,0.00146008
5059.26173950,0.00146880
5061.19054687,0.00147333
5063.11935425,0.00144853
5065.04816162,0.00142768
5066.97696899,0.00143986
5068.90577637,0.00144633
5070.83458374,0.00141113
5072.76339111,0.00143207
5074.69219849,0.00149743
5076.62100586,0.00144935
5078.54981323,0.00144499
5080.47862061,0.00144233
5082.40742798,0.00136431
5084.33623535,0.00144369
5086.26504272,0.00140533
5088.19385010,0.00130397
5090.12265747,0.00143817
5092.05146484,0.00140613
5093.98027222,0.00133853
5095.90907959,0.00140945
5097.83788696,0.00139729
5099.76669434,0.00142425
5101.69550171,0.00136955
5103.62430908,0.00130589
5105.55311645,0.00137677
5107.48192383,0.00138818
5109.41073120,0.00139294
5111.33953857,0.00137231
5113.26834595,0.00133217
5115.19715332,0.00133727
5117.12596069,0.00132190
5119.05476807,0.00130334
5120.98357544,0.00128138
5122.91238281,0.00131469
5124.84119019,0.00138991
5126.76999756,0.00137679
5128.69880493,0.00131473
5130.62761230,0.00128224
5132.55641968,0.00128263
5134.48522705,0.00134085
5136.41403442,0.00134247
5138.34284180,0.00126498
5140.27164917,0.00130036
5142.20045654,0.00128214
5144.12926392,0.00122272
5146.05807129,0.00127415
5147.98687866,0.00126621
5149.91568603,0.00133603
5151.84449341,0.00136340
5153.77330078,0.00126784
5155.70210815,0.00130421
5157.63091553,0.00129511
5159.55972290,0.00125446
5161.48853027,0.00129952
5163.41733765,0.00132174
5165.34614502,0.00126216
5167.27495239,0.00123153
5169.20375977,0.00122266
5171.13256714,0.00116036
5173.06137451,0.00123727
5174.99018188,0.00124937
5176.91898926,0.00123380
5178.84779663,0.00131229
5180.77660400,0.00121534
5182.70541138,0.00120633
5184.63421875,0.00125481
5186.56302612,0.00121676
5188.49183350,0.00126199
5190.42064087,0.00125539
5192.34944824,0.00120262
5194.27825562,0.00121765
5196.20706299,0.00119856
5198.13587036,0.00116098
5200.06467773,0.00118293
5201.99348511,0.00114438
5203.92229248,0.00116624
5205.85109985,0.00122682
5207.77990723,0.00117513
5209.70871460,0.00115805
5211.63752197,0.00117055
5213.56632935,0.00119537
5215.49513672,0.00117128
5217.42394409,0.00116083
5219.35275146,0.00114656
5221.28155884,0.00113198
5223.21036621,0.00117166
5225.13917358,0.00109208
5227.06798096,0.00113823
5228.99678833,0.00116456
5230.92559570,0.00110671
5232.85440308,0.00114165
5234.78321045,0.00111504
5236.71201782,0.00115743
5238.64082520,0.00111846
5240.56963257,0.00111788
5242.49843994,0.00113168
5244.42724731,0.00106479
5246.35605469,0.00115712
5248.28486206,0.00112891
5250.21366943,0.00112838
5252.14247681,0.00116984
5254.07128418,0.00112768
5256.00009155,0.00111050
5257.92889893,0.00107447
5259.85770630,0.00114214
5261.78651367,0.00109637
5263.71532104,0.00101842
5265.64412842,0.00107446
5267.57293579,0.00107165
5269.50174316,0.00103443
5271.43055054,0.00104405
5273.35935791,0.00113525
5275.28816528,0.00113857
5277.21697266,0.00108399
5279.14578003,0.00106105
5281.07458740,0.00106097
5283.00339478,0.00107347
5284.93220215,0.00098090
5286.86100952,0.00101092
5288.78981689,0.00108645
5290.71862427,0.00101513
5292.64743164,0.00106097
5294.57623901,0.00111188
5296.50504639,0.00102850
5298.43385376,0.00097707
5300.36266113,0.00100192
5302.29146851,0.00106711
5304.22027588,0.00105662
5306.14908325,0.00101426
5308.07789062,0.00103649
5310.00669800,0.00100378
5311.93550537,0.00103405
5313.86431274,0.00109612
5315.79312012,0.00102336
5317.72192749,0.00105063
5319.65073486,0.00103862
5321.57954224,0.00096047
5323.50834961,0.00103142
5325.43715698,0.00102712
5327.36596436,0.00105052
5329.29477173,0.00109076
5331.22357910,0.00103915
5333.15238647,0.00099164
5335.08119385,0.00091289
5337.01000122,0.00096775
5338.93880859,0.00094899
5340.86761597,0.00088746
5342.79642334,0.00098602
5344.72523071,0.00096538
5346.65403809,0.00093547
5348.58284546,0.00095452
5350.51165283,0.00100457
5352.44046020,0.00097669
5354.36926758,0.00085534
5356.29807495,0.00094408
5358.22688232,0.00104852
5360.15568970,0.00101932
5362.08449707,0.00096599
5364.01330444,0.00096402
5365.94211182,0.00097016
5367.87091919,0.00097001
5369.79972656,0.00095919
5371.72853394,0.00090574
5373.65734131,0.00096010
5375.58614868,0.00094765
5377.51495605,0.00090961
5379.44376343,0.00095318
5381.37257080,0.00097482
5383.30137817,0.00096828
5385.23018555,0.00088743
5387.15899292,0.00092820
5389.08780029,0.00093785
5391.01660767,0.00092736
5392.94541504,0.00099803
5394.87422241,0.00092639
5396.80302978,0.00093441
5398.73183716,0.00097837
5400.66064453,0.00090186
5402.58945190,0.00088386
5404.51825928,0.00089339
5406.44706665,0.00085197
5408.37587402,0.00092938
5410.30468140,0.00098768
5412.23348877,0.00092232
5414.16229614,0.00092015
5416.09110352,0.00089548
5418.01991089,0.00089747
5419.94871826,0.00088739
5421.87752563,0.00091920
5423.80633301,0.00092675
5425.73514038,0.00086307
5427.66394775,0.00092025
5429.59275513,0.00088012
5431.52156250,0.00091496
5433.45036987,0.00090371
5435.37917725,0.00082901
5437.30798462,0.00088229
5439.23679199,0.00089129
5441.16559936,0.00094937
5443.09440674,0.00083244
5445.02321411,0.00082785
5446.95202148,0.00087571
5448.88082886,0.00076092
5450.80963623,0.00081748
5452.73844360,0.00083306
5454.66725098,0.00086790
5456.59605835,0.00083902
5458.52486572,0.00080083
5460.45367310,0.00082917
5462.38248047,0.00084009
5464.31128784,0.00086481
5466.24009521,0.00077412
5468.16890259,0.00080001
5470.09770996,0.00084289
5472.02651733,0.00090195
5473.95532471,0.00083617
5475.88413208,0.00072523
5477.81293945,0.00083512
5479.74174683,0.00079389
5481.67055420,0.00085934
5483.59936157,0.00083706
5485.52816895,0.00072744
5487.45697632,0.00080106
5489.38578369,0.00074825
5491.31459106,0.00077855
5493.24339844,0.00078540
5495.17220581,0.00077223
5497.10101318,0.00082028
5499.02982056,0.00080263
5500.95862793,0.00080135
5502.88743530,0.00079496
5504.81624268,0.00077084
5506.74505005,0.00076037
5508.67385742,0.00082219
5510.60266479,0.00074660
5512.53147217,0.00070744
5514.46027954,0.00078743
5516.38908691,0.00076085
5518.31789429,0.00078271
5520.24670166,0.00074178
5522.17550903,0.00073288
5524.10431641,0.00079225
5526.03312378,0.00077775
5527.96193115,0.00078305
5529.89073853,0.00080093
5531.81954590,0.00079588
5533.74835327,0.00074035
5535.67716064,0.00076889
5537.60596802,0.00077828
5539.53477539,0.00074889
5541.46358276,0.00075890
5543.39239014,0.00070702
5545.32119751,0.00075276
5547.25000488,0.00078711
5549.17881226,0.00075675
5551.10761963,0.00075274
5553.03642700,0.00073249
5554.96523437,0.00077357
5556.89404175,0.00077819
5558.82284912,0.00072137
5560.75165649,0.00070881
5562.68046387,0.00071129
5564.60927124,0.00067656
5566.53807861,0.00071551
5568.46688599,0.00075763
5570.39569336,0.00068862
5572.32450073,0.00074605
5574.25330811,0.00076065
5576.18211548,0.00071944
5578.11092285,0.00080112
5580.03973022,0.00073314
5581.96853760,0.00070459
5583.89734497,0.00076850
5585.82615234,0.00068238
5587.75495972,0.00064752
5589.68376709,0.00068396
5591.61257446,0.00066091
5593.54138184,0.00067395
5595.47018921,0.00070118
5597.39899658,0.00067120
5599.32780395,0.00065717
5601.25661133,0.00062841
5603.18541870,0.00067279
5605.11422607,0.00072978
5607.04303345,0.00067810
5608.97184082,0.00066180
5610.90064819,0.00067786
5612.82945557,0.00072985
5614.75826294,0.00067870
5616.68707031,0.00067728
5618.61587769,0.00069273
5620.54468506,0.00062423
5622.47349243,0.00074276
5624.40229980,0.00064556
5626.33110718,0.00063702
5628.25991455,0.00073747
5630.18872192,0.00064185
5632.11752930,0.00074376
5634.04633667,0.00071062
5635.97514404,0.00069298
5637.90395142,0.00069837
5639.83275879,0.00070972
5641.76156616,0.00075321
5643.69037353,0.00059694
5645.61918091,0.00065575
5647.54798828,0.00064584
5649.47679565,0.00065485
5651.40560303,0.00069509
5653.33441040,0.00065361
5655.26321777,0.00068326
5657.19202515,0.00053723
5659.12083252,0.00063568
5661.04963989,0.00066719
5662.97844727,0.00054950
5664.90725464,0.00057977
5666.83606201,0.00060306
5668.76486938,0.00064842
5670.69367676,0.00059908
5672.62248413,0.00068334
5674.55129150,0.00066144
5676.48009888,0.00065034
5678.40890625,0.00067642
5680.33771362,0.00053487
5682.26652100,0.00061410
5684.19532837,0.00062719
5686.12413574,0.00062721
5688.05294311,0.00058989
5689.98175049,0.00056376
5691.91055786,0.00066976
5693.83936523,0.00062862
5695.76817261,0.00059559
5697.69697998,0.00054496
5699.62578735,0.00060124
5701.55459473,0.00059153
5703.48340210,0.00051808
5705.41220947,0.00058892
5707.34101685,0.00055494
5709.26982422,0.00056952
5711.19863159,0.00060931
5713.12743896,0.00056671
5715.05624634,0.00053591
5716.98505371,0.00059567
5718.91386108,0.00057056
5720.84266846,0.00053422
5722.77147583,0.00060053
5724.70028320,0.00050405
5726.62909058,0.00054647
5728.55789795,0.00063991
5730.48670532,0.00056210
5732.41551270,0.00052354
5734.34432007,0.00051921
5736.27312744,0.00053180
5738.20193481,0.00055919
5740.13074219,0.00058797
5742.05954956,0.00056887
5743.98835693,0.00054701
5745.91716431,0.00050208
5747.84597168,0.00057620
5749.77477905,0.00060311
5751.70358643,0.00052559
5753.63239380,0.00061724
5755.56120117,0.00055756
5757.49000854,0.00056666
5759.41881592,0.00060777
5761.34762329,0.00054398
5763.27643066,0.00059230
5765.20523804,0.00050159
5767.13404541,0.00049470
5769.06285278,0.00053141
5770.99166016,0.00049424
5772.92046753,0.00051605
5774.84927490,0.00057846
5776.77808228,0.00059247
5778.70688965,0.00051880
5780.63569702,0.00055667
5782.56450439,0.00050043
5784.49331177,0.00049465
5786.42211914,0.00054015
5788.35092651,0.00048409
5790.27973389,0.00055597
5792.20854126,0.00053562
5794.13734863,0.00056998
5796.06615601,0.00057470
5797.99496338,0.00046363
5799.92377075,0.00054340
5801.85257812,0.00054015
5803.78138550,0.00048536
5805.71019287,0.00053861
5807.63900024,0.00052924
5809.56780762,0.00048573
5811.49661499,0.00054125
5813.42542236,0.00050100
5815.35422974,0.00040855
5817.28303711,0.00052190
5819.21184448,0.00050453
5821.14065186,0.00045820
5823.06945923,0.00054283
5824.99826660,0.00048248
5826.92707397,0.00050450
5828.85588135,0.00055285
5830.78468872,0.00043967
5832.71349609,0.00041435
5834.64230347,0.00047523
5836.57111084,0.00044491
5838.49991821,0.00041171
5840.42872559,0.00049241
5842.35753296,0.00049443
5844.28634033,0.00042588
5846.21514770,0.00044709
5848.14395508,0.00046685
5850.07276245,0.00048105
5852.00156982,0.00049624
5853.93037720,0.00047185
5855.85918457,0.00045945
5857.78799194,0.00047863
5859.71679932,0.00046234
5861.64560669,0.00046619
5863.57441406,0.00049631
5865.50322144,0.00043970
5867.43202881,0.00043612
5869.36083618,0.00044310
5871.28964355,0.00042851
5873.21845093,0.00045836
5875.14725830,0.00042222
5877.07606567,0.00044376
5879.00487305,0.00047259
5880.93368042,0.00045024
5882.86248779,0.00045254
5884.79129517,0.00045688
5886.72010254,0.00047179
5888.64890991,0.00044762
5890.57771728,0.00044779
5892.50652466,0.00042100
5894.43533203,0.00043668
5896.36413940,0.00052169
5898.29294678,0.00048127
5900.22175415,0.00046592
5902.15056152,0.00045349
5904.07936890,0.00041557
5906.00817627,0.00044653
5907.93698364,0.00044541
5909.86579102,0.00045794
5911.79459839,0.00043590
5913.72340576,0.00038292
5915.65221313,0.00044272
5917.58102051,0.00046718
5919.50982788,0.00039591
5921.43863525,0.00039358
5923.36744263,0.00045886
5925.29625000,0.00044719
5927.22505737,0.00042835
5929.15386475,0.00050342
5931.08267212,0.00046467
5933.01147949,0.00042086
5934.94028686,0.00043256
5936.86909424,0.00039962
5938.79790161,0.00049012
5940.72670898,0.00046310
5942.65551636,0.00037865
5944.58432373,0.00040119
5946.51313110,0.00039848
5948.44193848,0.00041054
5950.37074585,0.00035694
5952.29955322,0.00041990
5954.22836060,0.00046418
5956.15716797,0.00038236
5958.08597534,0.00038902
5960.01478271,0.00040729
5961.94359009,0.00043569
5963.87239746,0.00040840
5965.80120483,0.00041106
5967.73001221,0.00039682
5969.65881958,0.00040330
5971.58762695,0.00043003
5973.51643433,0.00037084
5975.44524170,0.00043470
5977.37404907,0.00041452
5979.30285645,0.00038329
5981.23166382,0.00033860
5983.16047119,0.00033834
5985.08927856,0.00046677
5987.01808594,0.00035482
5988.94689331,0.00035462
5990.87570068,0.00037344
5992.80450806,0.00034311
5994.73331543,0.00039968
5996.66212280,0.00028119
5998.59093018,0.00031169
6000.51973755,0.00041766
