399.26312622,0.00005726
401.19193359,0.00009806
403.12074097,0.00027391
405.04954834,0.00096771
406.97835571,0.00043459
408.90716309,-0.00005127
410.83597046,0.00026976
412.76477783,0.00021254
414.69358521,0.00063012
416.62239258,0.00061779
418.55119995,0.00036784
420.48000732,0.00015806
422.40881470,0.00034699
424.33762207,0.00054329
426.26642944,0.00005465
428.19523682,0.00029129
430.12404419,0.00040943
432.05285156,0.00045931
433.98165894,0.00066141
435.91046631,0.00075813
437.83927368,0.00070679
439.76808105,0.00037622
441.69688843,0.00063989
443.62569580,0.00061137
445.55450317,0.00077064
447.48331055,0.00075519
449.41211792,0.00025094
451.34092529,0.00015020
453.26973267,-0.00013610
455.19854004,0.00041072
457.12734741,0.00044503
459.05615479,0.00010763
460.98496216,0.00063419
462.91376953,0.00009086
464.84257690,-0.00012420
466.77138428,0.00027833
468.70019165,0.00019812
470.62899902,0.00033268
472.55780640,0.00015389
474.48661377,-0.00010782
476.41542114,0.00006094
478.34422852,0.00038768
480.27303589,0.00022666
482.20184326,-0.00011212
484.13065063,0.00021107
486.05945801,0.00015271
487.98826538,0.00004025
489.91707275,0.00024055
491.84588013,0.00005816
493.77468750,0.00021320
495.70349487,0.00007460
497.63230225,-0.00025082
499.56110962,-0.00010998
501.48991699,0.00001786
503.41872437,0.00030479
505.34753174,0.00029720
507.27633911,0.00026714
509.20514648,0.00004357
511.13395386,0.00002100
513.06276123,0.00056803
514.99156860,0.00029480
516.92037598,0.00022398
518.84918335,0.00061768
520.77799072,0.00036792
522.70679810,0.00029354
524.63560547,0.00016579
526.56441284,0.00000611
528.49322021,0.00030853
530.42202759,0.00029651
532.35083496,0.00032594
534.27964233,0.00043471
536.20844971,0.00034346
538.13725708,-0.00013571
540.06606445,-0.00036153
541.99487183,0.00008969
543.92367920,-0.00000704
545.85248657,0.00016563
547.78129395,0.00029963
549.71010132,0.00006882
551.63890869,0.00045336
553.56771606,0.00015446
555.49652344,-0.00006854
557.42533081,0.00013356
559.35413818,-0.00018915
561.28294556,-0.00000481
563.21175293,0.00012802
565.14056030,0.00001988
567.06936768,0.00033612
568.99817505,0.00026511
570.92698242,0.00021232
572.85578979,0.00034982
574.78459717,0.00010495
576.71340454,0.00003145
578.64221191,0.00008823
580.57101929,0.00013624
582.49982666,-0.00002513
584.42863403,-0.00024966
586.35744141,0.00011593
588.28624878,0.00025427
590.21505615,0.00006748
592.14386353,0.00000528
594.07267090,0.00003112
596.00147827,0.00007773
597.93028564,0.00028211
599.85909302,0.00020282
601.78790039,-0.00004951
603.71670776,0.00019201
605.64551514,0.00018527
607.57432251,0.00020946
609.50312988,0.00013398
611.43193726,-0.00003258
613.36074463,-0.00016917
615.28955200,-0.00013002
617.21835938,0.00021235
619.14716675,0.00015203
621.07597412,0.00026836
623.00478149,0.00009721
624.93358887,0.00003654
626.86239624,0.00005975
628.79120361,-0.00000152
630.72001099,0.00021533
632.64881836,0.00026148
634.57762573,0.00028480
636.50643311,0.00025211
638.43524048,0.00017100
640.36404785,0.00027605
642.29285522,0.00037280
644.22166260,0.00056838
646.15046997,0.00048459
648.07927734,0.00034969
650.00808472,0.00059481
651.93689209,0.00034603
653.86569946,0.00052032
655.79450684,0.00089759
657.72331421,0.00075938
659.65212158,0.00078822
661.58092896,0.00081347
663.50973633,0.00103046
665.43854370,0.00073815
667.36735107,0.00047692
669.29615845,0.00082192
671.22496582,0.00093647
673.15377319,0.00094149
675.08258057,0.00079187
677.01138794,0.00082630
678.94019531,0.00091407
680.86900269,0.00094103
682.79781006,0.00104563
684.72661743,0.00109008
686.65542480,0.00101773
688.58423218,0.00098568
690.51303955,0.00117799
692.44184692,0.00119195
694.37065430,0.00125693
696.29946167,0.00125998
698.22826904,0.00138519
700.15707642,0.00164976
702.08588379,0.00143938
704.01469116,0.00116263
705.94349854,0.00127529
707.87230591,0.00127578
709.80111328,0.00068270
711.72992065,0.00061224
713.65872803,0.00050437
715.58753540,0.00022573
717.51634277,0.00002953
719.44515015,-0.00016497
721.37395752,0.00028045
723.30276489,-0.00008618
725.23157227,-0.00011272
727.16037964,0.00019530
729.08918701,0.00010474
731.01799438,0.00011231
732.94680176,-0.00000538
734.87560913,-0.00000424
736.80441650,-0.00013056
738.73322388,0.00027764
740.66203125,0.00009880
742.59083862,0.00006353
744.51964600,0.00029569
746.44845337,0.00020101
748.37726074,0.00019118
750.30606812,-0.00013230
752.23487549,0.00044207
754.16368286,0.00039395
756.09249023,0.00012352
758.02129761,0.00023991
759.95010498,0.00009350
761.87891235,0.00058184
763.80771973,0.00034273
765.73652710,0.00021405
767.66533447,0.00004543
769.59414185,0.00011790
771.52294922,0.00069498
773.45175659,0.00016013
775.38056396,0.00016804
777.30937134,0.00027681
779.23817871,0.00016964
781.16698608,0.00035539
783.09579346,0.00011366
785.02460083,0.00028479
786.95340820,0.00047550
788.88221558,0.00014643
790.81102295,-0.00000924
792.73983032,0.00014902
794.66863770,0.00008902
796.59744507,0.00009075
798.52625244,0.00017786
800.45505981,0.00007293
802.38386719,0.00026678
804.31267456,0.00021275
806.24148193,0.00028283
808.17028931,0.00035616
810.09909668,0.00005096
812.02790405,0.00015801
813.95671143,-0.00001857
815.88551880,-0.00004157
817.81432617,0.00030093
819.74313354,0.00018195
821.67194092,-0.00007178
823.60074829,0.00012869
825.52955566,0.00032305
827.45836304,0.00010796
829.38717041,0.00036458
831.31597778,0.00048367
833.24478516,0.00036667
835.17359253,0.00044727
837.10239990,0.00017846
839.03120728,0.00032927
840.96001465,0.00071029
842.88882202,0.00033765
844.81762939,0.00028503
846.74643677,0.00065582
848.67524414,0.00014818
850.60405151,0.00017876
852.53285889,0.00068784
854.46166626,0.00021113
856.39047363,-0.00013805
858.31928101,-0.00008980
860.24808838,0.00025718
862.17689575,0.00035736
864.10570313,0.00029548
866.03451050,0.00051497
867.96331787,0.00031739
869.89212524,0.00028040
871.82093262,0.00026555
873.74973999,0.00005159
875.67854736,0.00015498
877.60735474,0.00026293
879.53616211,0.00031658
881.46496948,0.00031571
883.39377686,0.00026515
885.32258423,0.00028125
887.25139160,0.00026473
889.18019897,0.00028731
891.10900635,0.00011692
893.03781372,0.00009130
894.96662109,0.00050567
896.89542847,0.00028043
898.82423584,0.00010514
900.75304321,0.00028990
902.68185059,0.00015048
904.61065796,0.00022459
906.53946533,0.00020137
908.46827271,0.00036208
910.39708008,0.00040183
912.32588745,0.00031438
914.25469482,0.00036917
916.18350220,0.00016358
918.11230957,0.00050065
920.04111694,0.00051414
921.96992432,0.00029758
923.89873169,0.00039569
925.82753906,0.00043182
927.75634644,0.00053407
929.68515381,0.00049650
931.61396118,0.00061432
933.54276855,0.00040951
935.47157593,0.00058367
937.40038330,0.00069198
939.32919067,0.00032186
941.25799805,0.00076446
943.18680542,0.00084259
945.11561279,0.00082775
947.04442017,0.00066609
948.97322754,0.00036417
950.90203491,0.00074958
952.83084229,0.00058502
954.75964966,0.00048731
956.68845703,0.00065303
958.61726440,0.00040602
960.54607178,0.00060729
962.47487915,0.00073628
964.40368652,0.00031686
966.33249390,0.00046103
968.26130127,0.00072351
970.19010864,0.00068569
972.11891602,0.00080050
974.04772339,0.00080865
975.97653076,0.00093323
977.90533813,0.00092070
979.83414551,0.00107206
981.76295288,0.00115976
983.69176025,0.00103610
985.62056763,0.00128650
987.54937500,0.00134469
989.47818237,0.00174289
991.40698975,0.00174805
993.33579712,0.00164528
995.26460449,0.00201632
997.19341187,0.00197235
999.12221924,0.00250186
1001.05102661,0.00275546
1002.97983398,0.00280698
1004.90864136,0.00296728
1006.83744873,0.00288429
1008.76625610,0.00337182
1010.69506348,0.00350935
1012.62387085,0.00364278
1014.55267822,0.00365734
1016.48148560,0.00354347
1018.41029297,0.00410130
1020.33910034,0.00431989
1022.26790771,0.00434034
1024.19671509,0.00455938
1026.12552246,0.00495763
1028.05432983,0.00519346
1029.98313721,0.00521052
1031.91194458,0.00537396
1033.84075195,0.00519654
1035.76955933,0.00537505
1037.69836670,0.00576711
1039.62717407,0.00533160
1041.55598145,0.00529589
1043.48478882,0.00558541
1045.41359619,0.00537830
1047.34240356,0.00548059
1049.27121094,0.00543092
1051.20001831,0.00527921
1053.12882568,0.00522723
1055.05763306,0.00492900
1056.98644043,0.00509213
1058.91524780,0.00503788
1060.84405518,0.00466076
1062.77286255,0.00446524
1064.70166992,0.00438644
1066.63047729,0.00452799
1068.55928467,0.00420775
1070.48809204,0.00394319
1072.41689941,0.00378977
1074.34570679,0.00343945
1076.27451416,0.00359381
1078.20332153,0.00339981
1080.13212891,0.00293012
1082.06093628,0.00305187
1083.98974365,0.00303303
1085.91855103,0.00271308
1087.84735840,0.00247495
1089.77616577,0.00248242
1091.70497314,0.00258918
1093.63378052,0.00237289
1095.56258789,0.00227200
1097.49139526,0.00231220
1099.42020264,0.00215973
1101.34901001,0.00205939
1103.27781738,0.00194752
1105.20662476,0.00192221
1107.13543213,0.00209885
1109.06423950,0.00218231
1110.99304687,0.00196021
1112.92185425,0.00189763
1114.85066162,0.00202659
1116.77946899,0.00208248
1118.70827637,0.00220671
1120.63708374,0.00205681
1122.56589111,0.00190002
1124.49469849,0.00184208
1126.42350586,0.00184163
1128.35231323,0.00198959
1130.28112061,0.00212398
1132.20992798,0.00228259
1134.13873535,0.00222161
1136.06754272,0.00228757
1137.99635010,0.00244394
1139.92515747,0.00268836
1141.85396484,0.00282639
1143.78277222,0.00269620
1145.71157959,0.00308968
1147.64038696,0.00336370
1149.56919434,0.00334527
1151.49800171,0.00349626
1153.42680908,0.00376205
1155.35561646,0.00396083
1157.28442383,0.00400846
1159.21323120,0.00427028
1161.14203857,0.00438357
1163.07084595,0.00447310
1164.99965332,0.00474795
1166.92846069,0.00505829
1168.85726807,0.00516455
1170.78607544,0.00516093
1172.71488281,0.00555969
1174.64369019,0.00570835
1176.57249756,0.00588883
1178.50130493,0.00621610
1180.43011230,0.00629453
1182.35891968,0.00669370
1184.28772705,0.00695093
1186.21653442,0.00729096
1188.14534180,0.00785018
1190.07414917,0.00796392
1192.00295654,0.00830661
1193.93176392,0.00875537
1195.86057129,0.00911010
1197.78937866,0.00961779
1199.71818604,0.00996350
1201.64699341,0.01054427
1203.57580078,0.01076617
1205.50460815,0.01093809
1207.43341553,0.01160781
1209.36222290,0.01179075
1211.29103027,0.01233158
1213.21983765,0.01281473
1215.14864502,0.01295438
1217.07745239,0.01337111
1219.00625977,0.01344756
1220.93506714,0.01364677
1222.86387451,0.01377699
1224.79268188,0.01396489
1226.72148926,0.01412071
1228.65029663,0.01410174
1230.57910400,0.01430277
1232.50791138,0.01424306
1234.43671875,0.01443465
1236.36552612,0.01441986
1238.29433350,0.01420598
1240.22314087,0.01434082
1242.15194824,0.01418980
1244.08075562,0.01414238
1246.00956299,0.01426061
1247.93837036,0.01406308
1249.86717773,0.01392434
1251.79598511,0.01407570
1253.72479248,0.01376561
1255.65359985,0.01347005
1257.58240723,0.01348315
1259.51121460,0.01326880
1261.44002197,0.01321467
1263.36882935,0.01304166
1265.29763672,0.01286401
1267.22644409,0.01275244
1269.15525146,0.01252816
1271.08405884,0.01235753
1273.01286621,0.01226140
1274.94167358,0.01200039
1276.87048096,0.01157339
1278.79928833,0.01157463
1280.72809570,0.01138243
1282.65690308,0.01119422
1284.58571045,0.01118991
1286.51451782,0.01092806
1288.44332520,0.01069810
1290.37213257,0.01049629
1292.30093994,0.01045683
1294.22974731,0.01002778
1296.15855469,0.01002722
1298.08736206,0.01039484
1300.01616943,0.01015739
1301.94497681,0.01026363
1303.87378418,0.01038361
1305.80259155,0.01051669
1307.73139893,0.01082236
1309.66020630,0.01087612
1311.58901367,0.01086253
1313.51782104,0.01116551
1315.44662842,0.01156648
1317.37543579,0.01170126
1319.30424316,0.01211867
1321.23305054,0.01255198
1323.16185791,0.01300682
1325.09066528,0.01334743
1327.01947266,0.01359295
1328.94828003,0.01401122
1330.87708740,0.01421902
1332.80589478,0.01477079
1334.73470215,0.01512015
1336.66350952,0.01511216
1338.59231689,0.01508426
1340.52112427,0.01506653
1342.44993164,0.01562329
1344.37873901,0.01597207
1346.30754639,0.01591033
1348.23635376,0.01584836
1350.16516113,0.01578244
1352.09396851,0.01577379
1354.02277588,0.01578109
1355.95158325,0.01557056
1357.88039062,0.01524119
1359.80919800,0.01518198
1361.73800537,0.01458932
1363.66681274,0.01444310
1365.59562012,0.01522072
1367.52442749,0.01466598
1369.45323486,0.01434778
1371.38204224,0.01479910
1373.31084961,0.01409018
1375.23965698,0.01410528
1377.16846436,0.01472996
1379.09727173,0.01466256
1381.02607910,0.01444931
1382.95488647,0.01439945
1384.88369385,0.01458588
1386.81250122,0.01387446
1388.74130859,0.01400457
1390.67011597,0.01540004
1392.59892334,0.01477704
1394.52773071,0.01394696
1396.45653809,0.01480610
1398.38534546,0.01467688
1400.31415283,0.01474331
1402.24296021,0.01568621
1404.17176758,0.01488183
1406.10057495,0.01516314
1408.02938232,0.01557290
1409.95818970,0.01490704
1411.88699707,0.01542830
1413.81580444,0.01491898
1415.74461182,0.01483961
1417.67341919,0.01351941
1419.60222656,0.01235711
1421.53103394,0.01411147
1423.45984131,0.01355583
1425.38864868,0.01326686
1427.31745605,0.01350519
1429.24626343,0.01244272
1431.17507080,0.01215332
1433.10387817,0.01230694
1435.03268555,0.01127994
1436.96149292,0.00962583
1438.89030029,0.01097189
1440.81910767,0.01105439
1442.74791504,0.01027790
1444.67672241,0.01093859
1446.60552979,0.00983124
1448.53433716,0.01023383
1450.46314453,0.01065770
1452.39195190,0.01070147
1454.32075928,0.01112164
1456.24956665,0.00936114
1458.17837402,0.00978679
1460.10718140,0.01268554
1462.03598877,0.01361395
1463.96479614,0.01343720
1465.89360352,0.01411519
1467.82241089,0.01604256
1469.75121826,0.01706356
1471.68002563,0.01546547
1473.60883301,0.01614237
1475.53764038,0.01848820
1477.46644775,0.01981290
1479.39525513,0.02170452
1481.32406250,0.02228573
1483.25286987,0.02352155
1485.18167725,0.02428199
1487.11048462,0.02383848
1489.03929199,0.02376252
1490.96809937,0.02417284
1492.89690674,0.02780643
1494.82571411,0.02693872
1496.75452148,0.02461751
1498.68332886,0.02770428
1500.61213623,0.02826433
1502.54094360,0.03051103
1504.46975098,0.02879429
1506.39855835,0.02131681
1508.32736572,0.02593953
1510.25617310,0.03015584
1512.18498047,0.02946239
1514.11378784,0.03161895
1516.04259521,0.02850774
1517.97140259,0.02990349
1519.90020996,0.02886776
1521.82901733,0.02525836
1523.75782471,0.03077228
1525.68663208,0.03011334
1527.61543945,0.03015331
1529.54424683,0.03314089
1531.47305420,0.03166350
1533.40186157,0.02947249
1535.33066895,0.03126580
1537.25947632,0.03311218
1539.18828369,0.02400732
1541.11709106,0.02525221
1543.04589844,0.03000869
1544.97470581,0.02881819
1546.90351318,0.03402761
1548.83232056,0.03170823
1550.76112793,0.03279938
1552.68993530,0.03265585
1554.61874268,0.02987552
1556.54755005,0.03173246
1558.47635742,0.02262741
1560.40516479,0.02490745
1562.33397217,0.03437724
1564.26277954,0.03248018
1566.19158691,0.03351864
1568.12039429,0.03306238
1570.04920166,0.02982669
1571.97800903,0.03396148
1573.90681641,0.03428675
1575.83562378,0.02744816
1577.76443115,0.03093613
1579.69323853,0.03502517
1581.62204590,0.03329058
1583.55085327,0.03428337
1585.47966064,0.03375823
1587.40846802,0.03386595
1589.33727539,0.03391803
1591.26608276,0.03381518
1593.19489014,0.03375208
1595.12369751,0.03351880
1597.05250488,0.03398144
1598.98131226,0.03371953
1600.91011963,0.03395754
1602.83892700,0.03331385
1604.76773437,0.03399760
1606.69654175,0.03370202
1608.62534912,0.03348432
1610.55415649,0.03357767
1612.48296387,0.03379399
1614.41177124,0.03402336
1616.34057861,0.02829025
1618.26938599,0.03067234
1620.19819336,0.03527961
1622.12700073,0.03154264
1624.05580811,0.03174005
1625.98461548,0.03323568
1627.91342285,0.03319458
1629.84223022,0.03297058
1631.77103760,0.03487260
1633.69984497,0.03218289
1635.62865234,0.02699492
1637.55745972,0.03137123
1639.48626709,0.03439638
1641.41507446,0.03354859
1643.34388184,0.03440570
1645.27268921,0.03117044
1647.20149658,0.02779669
1649.13030396,0.03428771
1651.05911133,0.03217592
1652.98791870,0.02143331
1654.91672607,0.02878771
1656.84553345,0.03532121
1658.77434082,0.03400339
1660.70314819,0.03491376
1662.63195557,0.03177314
1664.56076294,0.03353015
1666.48957031,0.03589903
1668.41837769,0.03155601
1670.34718506,0.03086891
1672.27599243,0.03482078
1674.20479980,0.03201232
1676.13360718,0.03089038
1678.06241455,0.03551522
1679.99122192,0.03418595
1681.92002930,0.03368006
1683.84883667,0.02769044
1685.77764404,0.02784262
1687.70645142,0.03718562
1689.63525879,0.03243349
1691.56406616,0.03590995
1693.49287354,0.03621466
1695.42168091,0.02681333
1697.35048828,0.03268483
1699.27929565,0.02887234
1701.20810303,0.02642211
1703.13691040,0.03539711
1705.06571777,0.03257838
1706.99452515,0.03278551
1708.92333252,0.03557574
1710.85213989,0.03418089
1712.78094727,0.03477821
1714.70975464,0.03245628
1716.63856201,0.02900907
1718.56736938,0.02892089
1720.49617676,0.03417565
1722.42498413,0.03507908
1724.35379150,0.03284964
1726.28259888,0.03561606
1728.21140625,0.03298331
1730.14021362,0.03329651
1732.06902100,0.03225329
1733.99782837,0.02503189
1735.92663574,0.03095490
1737.85544312,0.03395796
1739.78425049,0.03047083
1741.71305786,0.03296518
1743.64186523,0.03338600
1745.57067261,0.03357042
1747.49947998,0.03380253
1749.42828735,0.03249321
1751.35709473,0.03120413
1753.28590210,0.03456889
1755.21470947,0.03612605
1757.14351685,0.03294285
1759.07232422,0.03606665
1761.00113159,0.03393973
1762.92993896,0.03298403
1764.85874634,0.03739917
1766.78755371,0.03369257
1768.71636108,0.03431749
1770.64516846,0.03410494
1772.57397583,0.03076617
1774.50278320,0.03419361
1776.43159058,0.03603832
1778.36039795,0.03552876
1780.28920532,0.03503408
1782.21801270,0.03538425
1784.14682007,0.03545939
1786.07562744,0.03479318
1788.00443481,0.03652532
1789.93324219,0.03560957
1791.86204956,0.03227175
1793.79085693,0.03385874
1795.71966431,0.03628647
1797.64847168,0.03564639
1799.57727905,0.03510221
1801.50608643,0.03460201
1803.43489380,0.03589680
1805.36370117,0.03654539
1807.29250854,0.03607913
1809.22131592,0.03624975
1811.15012329,0.03524647
1813.07893066,0.03647727
1815.00773804,0.03662245
1816.93654541,0.03619480
1818.86535278,0.03649540
1820.79416016,0.03645265
1822.72296753,0.03691604
1824.65177490,0.03452340
1826.58058228,0.03588418
1828.50938965,0.03587613
1830.43819702,0.03392204
1832.36700439,0.03672276
1834.29581177,0.03631433
1836.22461914,0.03640241
1838.15342651,0.03619796
1840.08223389,0.03644671
1842.01104126,0.03651592
1843.93984863,0.03266972
1845.86865601,0.03485046
1847.79746338,0.03672411
1849.72627075,0.03597800
1851.65507812,0.03689865
1853.58388550,0.03632469
1855.51269287,0.03667438
1857.44150024,0.03636534
1859.37030762,0.03612436
1861.29911499,0.03646000
1863.22792236,0.03617238
1865.15672974,0.03637452
1867.08553711,0.03528809
1869.01434448,0.03401951
1870.94315186,0.03525318
1872.87195923,0.03663359
1874.80076660,0.03614105
1876.72957397,0.03629035
1878.65838135,0.03626671
1880.58718872,0.03611945
1882.51599609,0.03626535
1884.44480347,0.03575873
1886.37361084,0.03624362
1888.30241821,0.03541564
1890.23122559,0.03496143
1892.16003296,0.03614759
1894.08884033,0.03553459
1896.01764771,0.03536551
1897.94645508,0.03577942
1899.87526245,0.03577529
1901.80406982,0.03582633
1903.73287720,0.03566440
1905.66168457,0.03594503
1907.59049194,0.03554658
1909.51929932,0.03544959
1911.44810669,0.03567022
1913.37691406,0.03550876
1915.30572144,0.03587210
1917.23452881,0.03446267
1919.16333618,0.03449154
1921.09214355,0.03583264
1923.02095093,0.03474802
1924.94975830,0.03534381
1926.87856567,0.03575990
1928.80737305,0.03535363
1930.73618042,0.03557436
1932.66498779,0.03518592
1934.59379517,0.03578705
1936.52260254,0.03542273
1938.45140991,0.03539983
1940.38021729,0.03555904
1942.30902466,0.03455505
1944.23783203,0.03505154
1946.16663940,0.03544328
1948.09544678,0.03547593
1950.02425415,0.03549067
1951.95306152,0.03553749
1953.88186890,0.03562696
1955.81067627,0.03551888
1957.73948364,0.03563775
1959.66829102,0.03527714
1961.59709839,0.03548516
1963.52590576,0.03560092
1965.45471313,0.03534184
1967.38352051,0.03526799
1969.31232788,0.03532262
1971.24113525,0.03559460
1973.16994263,0.03528521
1975.09875000,0.03542947
1977.02755737,0.03539245
1978.95636475,0.03535504
1980.88517212,0.03558607
1982.81397949,0.03530014
1984.74278687,0.03551079
1986.67159424,0.03529902
1988.60040161,0.03520965
1990.52920898,0.03512862
1992.45801636,0.03467317
1994.38682373,0.03503375
1996.31563110,0.03517892
1998.24443848,0.03517404
2000.17324585,0.03509349
2002.10205322,0.03501914
2004.03086060,0.03510950
2005.95966797,0.03480440
2007.88847534,0.03479271
2009.81728271,0.03479075
2011.74609009,0.03464510
2013.67489746,0.03476443
2015.60370483,0.03460523
2017.53251221,0.03436849
2019.46131958,0.03449037
2021.39012695,0.03451869
2023.31893433,0.03435241
2025.24774170,0.03436758
2027.17654907,0.03434706
2029.10535645,0.03424093
2031.03416382,0.03428378
2032.96297119,0.03421774
2034.89177856,0.03414240
2036.82058594,0.03419461
2038.74939331,0.03417102
2040.67820068,0.03408704
2042.60700806,0.03391062
2044.53581543,0.03387783
2046.46462280,0.03389231
2048.39343018,0.03386918
2050.32223755,0.03389030
2052.25104492,0.03366471
2054.17985229,0.03369125
2056.10865967,0.03373042
2058.03746704,0.03345877
2059.96627441,0.03348055
2061.89508179,0.03350950
2063.82388916,0.03330952
2065.75269653,0.03316576
2067.68150391,0.03328170
2069.61031128,0.03333880
2071.53911865,0.03330588
2073.46792603,0.03336101
2075.39673340,0.03323537
2077.32554077,0.03312882
2079.25434814,0.03312217
2081.18315552,0.03313135
2083.11196289,0.03304999
2085.04077026,0.03298759
2086.96957764,0.03302006
2088.89838501,0.03290414
2090.82719238,0.03284288
2092.75599976,0.03283177
2094.68480713,0.03280140
2096.61361450,0.03278738
2098.54242187,0.03272302
2100.47122925,0.03264526
2102.40003662,0.03272227
2104.32884399,0.03264584
2106.25765137,0.03241982
2108.18645874,0.03263202
2110.11526611,0.03256217
2112.04407349,0.03238935
2113.97288086,0.03246402
2115.90168823,0.03230878
2117.83049561,0.03237369
2119.75930298,0.03226653
2121.68811035,0.03223798
2123.61691772,0.03245810
2125.54572510,0.03233600
2127.47453247,0.03221480
2129.40333984,0.03215209
2131.33214722,0.03222311
2133.26095459,0.03212749
2135.18976196,0.03209684
2137.11856934,0.03224280
2139.04737671,0.03215128
2140.97618408,0.03223199
2142.90499146,0.03214865
2144.83379883,0.03201601
2146.76260620,0.03200694
2148.69141357,0.03203373
2150.62022095,0.03205622
2152.54902832,0.03186882
2154.47783569,0.03201793
2156.40664307,0.03198625
2158.33545044,0.03184569
2160.26425781,0.03186971
2162.19306519,0.03172181
2164.12187256,0.03175867
2166.05067993,0.03169557
2167.97948730,0.03186201
2169.90829468,0.03197157
2171.83710205,0.03175682
2173.76590942,0.03174268
2175.69471680,0.03168128
2177.62352417,0.03169414
2179.55233154,0.03162760
2181.48113892,0.03168860
2183.40994629,0.03169622
2185.33875366,0.03149325
2187.26756104,0.03155902
2189.19636841,0.03159419
2191.12517578,0.03160848
2193.05398315,0.03146484
2194.98279053,0.03144478
2196.91159790,0.03150469
2198.84040527,0.03150230
2200.76921265,0.03162704
2202.69802002,0.03144408
2204.62682739,0.03135363
2206.55563477,0.03132543
2208.48444214,0.03136502
2210.41324951,0.03142659
2212.34205688,0.03138730
2214.27086426,0.03142485
2216.19967163,0.03121925
2218.12847900,0.03126173
2220.05728638,0.03124163
2221.98609375,0.03120530
2223.91490112,0.03132024
2225.84370850,0.03102191
2227.77251587,0.03100725
2229.70132324,0.03116683
2231.63013062,0.03115467
2233.55893799,0.03111281
2235.48774536,0.03101069
2237.41655273,0.03093111
2239.34536011,0.03096212
2241.27416748,0.03101471
2243.20297485,0.03094319
2245.13178223,0.03091143
2247.06058960,0.03083294
2248.98939697,0.03082253
2250.91820435,0.03080072
2252.84701172,0.03080566
2254.77581909,0.03083306
2256.70462646,0.03080533
2258.63343384,0.03082061
2260.56224121,0.03051208
2262.49104858,0.03061699
2264.41985596,0.03078986
2266.34866333,0.03053883
2268.27747070,0.03060077
2270.20627808,0.03059663
2272.13508545,0.03057596
2274.06389282,0.03048964
2275.99270020,0.03043663
2277.92150757,0.03052996
2279.85031494,0.03048368
2281.77912231,0.03041900
2283.70792969,0.03030330
2285.63673706,0.03044719
2287.56554443,0.03042335
2289.49435181,0.03019091
2291.42315918,0.03028116
2293.35196655,0.03024843
2295.28077393,0.03001588
2297.20958130,0.02993403
2299.13838867,0.03000550
2301.06719604,0.02985344
2302.99600342,0.02967900
2304.92481079,0.02970575
2306.85361816,0.02952095
2308.78242554,0.02922816
2310.71123291,0.02903314
2312.64004028,0.02877698
2314.56884766,0.02853843
2316.49765503,0.02820637
2318.42646240,0.02777379
2320.35526978,0.02757384
2322.28407715,0.02720299
2324.21288452,0.02674928
2326.14169189,0.02649798
2328.07049927,0.02622850
2329.99930664,0.02599157
2331.92811401,0.02573030
2333.85692139,0.02567376
2335.78572876,0.02562402
2337.71453613,0.02548986
2339.64334351,0.02552589
2341.57215088,0.02573143
2343.50095825,0.02605512
2345.42976562,0.02647468
2347.35857300,0.02768674
2349.28738037,0.02850718
2351.21618774,0.02753938
2353.14499512,0.02621336
2355.07380249,0.02527031
2357.00260986,0.02447090
2358.93141724,0.02407096
2360.86022461,0.02388268
2362.78903198,0.02376507
2364.71783936,0.02403490
2366.64664673,0.02442878
2368.57545410,0.02481371
2370.50426147,0.02536473
2372.43306885,0.02605166
2374.36187622,0.02685411
2376.29068359,0.02756072
2378.21949097,0.02812709
2380.14829834,0.02854340
2382.07710571,0.02897280
2384.00591309,0.02910585
2385.93472046,0.02909855
2387.86352783,0.02933681
2389.79233521,0.02917995
2391.72114258,0.02915892
2393.64994995,0.02924974
2395.57875732,0.02908373
2397.50756470,0.02908284
2399.43637207,0.02907770
2401.36517944,0.02911722
2403.29398682,0.02906495
2405.22279419,0.02902048
2407.15160156,0.02904454
2409.08040894,0.02901357
2411.00921631,0.02895281
2412.93802368,0.02890761
2414.86683105,0.02891798
2416.79563843,0.02884414
2418.72444580,0.02895891
2420.65325317,0.02890488
2422.58206055,0.02874198
2424.51086792,0.02873982
2426.43967529,0.02862218
2428.36848267,0.02864979
2430.29729004,0.02876436
2432.22609741,0.02881633
2434.15490479,0.02862585
2436.08371216,0.02856022
2438.01251953,0.02865051
2439.94132690,0.02855298
2441.87013428,0.02863927
2443.79894165,0.02872367
2445.72774902,0.02861826
2447.65655640,0.02845295
2449.58536377,0.02848853
2451.51417114,0.02846985
2453.44297852,0.02843159
2455.37178589,0.02852394
2457.30059326,0.02841416
2459.22940063,0.02846385
2461.15820801,0.02838529
2463.08701538,0.02833098
2465.01582275,0.02832362
2466.94463013,0.02817950
2468.87343750,0.02831564
2470.80224487,0.02826640
2472.73105225,0.02824673
2474.65985962,0.02821396
2476.58866699,0.02816106
2478.51747437,0.02819068
2480.44628174,0.02809993
2482.37508911,0.02826501
2484.30389648,0.02819729
2486.23270386,0.02810836
2488.16151123,0.02807203
2490.09031860,0.02790124
2492.01912598,0.02808009
2493.94793335,0.02808281
2495.87674072,0.02799810
2497.80554810,0.02801529
2499.73435547,0.02790711
2501.66316284,0.02791001
2503.59197021,0.02794309
2505.52077759,0.02794246
2507.44958496,0.02786387
2509.37839233,0.02781140
2511.30719971,0.02782378
2513.23600708,0.02770502
2515.16481445,0.02774656
2517.09362183,0.02774107
2519.02242920,0.02755816
2520.95123657,0.02766563
2522.88004395,0.02762876
2524.80885132,0.02752754
2526.73765869,0.02761818
2528.66646606,0.02756070
2530.59527344,0.02759400
2532.52408081,0.02758016
2534.45288818,0.02752610
2536.38169556,0.02754341
2538.31050293,0.02742448
2540.23931030,0.02740225
2542.16811768,0.02740388
2544.09692505,0.02731404
2546.02573242,0.02740948
2547.95453979,0.02748698
2549.88334717,0.02733066
2551.81215454,0.02731359
2553.74096191,0.02730361
2555.66976929,0.02731152
2557.59857666,0.02736530
2559.52738403,0.02721660
2561.45619141,0.02724312
2563.38499878,0.02717431
2565.31380615,0.02712193
2567.24261353,0.02723201
2569.17142090,0.02709297
2571.10022827,0.02707999
2573.02903564,0.02705649
2574.95784302,0.02697118
2576.88665039,0.02695164
2578.81545776,0.02694557
2580.74426514,0.02699116
2582.67307251,0.02692089
2584.60187988,0.02685130
2586.53068726,0.02678780
2588.45949463,0.02684068
2590.38830200,0.02681863
2592.31710937,0.02676743
2594.24591675,0.02695871
2596.17472412,0.02678178
2598.10353149,0.02657092
2600.03233887,0.02670933
2601.96114624,0.02671756
2603.88995361,0.02665284
2605.81876099,0.02657860
2607.74756836,0.02659335
2609.67637573,0.02666055
2611.60518311,0.02652101
2613.53399048,0.02645944
2615.46279785,0.02653521
2617.39160522,0.02651930
2619.32041260,0.02648046
2621.24921997,0.02647024
2623.17802734,0.02652558
2625.10683472,0.02645538
2627.03564209,0.02629509
2628.96444946,0.02629796
2630.89325684,0.02625297
2632.82206421,0.02622630
2634.75087158,0.02628883
2636.67967895,0.02620750
2638.60848633,0.02617116
2640.53729370,0.02624941
2642.46610107,0.02621162
2644.39490845,0.02619091
2646.32371582,0.02617809
2648.25252319,0.02609003
2650.18133057,0.02610718
2652.11013794,0.02606861
2654.03894531,0.02601278
2655.96775269,0.02601411
2657.89656006,0.02600803
2659.82536743,0.02603090
2661.75417480,0.02592488
2663.68298218,0.02592297
2665.61178955,0.02594236
2667.54059692,0.02581118
2669.46940430,0.02579864
2671.39821167,0.02583833
2673.32701904,0.02588356
2675.25582642,0.02576315
2677.18463379,0.02564460
2679.11344116,0.02573474
2681.04224854,0.02569567
2682.97105591,0.02563451
2684.89986328,0.02559961
2686.82867065,0.02558727
2688.75747803,0.02566721
2690.68628540,0.02565417
2692.61509277,0.02557208
2694.54390015,0.02546649
2696.47270752,0.02548993
2698.40151489,0.02547864
2700.33032227,0.02538460
2702.25912964,0.02549889
2704.18793701,0.02538709
2706.11674438,0.02525872
2708.04555176,0.02533696
2709.97435913,0.02529728
2711.90316650,0.02537885
2713.83197388,0.02532528
2715.76078125,0.02522714
2717.68958862,0.02525609
2719.61839600,0.02515684
2721.54720337,0.02512199
2723.47601074,0.02512529
2725.40481812,0.02508676
2727.33362549,0.02499216
2729.26243286,0.02507452
2731.19124023,0.02514680
2733.12004761,0.02500514
2735.04885498,0.02492712
2736.97766235,0.02482047
2738.90646973,0.02493175
2740.83527710,0.02495371
2742.76408447,0.02483461
2744.69289185,0.02489053
2746.62169922,0.02484211
2748.55050659,0.02490880
2750.47931396,0.02481914
2752.40812134,0.02466534
2754.33692871,0.02467690
2756.26573608,0.02460075
2758.19454346,0.02460497
2760.12335083,0.02455847
2762.05215820,0.02455458
2763.98096558,0.02455246
2765.90977295,0.02451437
2767.83858032,0.02449455
2769.76738770,0.02443662
2771.69619507,0.02449580
2773.62500244,0.02441113
2775.55380981,0.02436067
2777.48261719,0.02435251
2779.41142456,0.02420431
2781.34023193,0.02421483
2783.26903931,0.02425084
2785.19784668,0.02425774
2787.12665405,0.02420511
2789.05546143,0.02415351
2790.98426880,0.02417564
2792.91307617,0.02408295
2794.84188354,0.02400949
2796.77069092,0.02404132
2798.69949829,0.02409627
2800.62830566,0.02392864
2802.55711304,0.02371012
2804.48592041,0.02381992
2806.41472778,0.02387147
2808.34353516,0.02382407
2810.27234253,0.02370643
2812.20114990,0.02361668
2814.12995728,0.02378886
2816.05876465,0.02359993
2817.98757202,0.02345162
2819.91637939,0.02364521
2821.84518677,0.02357035
2823.77399414,0.02345709
2825.70280151,0.02336615
2827.63160889,0.02346357
2829.56041626,0.02352876
2831.48922363,0.02340733
2833.41803101,0.02337444
2835.34683838,0.02324001
2837.27564575,0.02334166
2839.20445312,0.02329006
2841.13326050,0.02313645
2843.06206787,0.02320426
2844.99087524,0.02294728
2846.91968262,0.02284377
2848.84848999,0.02284645
2850.77729736,0.02279981
2852.70610474,0.02279527
2854.63491211,0.02268825
2856.56371948,0.02268066
2858.49252686,0.02259208
2860.42133423,0.02257103
2862.35014160,0.02256940
2864.27894897,0.02255216
2866.20775635,0.02262120
2868.13656372,0.02253072
2870.06537109,0.02249350
2871.99417847,0.02248052
2873.92298584,0.02243735
2875.85179321,0.02244632
2877.78060059,0.02238924
2879.70940796,0.02227772
2881.63821533,0.02228002
2883.56702270,0.02235413
2885.49583008,0.02231618
2887.42463745,0.02230015
2889.35344482,0.02225382
2891.28225220,0.02219778
2893.21105957,0.02221497
2895.13986694,0.02217441
2897.06867432,0.02202221
2898.99748169,0.02192739
2900.92628906,0.02201598
2902.85509644,0.02197517
2904.78390381,0.02191517
2906.71271118,0.02184323
2908.64151855,0.02165683
2910.57032593,0.02164818
2912.49913330,0.02160579
2914.42794067,0.02144732
2916.35674805,0.02140637
2918.28555542,0.02140395
2920.21436279,0.02132560
2922.14317017,0.02142326
2924.07197754,0.02139354
2926.00078491,0.02114600
2927.92959229,0.02128322
2929.85839966,0.02133219
2931.78720703,0.02122873
2933.71601440,0.02127634
2935.64482178,0.02132939
2937.57362915,0.02136743
2939.50243652,0.02125118
2941.43124390,0.02119404
2943.36005127,0.02113513
2945.28885864,0.02115130
2947.21766602,0.02120712
2949.14647339,0.02117831
2951.07528076,0.02122296
2953.00408813,0.02104256
2954.93289551,0.02097583
2956.86170288,0.02102670
2958.79051025,0.02096699
2960.71931763,0.02090357
2962.64812500,0.02081947
2964.57693237,0.02088669
2966.50573975,0.02086016
2968.43454712,0.02086429
2970.36335449,0.02085596
2972.29216187,0.02081937
2974.22096924,0.02087151
2976.14977661,0.02085249
2978.07858398,0.02096244
2980.00739136,0.02085638
2981.93619873,0.02087269
2983.86500610,0.02097689
2985.79381348,0.02076122
2987.72262085,0.02083765
2989.65142822,0.02086959
2991.58023560,0.02077965
2993.50904297,0.02075265
2995.43785034,0.02070274
2997.36665771,0.02073877
2999.29546509,0.02068962
3001.22427246,0.02059404
3003.15307983,0.02056326
3005.08188721,0.02062301
3007.01069458,0.02054176
3008.93950195,0.02051017
3010.86830933,0.02050907
3012.79711670,0.02043365
3014.72592407,0.02053016
3016.65473145,0.02035549
3018.58353882,0.02036572
3020.51234619,0.02053008
3022.44115356,0.02036196
3024.36996094,0.02037232
3026.29876831,0.02027840
3028.22757568,0.02017275
3030.15638306,0.02019632
3032.08519043,0.02007732
3034.01399780,0.02005722
3035.94280518,0.02008601
3037.87161255,0.02002512
3039.80041992,0.01991086
3041.72922729,0.01993754
3043.65803467,0.02001435
3045.58684204,0.01993509
3047.51564941,0.01985053
3049.44445679,0.01983060
3051.37326416,0.01988986
3053.30207153,0.01986399
3055.23087891,0.01973421
3057.15968628,0.01974303
3059.08849365,0.01974576
3061.01730103,0.01974981
3062.94610840,0.01978209
3064.87491577,0.01959328
3066.80372314,0.01953992
3068.73253052,0.01960274
3070.66133789,0.01949812
3072.59014526,0.01947773
3074.51895264,0.01941635
3076.44776001,0.01937582
3078.37656738,0.01936801
3080.30537476,0.01927300
3082.23418213,0.01927999
3084.16298950,0.01932917
3086.09179687,0.01933719
3088.02060425,0.01926290
3089.94941162,0.01926472
3091.87821899,0.01931516
3093.80702637,0.01920528
3095.73583374,0.01901679
3097.66464111,0.01902081
3099.59344849,0.01912106
3101.52225586,0.01894895
3103.45106323,0.01894370
3105.37987061,0.01902227
3107.30867798,0.01884731
3109.23748535,0.01873639
3111.16629272,0.01873378
3113.09510010,0.01880550
3115.02390747,0.01872088
3116.95271484,0.01866213
3118.88152222,0.01872548
3120.81032959,0.01870383
3122.73913696,0.01867029
3124.66794434,0.01854849
3126.59675171,0.01842829
3128.52555908,0.01842544
3130.45436645,0.01852753
3132.38317383,0.01838037
3134.31198120,0.01829826
3136.24078857,0.01841353
3138.16959595,0.01821622
3140.09840332,0.01822899
3142.02721069,0.01823320
3143.95601807,0.01811662
3145.88482544,0.01817701
3147.81363281,0.01808334
3149.74244019,0.01800402
3151.67124756,0.01791928
3153.60005493,0.01789960
3155.52886230,0.01792865
3157.45766968,0.01787726
3159.38647705,0.01788072
3161.31528442,0.01789723
3163.24409180,0.01783832
3165.17289917,0.01763935
3167.10170654,0.01757260
3169.03051392,0.01764249
3170.95932129,0.01762708
3172.88812866,0.01752018
3174.81693604,0.01743422
3176.74574341,0.01743753
3178.67455078,0.01744204
3180.60335815,0.01739758
3182.53216553,0.01734443
3184.46097290,0.01731445
3186.38978027,0.01723535
3188.31858765,0.01733782
3190.24739502,0.01727688
3192.17620239,0.01709166
3194.10500977,0.01720941
3196.03381714,0.01708289
3197.96262451,0.01694128
3199.89143188,0.01697712
3201.82023926,0.01708558
3203.74904663,0.01700645
3205.67785400,0.01682541
3207.60666138,0.01691903
3209.53546875,0.01679238
3211.46427612,0.01689263
3213.39308350,0.01685504
3215.32189087,0.01661843
3217.25069824,0.01678936
3219.17950562,0.01673074
3221.10831299,0.01672689
3223.03712036,0.01664668
3224.96592773,0.01658640
3226.89473511,0.01670332
3228.82354248,0.01666857
3230.75234985,0.01663648
3232.68115723,0.01652949
3234.60996460,0.01658232
3236.53877197,0.01643989
3238.46757935,0.01637162
3240.39638672,0.01647098
3242.32519409,0.01635361
3244.25400146,0.01639143
3246.18280884,0.01630551
3248.11161621,0.01633275
3250.04042358,0.01637103
3251.96923096,0.01633083
3253.89803833,0.01635191
3255.82684570,0.01624578
3257.75565308,0.01630586
3259.68446045,0.01627083
3261.61326782,0.01624305
3263.54207520,0.01620158
3265.47088257,0.01618003
3267.39968994,0.01622507
3269.32849731,0.01612363
3271.25730469,0.01622234
3273.18611206,0.01611219
3275.11491943,0.01607857
3277.04372681,0.01621784
3278.97253418,0.01609224
3280.90134155,0.01615098
3282.83014893,0.01610672
3284.75895630,0.01603179
3286.68776367,0.01613105
3288.61657104,0.01608214
3290.54537842,0.01605629
3292.47418579,0.01602933
3294.40299316,0.01591749
3296.33180054,0.01595682
3298.26060791,0.01599616
3300.18941528,0.01592169
3302.11822266,0.01602124
3304.04703003,0.01596013
3305.97583740,0.01579822
3307.90464478,0.01589547
3309.83345215,0.01587583
3311.76225952,0.01580805
3313.69106689,0.01578918
3315.61987427,0.01579760
3317.54868164,0.01584192
3319.47748901,0.01579942
3321.40629639,0.01581202
3323.33510376,0.01580655
3325.26391113,0.01570941
3327.19271851,0.01561166
3329.12152588,0.01566857
3331.05033325,0.01572363
3332.97914062,0.01558229
3334.90794800,0.01561929
3336.83675537,0.01566082
3338.76556274,0.01553252
3340.69437012,0.01553889
3342.62317749,0.01555452
3344.55198486,0.01548198
3346.48079224,0.01549849
3348.40959961,0.01551755
3350.33840698,0.01539036
3352.26721436,0.01538220
3354.19602173,0.01537203
3356.12482910,0.01527550
3358.05363647,0.01525176
3359.98244385,0.01519658
3361.91125122,0.01529577
3363.84005859,0.01530217
3365.76886597,0.01520516
3367.69767334,0.01522991
3369.62648071,0.01522239
3371.55528809,0.01521671
3373.48409546,0.01511938
3375.41290283,0.01512876
3377.34171020,0.01511474
3379.27051758,0.01504796
3381.19932495,0.01510345
3383.12813232,0.01504409
3385.05693970,0.01496894
3386.98574707,0.01489404
3388.91455444,0.01493533
3390.84336182,0.01484428
3392.77216919,0.01471148
3394.70097656,0.01486243
3396.62978394,0.01485143
3398.55859131,0.01477592
3400.48739868,0.01474461
3402.41620605,0.01477301
3404.34501343,0.01476841
3406.27382080,0.01468087
3408.20262817,0.01471663
3410.13143555,0.01477826
3412.06024292,0.01474478
3413.98905029,0.01461015
3415.91785767,0.01462642
3417.84666504,0.01457466
3419.77547241,0.01450548
3421.70427979,0.01449256
3423.63308716,0.01442157
3425.56189453,0.01457251
3427.49070190,0.01452363
3429.41950928,0.01437805
3431.34831665,0.01440891
3433.27712402,0.01443353
3435.20593140,0.01434734
3437.13473877,0.01424759
3439.06354614,0.01432836
3440.99235352,0.01430054
3442.92116089,0.01426564
3444.84996826,0.01423101
3446.77877563,0.01415658
3448.70758301,0.01412662
3450.63639038,0.01413030
3452.56519775,0.01413950
3454.49400513,0.01416428
3456.42281250,0.01425401
3458.35161987,0.01408497
3460.28042725,0.01410182
3462.20923462,0.01419033
3464.13804199,0.01411301
3466.06684937,0.01411785
3467.99565674,0.01403181
3469.92446411,0.01411046
3471.85327148,0.01404495
3473.78207886,0.01398836
3475.71088623,0.01399823
3477.63969360,0.01398371
3479.56850098,0.01407230
3481.49730835,0.01393094
3483.42611572,0.01393022
3485.35492310,0.01393717
3487.28373047,0.01394000
3489.21253784,0.01388393
3491.14134521,0.01384742
3493.07015259,0.01395210
3494.99895996,0.01383507
3496.92776733,0.01387511
3498.85657471,0.01392557
3500.78538208,0.01392954
3502.71418945,0.01367663
3504.64299683,0.01363672
3506.57180420,0.01391036
3508.50061157,0.01364524
3510.42941895,0.01368398
3512.35822632,0.01384899
3514.28703369,0.01388979
3516.21584106,0.01387921
3518.14464844,0.01373775
3520.07345581,0.01389216
3522.00226318,0.01376226
3523.93107056,0.01354086
3525.85987793,0.01358586
3527.78868530,0.01357844
3529.71749268,0.01354313
3531.64630005,0.01369589
3533.57510742,0.01381426
3535.50391479,0.01369849
3537.43272217,0.01364495
3539.36152954,0.01371878
3541.29033691,0.01382057
3543.21914429,0.01366133
3545.14795166,0.01332253
3547.07675903,0.01325165
3549.00556641,0.01370178
3550.93437378,0.01373348
3552.86318115,0.01343269
3554.79198853,0.01370690
3556.72079590,0.01375448
3558.64960327,0.01377002
3560.57841064,0.01354613
3562.50721802,0.01348173
3564.43602539,0.01370623
3566.36483276,0.01272292
3568.29364014,0.01241693
3570.22244751,0.01347664
3572.15125488,0.01375317
3574.08006226,0.01347874
3576.00886963,0.01368548
3577.93767700,0.01370064
3579.86648437,0.01353778
3581.79529175,0.01355004
3583.72409912,0.01358289
3585.65290649,0.01334004
3587.58171387,0.01239424
3589.51052124,0.01273594
3591.43932861,0.01362644
3593.36813599,0.01326380
3595.29694336,0.01307441
3597.22575073,0.01326769
3599.15455811,0.01341094
3601.08336548,0.01319450
3603.01217285,0.01335714
3604.94098022,0.01363445
3606.86978760,0.01312674
3608.79859497,0.01242142
3610.72740234,0.01273849
3612.65620972,0.01304905
3614.58501709,0.01268993
3616.51382446,0.01352642
3618.44263184,0.01248038
3620.37143921,0.01215908
3622.30024658,0.01362863
3624.22905395,0.01323679
3626.15786133,0.01385483
3628.08666870,0.01173969
3630.01547607,0.01081803
3631.94428345,0.01345800
3633.87309082,0.01310919
3635.80189819,0.01339672
3637.73070557,0.01359274
3639.65951294,0.01342894
3641.58832031,0.01356657
3643.51712769,0.01336763
3645.44593506,0.01352055
3647.37474243,0.01212177
3649.30354980,0.01118257
3651.23235718,0.01146630
3653.16116455,0.01344092
3655.08997192,0.01329096
3657.01877930,0.01203360
3658.94758667,0.01367466
3660.87639404,0.01335556
3662.80520142,0.01343094
3664.73400879,0.01340116
3666.66281616,0.01334853
3668.59162354,0.01295606
3670.52043091,0.01064756
3672.44923828,0.01281083
3674.37804565,0.01225127
3676.30685303,0.01021323
3678.23566040,0.01276841
3680.16446777,0.01295488
3682.09327515,0.01293544
3684.02208252,0.01339119
3685.95088989,0.01311908
3687.87969727,0.01192399
3689.80850464,0.01101617
3691.73731201,0.01240690
3693.66611938,0.01273351
3695.59492676,0.01307017
3697.52373413,0.01307803
3699.45254150,0.01296684
3701.38134888,0.01266181
3703.31015625,0.01218869
3705.23896362,0.01335598
3707.16777100,0.01265483
3709.09657837,0.01244509
3711.02538574,0.01173678
3712.95419312,0.01099988
3714.88300049,0.01289521
3716.81180786,0.01262679
3718.74061523,0.01275236
3720.66942261,0.01246548
3722.59822998,0.01206120
3724.52703735,0.01250758
3726.45584473,0.01162337
3728.38465210,0.01261121
3730.31345947,0.01237329
3732.24226685,0.01143786
3734.17107422,0.01116693
3736.09988159,0.01067324
3738.02868896,0.01132560
3739.95749634,0.01218355
3741.88630371,0.01274952
3743.81511108,0.00986744
3745.74391846,0.00936337
3747.67272583,0.01210844
3749.60153320,0.01050078
3751.53034058,0.00973465
3753.45914795,0.01103411
3755.38795532,0.01191458
3757.31676270,0.01240508
3759.24557007,0.01145335
3761.17437744,0.01183011
3763.10318481,0.01257727
3765.03199219,0.01173540
3766.96079956,0.01201493
3768.88960693,0.01189811
3770.81841431,0.01127149
3772.74722168,0.01226002
3774.67602905,0.01226113
3776.60483643,0.01224814
3778.53364380,0.01199302
3780.46245117,0.01152525
3782.39125854,0.01228819
3784.32006592,0.01191049
3786.24887329,0.01183215
3788.17768066,0.01218143
3790.10648804,0.01207164
3792.03529541,0.01198700
3793.96410278,0.01211245
3795.89291016,0.01134851
3797.82171753,0.01132256
3799.75052490,0.01190793
3801.67933228,0.00956461
3803.60813965,0.01118814
3805.53694702,0.01197315
3807.46575439,0.00988958
3809.39456177,0.01187327
3811.32336914,0.01160230
3813.25217651,0.01207882
3815.18098389,0.01090698
3817.10979126,0.00965571
3819.03859863,0.01206711
3820.96740601,0.00982245
3822.89621338,0.01034742
3824.82502075,0.01192350
3826.75382812,0.01084397
3828.68263550,0.01174698
3830.61144287,0.01126111
3832.54025024,0.01084645
3834.46905762,0.01110247
3836.39786499,0.01054709
3838.32667236,0.00960466
3840.25547974,0.01039613
3842.18428711,0.01116668
3844.11309448,0.01066278
3846.04190186,0.01145866
3847.97070923,0.01133770
3849.89951660,0.01131558
3851.82832397,0.01017444
3853.75713135,0.00769660
3855.68593872,0.00911229
3857.61474609,0.01132429
3859.54355347,0.01091666
3861.47236084,0.01089677
3863.40116821,0.01067988
3865.32997559,0.00997160
3867.25878296,0.01111765
3869.18759033,0.01009570
3871.11639770,0.00943125
3873.04520508,0.01107887
3874.97401245,0.01020953
3876.90281982,0.01103203
3878.83162720,0.01117974
3880.76043457,0.00965895
3882.68924194,0.01106314
3884.61804932,0.01033638
3886.54685669,0.00946844
3888.47566406,0.01106433
3890.40447144,0.01055445
3892.33327881,0.00992267
3894.26208618,0.01079470
3896.19089355,0.01096880
3898.11970093,0.01046790
3900.04850830,0.00992961
3901.97731567,0.00983767
3903.90612305,0.00966747
3905.83493042,0.00984413
3907.76373779,0.01076410
3909.69254517,0.01072967
3911.62135254,0.01064673
3913.55015991,0.01079065
3915.47896728,0.01043548
3917.40777466,0.01012977
3919.33658203,0.01011854
3921.26538940,0.01045953
3923.19419678,0.01033923
3925.12300415,0.01027557
3927.05181152,0.01044616
3928.98061890,0.01053840
3930.90942627,0.01029608
3932.83823364,0.00992382
3934.76704102,0.01041098
3936.69584839,0.01040097
3938.62465576,0.01033928
3940.55346313,0.01053465
3942.48227051,0.01009013
3944.41107788,0.01017637
3946.33988525,0.01031863
3948.26869263,0.01006798
3950.19750000,0.01004562
3952.12630737,0.01018243
3954.05511475,0.01025661
3955.98392212,0.01015625
3957.91272949,0.01008383
3959.84153687,0.01015015
3961.77034424,0.01009529
3963.69915161,0.01006049
3965.62795898,0.01016727
3967.55676636,0.01014592
3969.48557373,0.01009673
3971.41438110,0.00998505
3973.34318848,0.01007235
3975.27199585,0.01010096
3977.20080322,0.01002982
3979.12961060,0.01008833
3981.05841797,0.00993656
3982.98722534,0.00997376
3984.91603271,0.00988117
3986.84484009,0.00992292
3988.77364746,0.00997833
3990.70245483,0.00975353
3992.63126221,0.00983200
3994.56006958,0.00975202
3996.48887695,0.00984323
3998.41768433,0.00977185
4000.34649170,0.00970036
4002.27529907,0.00983823
4004.20410645,0.00968268
4006.13291382,0.00984484
4008.06172119,0.00975587
4009.99052856,0.00965972
4011.91933594,0.00972110
4013.84814331,0.00965846
4015.77695068,0.00973060
4017.70575806,0.00957541
4019.63456543,0.00956120
4021.56337280,0.00960509
4023.49218018,0.00953752
4025.42098755,0.00956962
4027.34979492,0.00960384
4029.27860229,0.00951880
4031.20740967,0.00952142
4033.13621704,0.00957946
4035.06502441,0.00945623
4036.99383179,0.00949400
4038.92263916,0.00938680
4040.85144653,0.00936203
4042.78025391,0.00944768
4044.70906128,0.00928560
4046.63786865,0.00935386
4048.56667603,0.00934306
4050.49548340,0.00924910
4052.42429077,0.00924690
4054.35309814,0.00923516
4056.28190552,0.00927650
4058.21071289,0.00924549
4060.13952026,0.00922131
4062.06832764,0.00925313
4063.99713501,0.00921212
4065.92594238,0.00907244
4067.85474976,0.00908445
4069.78355713,0.00915772
4071.71236450,0.00911658
4073.64117187,0.00905720
4075.56997925,0.00908316
4077.49878662,0.00908598
4079.42759399,0.00892260
4081.35640137,0.00895949
4083.28520874,0.00906002
4085.21401611,0.00897667
4087.14282349,0.00894155
4089.07163086,0.00890963
4091.00043823,0.00884613
4092.92924561,0.00884526
4094.85805298,0.00885509
4096.78686035,0.00881735
4098.71566772,0.00883216
4100.64447510,0.00879041
4102.57328247,0.00873733
4104.50208984,0.00881592
4106.43089722,0.00877030
4108.35970459,0.00873114
4110.28851196,0.00876637
4112.21731934,0.00860643
4114.14612671,0.00857462
4116.07493408,0.00863709
4118.00374145,0.00864030
4119.93254883,0.00870619
4121.86135620,0.00855310
4123.79016357,0.00858283
4125.71897095,0.00862421
4127.64777832,0.00848607
4129.57658569,0.00858126
4131.50539307,0.00851664
4133.43420044,0.00852752
4135.36300781,0.00848438
4137.29181519,0.00844228
4139.22062256,0.00848135
4141.14942993,0.00831695
4143.07823730,0.00843731
4145.00704468,0.00840561
4146.93585205,0.00840991
4148.86465942,0.00844454
4150.79346680,0.00829917
4152.72227417,0.00836911
4154.65108154,0.00828853
4156.57988892,0.00830666
4158.50869629,0.00829802
4160.43750366,0.00826386
4162.36631103,0.00824181
4164.29511841,0.00815153
4166.22392578,0.00822713
4168.15273315,0.00814815
4170.08154053,0.00815673
4172.01034790,0.00817350
4173.93915527,0.00817574
4175.86796265,0.00813231
4177.79677002,0.00806944
4179.72557739,0.00816256
4181.65438477,0.00803897
4183.58319214,0.00808635
4185.51199951,0.00805741
4187.44080688,0.00794219
4189.36961426,0.00803145
4191.29842163,0.00793651
4193.22722900,0.00791186
4195.15603638,0.00788151
4197.08484375,0.00788824
4199.01365112,0.00795157
4200.94245850,0.00783521
4202.87126587,0.00783427
4204.80007324,0.00790473
4206.72888062,0.00783444
4208.65768799,0.00783545
4210.58649536,0.00786272
4212.51530273,0.00778752
4214.44411011,0.00776062
4216.37291748,0.00767972
4218.30172485,0.00771290
4220.23053223,0.00781596
4222.15933960,0.00776107
4224.08814697,0.00773214
4226.01695435,0.00772403
4227.94576172,0.00769670
4229.87456909,0.00757023
4231.80337646,0.00755702
4233.73218384,0.00767627
4235.66099121,0.00762054
4237.58979858,0.00752162
4239.51860596,0.00753953
4241.44741333,0.00755862
4243.37622070,0.00752976
4245.30502808,0.00752838
4247.23383545,0.00743557
4249.16264282,0.00745479
4251.09145020,0.00750848
4253.02025757,0.00749017
4254.94906494,0.00757437
4256.87787231,0.00746187
4258.80667969,0.00739021
4260.73548706,0.00738001
4262.66429443,0.00731710
4264.59310181,0.00735234
4266.52190918,0.00731057
4268.45071655,0.00732233
4270.37952393,0.00731284
4272.30833130,0.00729087
4274.23713867,0.00730912
4276.16594604,0.00721143
4278.09475342,0.00718260
4280.02356079,0.00720730
4281.95236816,0.00722286
4283.88117554,0.00725024
4285.80998291,0.00723456
4287.73879028,0.00723972
4289.66759766,0.00716879
4291.59640503,0.00715928
4293.52521240,0.00722336
4295.45401978,0.00708096
4297.38282715,0.00705300
4299.31163452,0.00703933
4301.24044189,0.00702674
4303.16924927,0.00711211
4305.09805664,0.00700470
4307.02686401,0.00701829
4308.95567139,0.00696843
4310.88447876,0.00692221
4312.81328613,0.00698912
4314.74209351,0.00693353
4316.67090088,0.00694869
4318.59970825,0.00690464
4320.52851562,0.00691382
4322.45732300,0.00685094
4324.38613037,0.00685226
4326.31493774,0.00693340
4328.24374512,0.00683680
4330.17255249,0.00686499
4332.10135986,0.00682850
4334.03016724,0.00677665
4335.95897461,0.00674570
4337.88778198,0.00680588
4339.81658936,0.00677954
4341.74539673,0.00665720
4343.67420410,0.00676082
4345.60301147,0.00665214
4347.53181885,0.00663233
4349.46062622,0.00665777
4351.38943359,0.00666531
4353.31824097,0.00670465
4355.24704834,0.00657038
4357.17585571,0.00663796
4359.10466309,0.00655591
4361.03347046,0.00649992
4362.96227783,0.00652907
4364.89108520,0.00643784
4366.81989258,0.00652589
4368.74869995,0.00657117
4370.67750732,0.00655241
4372.60631470,0.00652722
4374.53512207,0.00650582
4376.46392944,0.00645444
4378.39273682,0.00644612
4380.32154419,0.00641291
4382.25035156,0.00639500
4384.17915894,0.00644966
4386.10796631,0.00636772
4388.03677368,0.00638351
4389.96558105,0.00639103
4391.89438843,0.00639956
4393.82319580,0.00636715
4395.75200317,0.00631171
4397.68081055,0.00631114
4399.60961792,0.00621041
4401.53842529,0.00626396
4403.46723267,0.00621114
4405.39604004,0.00619166
4407.32484741,0.00617980
4409.25365478,0.00609022
4411.18246216,0.00621299
4413.11126953,0.00617030
4415.04007690,0.00613420
4416.96888428,0.00611629
4418.89769165,0.00608680
4420.82649902,0.00612292
4422.75530640,0.00610185
4424.68411377,0.00610540
4426.61292114,0.00609319
4428.54172852,0.00606952
4430.47053589,0.00599108
4432.39934326,0.00606194
4434.32815063,0.00606409
4436.25695801,0.00597604
4438.18576538,0.00597509
4440.11457275,0.00593948
4442.04338013,0.00602429
4443.97218750,0.00597346
4445.90099487,0.00594450
4447.82980225,0.00590687
4449.75860962,0.00582321
4451.68741699,0.00592375
4453.61622437,0.00591342
4455.54503174,0.00586455
4457.47383911,0.00581038
4459.40264648,0.00587101
4461.33145386,0.00584299
4463.26026123,0.00574831
4465.18906860,0.00582123
4467.11787598,0.00570039
4469.04668335,0.00566133
4470.97549072,0.00572944
4472.90429810,0.00572578
4474.83310547,0.00571118
4476.76191284,0.00570585
4478.69072021,0.00571564
4480.61952759,0.00569722
4482.54833496,0.00576079
4484.47714233,0.00564961
4486.40594971,0.00557338
4488.33475708,0.00571477
4490.26356445,0.00569392
4492.19237183,0.00561069
4494.12117920,0.00560911
4496.04998657,0.00561047
4497.97879395,0.00554603
4499.90760132,0.00552757
4501.83640869,0.00555236
4503.76521606,0.00552788
4505.69402344,0.00550806
4507.62283081,0.00551658
4509.55163818,0.00550515
4511.48044556,0.00547256
4513.40925293,0.00549411
4515.33806030,0.00546077
4517.26686768,0.00543542
4519.19567505,0.00544802
4521.12448242,0.00543397
4523.05328979,0.00538678
4524.98209717,0.00531922
4526.91090454,0.00539910
4528.83971191,0.00535692
4530.76851929,0.00532415
4532.69732666,0.00543608
4534.62613403,0.00533178
4536.55494141,0.00534196
4538.48374878,0.00534255
4540.41255615,0.00523084
4542.34136353,0.00536203
4544.27017090,0.00531706
4546.19897827,0.00518145
4548.12778564,0.00527370
4550.05659302,0.00524995
4551.98540039,0.00519723
4553.91420776,0.00523005
4555.84301514,0.00520827
4557.77182251,0.00521498
4559.70062988,0.00519845
4561.62943726,0.00516280
4563.55824463,0.00512781
4565.48705200,0.00509229
4567.41585937,0.00513294
4569.34466675,0.00510821
4571.27347412,0.00511505
4573.20228149,0.00509546
4575.13108887,0.00496124
4577.05989624,0.00501822
4578.98870361,0.00503464
4580.91751099,0.00502236
4582.84631836,0.00508640
4584.77512573,0.00496112
4586.70393311,0.00493499
4588.63274048,0.00495271
4590.56154785,0.00494699
4592.49035522,0.00503634
4594.41916260,0.00493667
4596.34796997,0.00489752
4598.27677734,0.00495763
4600.20558472,0.00486939
4602.13439209,0.00487268
4604.06319946,0.00491055
4605.99200684,0.00486930
4607.92081421,0.00490544
4609.84962158,0.00494398
4611.77842895,0.00491919
4613.70723633,0.00483180
4615.63604370,0.00469351
4617.56485107,0.00472974
4619.49365845,0.00479527
4621.42246582,0.00473448
4623.35127319,0.00473000
4625.28008057,0.00472918
4627.20888794,0.00474669
4629.13769531,0.00472305
4631.06650269,0.00463322
4632.99531006,0.00463511
4634.92411743,0.00468232
4636.85292480,0.00469028
4638.78173218,0.00466904
4640.71053955,0.00466451
4642.63934692,0.00461309
4644.56815430,0.00462270
4646.49696167,0.00466324
4648.42576904,0.00462641
4650.35457642,0.00461472
4652.28338379,0.00455238
4654.21219116,0.00452505
4656.14099853,0.00449808
4658.06980591,0.00454904
4659.99861328,0.00464940
4661.92742065,0.00450672
4663.85622803,0.00443923
4665.78503540,0.00451565
4667.71384277,0.00454057
4669.64265015,0.00445760
4671.57145752,0.00443206
4673.50026489,0.00449331
4675.42907227,0.00441152
4677.35787964,0.00443220
4679.28668701,0.00445184
4681.21549438,0.00440632
4683.14430176,0.00438097
4685.07310913,0.00436863
4687.00191650,0.00443538
4688.93072388,0.00433431
4690.85953125,0.00433464
4692.78833862,0.00436036
4694.71714600,0.00430007
4696.64595337,0.00435402
4698.57476074,0.00426710
4700.50356812,0.00429352
4702.43237549,0.00430198
4704.36118286,0.00420164
4706.28999023,0.00427989
4708.21879761,0.00426802
4710.14760498,0.00421483
4712.07641235,0.00426786
4714.00521973,0.00425834
4715.93402710,0.00414615
4717.86283447,0.00423623
4719.79164185,0.00430911
4721.72044922,0.00415250
4723.64925659,0.00411449
4725.57806396,0.00406178
4727.50687134,0.00407799
4729.43567871,0.00414080
4731.36448608,0.00410782
4733.29329346,0.00411597
4735.22210083,0.00407376
4737.15090820,0.00409257
4739.07971558,0.00409314
4741.00852295,0.00407816
4742.93733032,0.00410019
4744.86613770,0.00399383
4746.79494507,0.00398270
4748.72375244,0.00412085
4750.65255981,0.00408327
4752.58136719,0.00396130
4754.51017456,0.00401599
4756.43898193,0.00399180
4758.36778931,0.00397257
4760.29659668,0.00400493
4762.22540405,0.00395390
4764.15421143,0.00399959
4766.08301880,0.00395826
4768.01182617,0.00393715
4769.94063354,0.00392488
4771.86944092,0.00388101
4773.79824829,0.00395893
4775.72705566,0.00396037
4777.65586304,0.00397713
4779.58467041,0.00396346
4781.51347778,0.00391256
4783.44228516,0.00384863
4785.37109253,0.00384771
4787.29989990,0.00388758
4789.22870728,0.00375461
4791.15751465,0.00378291
4793.08632202,0.00381820
4795.01512939,0.00378302
4796.94393677,0.00385954
4798.87274414,0.00381643
4800.80155151,0.00377056
4802.73035889,0.00382224
4804.65916626,0.00380770
4806.58797363,0.00373075
4808.51678101,0.00377580
4810.44558838,0.00375825
4812.37439575,0.00365941
4814.30320312,0.00364766
4816.23201050,0.00368094
4818.16081787,0.00370000
4820.08962524,0.00363409
4822.01843262,0.00369216
4823.94723999,0.00366074
4825.87604736,0.00362992
4827.80485474,0.00369168
4829.73366211,0.00363512
4831.66246948,0.00370112
4833.59127686,0.00360879
4835.52008423,0.00357836
4837.44889160,0.00359490
4839.37769897,0.00349719
4841.30650635,0.00364486
4843.23531372,0.00362913
4845.16412109,0.00357617
4847.09292847,0.00357116
4849.02173584,0.00351720
4850.95054321,0.00356580
4852.87935059,0.00353091
4854.80815796,0.00349892
4856.73696533,0.00352239
4858.66577270,0.00351206
4860.59458008,0.00346578
4862.52338745,0.00350952
4864.45219482,0.00344696
4866.38100220,0.00337214
4868.30980957,0.00348148
4870.23861694,0.00344982
4872.16742432,0.00344528
4874.09623169,0.00344260
4876.02503906,0.00340655
4877.95384644,0.00340244
4879.88265381,0.00340286
4881.81146118,0.00345314
4883.74026855,0.00336252
4885.66907593,0.00336507
4887.59788330,0.00343224
4889.52669067,0.00340573
4891.45549805,0.00330436
4893.38430542,0.00326282
4895.31311279,0.00337032
4897.24192017,0.00329788
4899.17072754,0.00329337
4901.09953491,0.00329975
4903.02834228,0.00324859
4904.95714966,0.00333252
4906.88595703,0.00330798
4908.81476440,0.00328384
4910.74357178,0.00323640
4912.67237915,0.00324705
4914.60118652,0.00327620
4916.52999390,0.00324845
4918.45880127,0.00325050
4920.38760864,0.00314977
4922.31641602,0.00318986
4924.24522339,0.00315234
4926.17403076,0.00311772
4928.10283813,0.00321370
4930.03164551,0.00310303
4931.96045288,0.00310681
4933.88926025,0.00312331
4935.81806763,0.00318771
4937.74687500,0.00322569
4939.67568237,0.00307563
4941.60448975,0.00318037
4943.53329712,0.00317105
4945.46210449,0.00303580
4947.39091187,0.00308158
4949.31971924,0.00309933
4951.24852661,0.00307195
4953.17733398,0.00305891
4955.10614136,0.00311090
4957.03494873,0.00308761
4958.96375610,0.00306391
4960.89256348,0.00308586
4962.82137085,0.00303013
4964.75017822,0.00298787
4966.67898560,0.00304885
4968.60779297,0.00309060
4970.53660034,0.00297342
4972.46540771,0.00297068
4974.39421509,0.00298059
4976.32302246,0.00294026
4978.25182983,0.00298224
4980.18063721,0.00296455
4982.10944458,0.00298957
4984.03825195,0.00297468
4985.96705933,0.00300044
4987.89586670,0.00300364
4989.82467407,0.00291931
4991.75348145,0.00295517
4993.68228882,0.00290046
4995.61109619,0.00283634
4997.53990356,0.00285071
4999.46871094,0.00288613
5001.39751831,0.00288645
5003.32632568,0.00284630
5005.25513306,0.00279976
5007.18394043,0.00275947
5009.11274780,0.00286005
5011.04155518,0.00283896
5012.97036255,0.00283989
5014.89916992,0.00290845
5016.82797729,0.00282059
5018.75678467,0.00279309
5020.68559204,0.00273466
5022.61439941,0.00277515
5024.54320679,0.00283014
5026.47201416,0.00269960
5028.40082153,0.00268980
5030.32962891,0.00274737
5032.25843628,0.00277131
5034.18724365,0.00280937
5036.11605103,0.00276963
5038.04485840,0.00270849
5039.97366577,0.00270100
5041.90247314,0.00268129
5043.83128052,0.00270124
5045.76008789,0.00269862
5047.68889526,0.00269811
5049.61770264,0.00269941
5051.54651001,0.00267531
5053.47531738,0.00272507
5055.40412476,0.00265307
5057.33293213,0.00269844
5059.26173950,0.00273252
5061.19054687,0.00259527
5063.11935425,0.00267891
5065.04816162,0.00266463
5066.97696899,0.00257920
5068.90577637,0.00257927
5070.83458374,0.00260138
5072.76339111,0.00260983
5074.69219849,0.00259062
5076.62100586,0.00264683
5078.54981323,0.00251844
5080.47862061,0.00247439
5082.40742798,0.00256990
5084.33623535,0.00253482
5086.26504272,0.00254573
5088.19385010,0.00255344
5090.12265747,0.00254020
5092.05146484,0.00249691
5093.98027222,0.00249038
5095.90907959,0.00254751
5097.83788696,0.00250948
5099.76669434,0.00244523
5101.69550171,0.00247749
5103.62430908,0.00243912
5105.55311645,0.00241254
5107.48192383,0.00252446
5109.41073120,0.00245151
5111.33953857,0.00240956
5113.26834595,0.00245169
5115.19715332,0.00246286
5117.12596069,0.00252835
5119.05476807,0.00242889
5120.98357544,0.00239398
5122.91238281,0.00242084
5124.84119019,0.00239203
5126.76999756,0.00240026
5128.69880493,0.00240611
5130.62761230,0.00239329
5132.55641968,0.00231490
5134.48522705,0.00239879
5136.41403442,0.00242142
5138.34284180,0.00231656
5140.27164917,0.00238616
5142.20045654,0.00232908
5144.12926392,0.00225995
5146.05807129,0.00236042
5147.98687866,0.00233183
5149.91568603,0.00232958
5151.84449341,0.00239899
5153.77330078,0.00228629
5155.70210815,0.00228277
5157.63091553,0.00234638
5159.55972290,0.00225590
5161.48853027,0.00224949
5163.41733765,0.00224617
5165.34614502,0.00228420
5167.27495239,0.00231341
5169.20375977,0.00219863
5171.13256714,0.00221142
5173.06137451,0.00226630
5174.99018188,0.00228827
5176.91898926,0.00231145
5178.84779663,0.00220264
5180.77660400,0.00213382
5182.70541138,0.00215771
5184.63421875,0.00217091
5186.56302612,0.00220064
5188.49183350,0.00219099
5190.42064087,0.00218440
5192.34944824,0.00217471
5194.27825562,0.00220232
5196.20706299,0.00221843
5198.13587036,0.00213155
5200.06467773,0.00215233
5201.99348511,0.00214274
5203.92229248,0.00215932
5205.85109985,0.00217928
5207.77990723,0.00207411
5209.70871460,0.00212412
5211.63752197,0.00210217
5213.56632935,0.00208040
5215.49513672,0.00213050
5217.42394409,0.00214000
5219.35275146,0.00215512
5221.28155884,0.00206034
5223.21036621,0.00205292
5225.13917358,0.00200536
5227.06798096,0.00201875
5228.99678833,0.00208310
5230.92559570,0.00198397
5232.85440308,0.00204065
5234.78321045,0.00210809
5236.71201782,0.00207124
5238.64082520,0.00199153
5240.56963257,0.00203992
5242.49843994,0.00206872
5244.42724731,0.00196105
5246.35605469,0.00204527
5248.28486206,0.00199963
5250.21366943,0.00197749
5252.14247681,0.00205084
5254.07128418,0.00195236
5256.00009155,0.00194273
5257.92889893,0.00196355
5259.85770630,0.00199362
5261.78651367,0.00198193
5263.71532104,0.00196237
5265.64412842,0.00197163
5267.57293579,0.00192263
5269.50174316,0.00190236
5271.43055054,0.00185838
5273.35935791,0.00192250
5275.28816528,0.00195815
5277.21697266,0.00191004
5279.14578003,0.00196532
5281.07458740,0.00190836
5283.00339478,0.00184497
5284.93220215,0.00186261
5286.86100952,0.00188857
5288.78981689,0.00191118
5290.71862427,0.00182011
5292.64743164,0.00181927
5294.57623901,0.00189726
5296.50504639,0.00185579
5298.43385376,0.00185607
5300.36266113,0.00187959
5302.29146851,0.00184586
5304.22027588,0.00187902
5306.14908325,0.00186160
5308.07789062,0.00180001
5310.00669800,0.00187511
5311.93550537,0.00187678
5313.86431274,0.00181212
5315.79312012,0.00180019
5317.72192749,0.00175628
5319.65073486,0.00181340
5321.57954224,0.00182760
5323.50834961,0.00178811
5325.43715698,0.00183975
5327.36596436,0.00175801
5329.29477173,0.00171971
5331.22357910,0.00181531
5333.15238647,0.00179709
5335.08119385,0.00179994
5337.01000122,0.00185063
5338.93880859,0.00174186
5340.86761597,0.00173546
5342.79642334,0.00182071
5344.72523071,0.00163236
5346.65403809,0.00159855
5348.58284546,0.00173694
5350.51165283,0.00174156
5352.44046020,0.00172679
5354.36926758,0.00162608
5356.29807495,0.00168306
5358.22688232,0.00177791
5360.15568970,0.00172391
5362.08449707,0.00169847
5364.01330444,0.00170164
5365.94211182,0.00175796
5367.87091919,0.00168555
5369.79972656,0.00170487
5371.72853394,0.00178218
5373.65734131,0.00170319
5375.58614868,0.00167264
5377.51495605,0.00155155
5379.44376343,0.00156423
5381.37257080,0.00164559
5383.30137817,0.00161960
5385.23018555,0.00164759
5387.15899292,0.00158075
5389.08780029,0.00163419
5391.01660767,0.00166856
5392.94541504,0.00154603
5394.87422241,0.00155790
5396.80302978,0.00158866
5398.73183716,0.00158315
5400.66064453,0.00156438
5402.58945190,0.00159180
5404.51825928,0.00160844
5406.44706665,0.00154712
5408.37587402,0.00155458
5410.30468140,0.00153877
5412.23348877,0.00153043
5414.16229614,0.00155718
5416.09110352,0.00149610
5418.01991089,0.00147992
5419.94871826,0.00151983
5421.87752563,0.00156669
5423.80633301,0.00152475
5425.73514038,0.00144256
5427.66394775,0.00155481
5429.59275513,0.00153198
5431.52156250,0.00150738
5433.45036987,0.00161661
5435.37917725,0.00144056
5437.30798462,0.00147369
5439.23679199,0.00157595
5441.16559936,0.00143995
5443.09440674,0.00152578
5445.02321411,0.00152700
5446.95202148,0.00148446
5448.88082886,0.00149905
5450.80963623,0.00144604
5452.73844360,0.00149051
5454.66725098,0.00143444
5456.59605835,0.00142955
5458.52486572,0.00148384
5460.45367310,0.00139245
5462.38248047,0.00139902
5464.31128784,0.00146134
5466.24009521,0.00148601
5468.16890259,0.00151396
5470.09770996,0.00149652
5472.02651733,0.00148262
5473.95532471,0.00138701
5475.88413208,0.00129648
5477.81293945,0.00139548
5479.74174683,0.00140590
5481.67055420,0.00137013
5483.59936157,0.00139190
5485.52816895,0.00139341
5487.45697632,0.00141625
5489.38578369,0.00137068
5491.31459106,0.00142826
5493.24339844,0.00139549
5495.17220581,0.00131043
5497.10101318,0.00140076
5499.02982056,0.00136101
5500.95862793,0.00138437
5502.88743530,0.00140395
5504.81624268,0.00139649
5506.74505005,0.00137379
5508.67385742,0.00125049
5510.60266479,0.00135156
5512.53147217,0.00134465
5514.46027954,0.00125377
5516.38908691,0.00131375
5518.31789429,0.00133729
5520.24670166,0.00134192
5522.17550903,0.00131401
5524.10431641,0.00128275
5526.03312378,0.00129298
5527.96193115,0.00137266
5529.89073853,0.00133913
5531.81954590,0.00132144
5533.74835327,0.00135873
5535.67716064,0.00128439
5537.60596802,0.00127534
5539.53477539,0.00123807
5541.46358276,0.00133012
5543.39239014,0.00136711
5545.32119751,0.00122775
5547.25000488,0.00127802
5549.17881226,0.00127226
5551.10761963,0.00123972
5553.03642700,0.00126934
5554.96523437,0.00124648
5556.89404175,0.00122911
5558.82284912,0.00122703
5560.75165649,0.00123818
5562.68046387,0.00129865
5564.60927124,0.00130179
5566.53807861,0.00116092
5568.46688599,0.00121675
5570.39569336,0.00128879
5572.32450073,0.00119309
5574.25330811,0.00121897
5576.18211548,0.00125638
5578.11092285,0.00126181
5580.03973022,0.00125985
5581.96853760,0.00123745
5583.89734497,0.00120480
5585.82615234,0.00118289
5587.75495972,0.00118268
5589.68376709,0.00120691
5591.61257446,0.00124463
5593.54138184,0.00119533
5595.47018921,0.00116500
5597.39899658,0.00115613
5599.32780395,0.00114956
5601.25661133,0.00121972
5603.18541870,0.00127205
5605.11422607,0.00117961
5607.04303345,0.00107849
5608.97184082,0.00111901
5610.90064819,0.00112474
5612.82945557,0.00114107
5614.75826294,0.00117552
5616.68707031,0.00116764
5618.61587769,0.00111101
5620.54468506,0.00108395
5622.47349243,0.00116818
5624.40229980,0.00111565
5626.33110718,0.00113715
5628.25991455,0.00114881
5630.18872192,0.00103200
5632.11752930,0.00113768
5634.04633667,0.00116150
5635.97514404,0.00107303
5637.90395142,0.00107138
5639.83275879,0.00105579
5641.76156616,0.00105638
5643.69037353,0.00110040
5645.61918091,0.00110292
5647.54798828,0.00107241
5649.47679565,0.00109886
5651.40560303,0.00106526
5653.33441040,0.00105145
5655.26321777,0.00107765
5657.19202515,0.00105171
5659.12083252,0.00105526
5661.04963989,0.00103509
5662.97844727,0.00103678
5664.90725464,0.00105362
5666.83606201,0.00103870
5668.76486938,0.00102620
5670.69367676,0.00101444
5672.62248413,0.00105025
5674.55129150,0.00108220
5676.48009888,0.00107379
5678.40890625,0.00103380
5680.33771362,0.00098988
5682.26652100,0.00101128
5684.19532837,0.00102869
5686.12413574,0.00100350
5688.05294311,0.00098996
5689.98175049,0.00098816
5691.91055786,0.00101323
5693.83936523,0.00098712
5695.76817261,0.00092040
5697.69697998,0.00094068
5699.62578735,0.00098524
5701.55459473,0.00100812
5703.48340210,0.00099534
5705.41220947,0.00100257
5707.34101685,0.00108706
5709.26982422,0.00107957
5711.19863159,0.00101517
5713.12743896,0.00100815
5715.05624634,0.00092028
5716.98505371,0.00093452
5718.91386108,0.00099705
5720.84266846,0.00090805
5722.77147583,0.00101550
5724.70028320,0.00100397
5726.62909058,0.00093548
5728.55789795,0.00101374
5730.48670532,0.00085340
5732.41551270,0.00093175
5734.34432007,0.00097753
5736.27312744,0.00088804
5738.20193481,0.00097656
5740.13074219,0.00091606
5742.05954956,0.00097347
5743.98835693,0.00096819
5745.91716431,0.00091106
5747.84597168,0.00090740
5749.77477905,0.00092406
5751.70358643,0.00100458
5753.63239380,0.00087858
5755.56120117,0.00089632
5757.49000854,0.00088462
5759.41881592,0.00086116
5761.34762329,0.00092950
5763.27643066,0.00086604
5765.20523804,0.00093271
5767.13404541,0.00091275
5769.06285278,0.00088195
5770.99166016,0.00083324
5772.92046753,0.00082300
5774.84927490,0.00090814
5776.77808228,0.00082307
5778.70688965,0.00084454
5780.63569702,0.00086077
5782.56450439,0.00089144
5784.49331177,0.00091044
5786.42211914,0.00081566
5788.35092651,0.00081741
5790.27973389,0.00081102
5792.20854126,0.00085338
5794.13734863,0.00085245
5796.06615601,0.00082937
5797.99496338,0.00088660
5799.92377075,0.00088217
5801.85257812,0.00088004
5803.78138550,0.00088411
5805.71019287,0.00084461
5807.63900024,0.00080008
5809.56780762,0.00077808
5811.49661499,0.00079570
5813.42542236,0.00084626
5815.35422974,0.00082044
5817.28303711,0.00082581
5819.21184448,0.00082576
5821.14065186,0.00073434
5823.06945923,0.00082031
5824.99826660,0.00084799
5826.92707397,0.00078073
5828.85588135,0.00081702
5830.78468872,0.00077336
5832.71349609,0.00078484
5834.64230347,0.00081095
5836.57111084,0.00076759
5838.49991821,0.00080098
5840.42872559,0.00078186
5842.35753296,0.00075594
5844.28634033,0.00074405
5846.21514770,0.00071590
5848.14395508,0.00079722
5850.07276245,0.00079889
5852.00156982,0.00075799
5853.93037720,0.00075183
5855.85918457,0.00073461
5857.78799194,0.00078681
5859.71679932,0.00074902
5861.64560669,0.00070948
5863.57441406,0.00069524
5865.50322144,0.00071660
5867.43202881,0.00080017
5869.36083618,0.00076144
5871.28964355,0.00072903
5873.21845093,0.00067513
5875.14725830,0.00069590
5877.07606567,0.00080140
5879.00487305,0.00073930
5880.93368042,0.00069303
5882.86248779,0.00075965
5884.79129517,0.00078084
5886.72010254,0.00072240
5888.64890991,0.00070180
5890.57771728,0.00073664
5892.50652466,0.00081127
5894.43533203,0.00076257
5896.36413940,0.00064315
5898.29294678,0.00068853
5900.22175415,0.00071636
5902.15056152,0.00068482
5904.07936890,0.00069347
5906.00817627,0.00078208
5907.93698364,0.00074734
5909.86579102,0.00068001
5911.79459839,0.00071701
5913.72340576,0.00066893
5915.65221313,0.00075314
5917.58102051,0.00075206
5919.50982788,0.00067451
5921.43863525,0.00071157
5923.36744263,0.00068945
5925.29625000,0.00064850
5927.22505737,0.00064742
5929.15386475,0.00074608
5931.08267212,0.00062057
5933.01147949,0.00059272
5934.94028686,0.00069526
5936.86909424,0.00059883
5938.79790161,0.00067688
5940.72670898,0.00063625
5942.65551636,0.00063410
5944.58432373,0.00071284
5946.51313110,0.00067070
5948.44193848,0.00069850
5950.37074585,0.00060686
5952.29955322,0.00063283
5954.22836060,0.00069491
5956.15716797,0.00067734
5958.08597534,0.00067650
5960.01478271,0.00061289
5961.94359009,0.00062355
5963.87239746,0.00062502
5965.80120483,0.00064319
5967.73001221,0.00066049
5969.65881958,0.00062692
5971.58762695,0.00061879
5973.51643433,0.00062464
5975.44524170,0.00067040
5977.37404907,0.00065170
5979.30285645,0.00058267
5981.23166382,0.00060731
5983.16047119,0.00060778
5985.08927856,0.00053156
5987.01808594,0.00056675
5988.94689331,0.00061075
5990.87570068,0.00056811
5992.80450806,0.00058471
5994.73331543,0.00061225
5996.66212280,0.00053555
5998.59093018,0.00048742
6000.51973755,0.00059305
