399.26312622,0.00028643
401.19193359,0.00021084
403.12074097,0.00036363
405.04954834,0.00033240
406.97835571,0.00042018
408.90716309,0.00040422
410.83597046,0.00051711
412.76477783,0.00050028
414.69358521,0.00030009
416.62239258,0.00033518
418.55119995,0.00047014
420.48000732,0.00016274
422.40881470,0.00026058
424.33762207,0.00069246
426.26642944,0.00026198
428.19523682,0.00044403
430.12404419,0.00074350
432.05285156,0.00051489
433.98165894,0.00084578
435.91046631,0.00090414
437.83927368,0.00072028
439.76808105,0.00048210
441.69688843,0.00042419
443.62569580,0.00061444
445.55450317,0.00050524
447.48331055,0.00056539
449.41211792,0.00047366
451.34092529,0.00051431
453.26973267,0.00084696
455.19854004,0.00050166
457.12734741,0.00028816
459.05615479,0.00052237
460.98496216,0.00037700
462.91376953,0.00020211
464.84257690,0.00026286
466.77138428,0.00058716
468.70019165,0.00061999
470.62899902,0.00015560
472.55780640,0.00034110
474.48661377,0.00040240
476.41542114,0.00002955
478.34422852,0.00005520
480.27303589,0.00012193
482.20184326,0.00043927
484.13065063,0.00039714
486.05945801,0.00024768
487.98826538,0.00063905
489.91707275,0.00040554
491.84588013,0.00008431
493.77468750,0.00041668
495.70349487,0.00054889
497.63230225,0.00010901
499.56110962,0.00040138
501.48991699,0.00046855
503.41872437,0.00016930
505.34753174,0.00053494
507.27633911,0.00000385
509.20514648,0.00001056
511.13395386,0.00021302
513.06276123,0.00011237
514.99156860,0.00032024
516.92037598,-0.00028024
518.84918335,0.00014280
520.77799072,0.00028672
522.70679810,0.00004459
524.63560547,0.00052995
526.56441284,0.00020196
528.49322021,0.00045622
530.42202759,0.00021311
532.35083496,-0.00017882
534.27964233,0.00035482
536.20844971,0.00007909
538.13725708,0.00022228
540.06606445,0.00041870
541.99487183,-0.00000916
543.92367920,0.00002633
545.85248657,0.00036360
547.78129395,0.00053661
549.71010132,0.00044665
551.63890869,0.00035897
553.56771606,-0.00013976
555.49652344,-0.00010621
557.42533081,0.00035752
559.35413818,0.00016034
561.28294556,0.00041441
563.21175293,0.00016799
565.14056030,-0.00012814
567.06936768,0.00042856
568.99817505,0.00033820
570.92698242,0.00022536
572.85578979,0.00018961
574.78459717,0.00018598
576.71340454,0.00021888
578.64221191,-0.00011592
580.57101929,0.00006234
582.49982666,0.00027812
584.42863403,0.00016178
586.35744141,0.00013624
588.28624878,0.00000442
590.21505615,0.00009801
592.14386353,0.00049548
594.07267090,0.00021690
596.00147827,0.00013650
597.93028564,0.00061387
599.85909302,0.00005291
601.78790039,0.00006409
603.71670776,0.00041473
605.64551514,-0.00011365
607.57432251,0.00010552
609.50312988,0.00028127
611.43193726,0.00036763
613.36074463,0.00049262
615.28955200,0.00017841
617.21835938,0.00013147
619.14716675,0.00020946
621.07597412,0.00022380
623.00478149,-0.00009929
624.93358887,0.00011565
626.86239624,0.00037493
628.79120361,0.00001448
630.72001099,-0.00021049
632.64881836,0.00060936
634.57762573,0.00036237
636.50643311,0.00039154
638.43524048,0.00078857
640.36404785,0.00026505
642.29285522,0.00077053
644.22166260,0.00071732
646.15046997,0.00072089
648.07927734,0.00063340
650.00808472,0.00024098
651.93689209,0.00086471
653.86569946,0.00085034
655.79450684,0.00070082
657.72331421,0.00075002
659.65212158,0.00068044
661.58092896,0.00077224
663.50973633,0.00073634
665.43854370,0.00087446
667.36735107,0.00116482
669.29615845,0.00108054
671.22496582,0.00093984
673.15377319,0.00105805
675.08258057,0.00116523
677.01138794,0.00133530
678.94019531,0.00133142
680.86900269,0.00147167
682.79781006,0.00146044
684.72661743,0.00137942
686.65542480,0.00152805
688.58423218,0.00130587
690.51303955,0.00143883
692.44184692,0.00147261
694.37065430,0.00150973
696.29946167,0.00190969
698.22826904,0.00205495
700.15707642,0.00211901
702.08588379,0.00207558
704.01469116,0.00203831
705.94349854,0.00170787
707.87230591,0.00144836
709.80111328,0.00120652
711.72992065,0.00087174
713.65872803,0.00044600
715.58753540,0.00004453
717.51634277,0.00047859
719.44515015,0.00054504
721.37395752,0.00031136
723.30276489,0.00010543
725.23157227,-0.00001307
727.16037964,0.00004044
729.08918701,-0.00017976
731.01799438,0.00002187
732.94680176,0.00044763
734.87560913,0.00027582
736.80441650,0.00002683
738.73322388,0.00022520
740.66203125,0.00038052
742.59083862,0.00042304
744.51964600,0.00025105
746.44845337,0.00035140
748.37726074,0.00025356
750.30606812,0.00019306
752.23487549,-0.00002500
754.16368286,0.00006617
756.09249023,0.00013030
758.02129761,0.00002623
759.95010498,0.00024600
761.87891235,-0.00013369
763.80771973,0.00059586
765.73652710,0.00072308
767.66533447,0.00015475
769.59414185,0.00059585
771.52294922,-0.00013402
773.45175659,0.00016717
775.38056396,0.00041647
777.30937134,-0.00009364
779.23817871,0.00042298
781.16698608,0.00022662
783.09579346,0.00031043
785.02460083,0.00023554
786.95340820,0.00015085
788.88221558,0.00026752
790.81102295,-0.00006108
792.73983032,0.00023072
794.66863770,0.00002024
796.59744507,0.00026868
798.52625244,0.00055997
800.45505981,0.00026221
802.38386719,0.00049091
804.31267456,0.00038139
806.24148193,0.00040257
808.17028931,0.00016632
810.09909668,0.00014697
812.02790405,0.00030459
813.95671143,0.00004730
815.88551880,0.00031230
817.81432617,0.00028122
819.74313354,0.00029380
821.67194092,0.00035268
823.60074829,0.00031001
825.52955566,0.00052116
827.45836304,0.00041388
829.38717041,0.00041465
831.31597778,0.00056663
833.24478516,0.00086534
835.17359253,0.00082274
837.10239990,0.00042695
839.03120728,0.00071646
840.96001465,0.00085623
842.88882202,0.00043659
844.81762939,0.00034893
846.74643677,0.00055528
848.67524414,0.00058903
850.60405151,0.00055303
852.53285889,0.00059901
854.46166626,0.00042032
856.39047363,0.00031350
858.31928101,0.00025980
860.24808838,0.00011728
862.17689575,0.00026227
864.10570313,0.00012837
866.03451050,0.00005855
867.96331787,0.00032682
869.89212524,0.00016816
871.82093262,0.00009954
873.74973999,0.00010809
875.67854736,0.00018328
877.60735474,0.00019684
879.53616211,0.00012722
881.46496948,0.00051784
883.39377686,0.00054919
885.32258423,0.00040936
887.25139160,0.00027243
889.18019897,0.00025316
891.10900635,0.00018637
893.03781372,0.00016095
894.96662109,0.00045375
896.89542847,0.00032081
898.82423584,0.00026703
900.75304321,0.00016966
902.68185059,0.00029128
904.61065796,0.00052310
906.53946533,0.00034444
908.46827271,0.00034657
910.39708008,0.00022574
912.32588745,0.00062379
914.25469482,0.00071594
916.18350220,0.00029247
918.11230957,0.00046416
920.04111694,0.00056417
921.96992432,0.00077959
923.89873169,0.00081074
925.82753906,0.00056034
927.75634644,0.00038146
929.68515381,0.00052165
931.61396118,0.00076349
933.54276855,0.00053753
935.47157593,0.00057849
937.40038330,0.00079556
939.32919067,0.00071131
941.25799805,0.00068508
943.18680542,0.00102729
945.11561279,0.00088862
947.04442017,0.00064893
948.97322754,0.00095263
950.90203491,0.00089598
952.83084229,0.00091782
954.75964966,0.00077660
956.68845703,0.00088208
958.61726440,0.00104444
960.54607178,0.00059129
962.47487915,0.00079933
964.40368652,0.00083133
966.33249390,0.00069885
968.26130127,0.00084460
970.19010864,0.00080570
972.11891602,0.00097026
974.04772339,0.00094288
975.97653076,0.00091549
977.90533813,0.00119258
979.83414551,0.00132969
981.76295288,0.00141069
983.69176025,0.00159167
985.62056763,0.00157872
987.54937500,0.00176330
989.47818237,0.00197005
991.40698975,0.00209371
993.33579712,0.00262822
995.26460449,0.00269086
997.19341187,0.00280196
999.12221924,0.00326152
1001.05102661,0.00329983
1002.97983398,0.00350531
1004.90864136,0.00389113
1006.83744873,0.00404332
1008.76625610,0.00415319
1010.69506348,0.00459478
1012.62387085,0.00493444
1014.55267822,0.00505587
1016.48148560,0.00528038
1018.41029297,0.00554430
1020.33910034,0.00594484
1022.26790771,0.00620225
1024.19671509,0.00632519
1026.12552246,0.00632282
1028.05432983,0.00655533
1029.98313721,0.00699163
1031.91194458,0.00698880
1033.84075195,0.00711052
1035.76955933,0.00724539
1037.69836670,0.00727394
1039.62717407,0.00747482
1041.55598145,0.00745364
1043.48478882,0.00741654
1045.41359619,0.00741121
1047.34240356,0.00729333
1049.27121094,0.00717007
1051.20001831,0.00705621
1053.12882568,0.00711978
1055.05763306,0.00698142
1056.98644043,0.00668888
1058.91524780,0.00668093
1060.84405518,0.00644150
1062.77286255,0.00633498
1064.70166992,0.00628578
1066.63047729,0.00577580
1068.55928467,0.00556702
1070.48809204,0.00529024
1072.41689941,0.00503048
1074.34570679,0.00510186
1076.27451416,0.00478316
1078.20332153,0.00449562
1080.13212891,0.00432536
1082.06093628,0.00397740
1083.98974365,0.00381251
1085.91855103,0.00381585
1087.84735840,0.00367842
1089.77616577,0.00349056
1091.70497314,0.00348385
1093.63378052,0.00334113
1095.56258789,0.00304970
1097.49139526,0.00306262
1099.42020264,0.00305067
1101.34901001,0.00293034
1103.27781738,0.00290832
1105.20662476,0.00271411
1107.13543213,0.00281933
1109.06423950,0.00272726
1110.99304687,0.00239255
1112.92185425,0.00281579
1114.85066162,0.00285638
1116.77946899,0.00261985
1118.70827637,0.00270979
1120.63708374,0.00263474
1122.56589111,0.00275478
1124.49469849,0.00287208
1126.42350586,0.00275745
1128.35231323,0.00268451
1130.28112061,0.00305299
1132.20992798,0.00320118
1134.13873535,0.00299055
1136.06754272,0.00311864
1137.99635010,0.00311499
1139.92515747,0.00342126
1141.85396484,0.00386215
1143.78277222,0.00400173
1145.71157959,0.00420527
1147.64038696,0.00432749
1149.56919434,0.00460648
1151.49800171,0.00486327
1153.42680908,0.00501528
1155.35561646,0.00522728
1157.28442383,0.00558680
1159.21323120,0.00587320
1161.14203857,0.00601348
1163.07084595,0.00635358
1164.99965332,0.00642939
1166.92846069,0.00664706
1168.85726807,0.00700702
1170.78607544,0.00712152
1172.71488281,0.00755991
1174.64369019,0.00772161
1176.57249756,0.00780447
1178.50130493,0.00836084
1180.43011230,0.00871314
1182.35891968,0.00908643
1184.28772705,0.00946552
1186.21653442,0.00976754
1188.14534180,0.01050197
1190.07414917,0.01098321
1192.00295654,0.01129198
1193.93176392,0.01181487
1195.86057129,0.01219292
1197.78937866,0.01301384
1199.71818604,0.01367969
1201.64699341,0.01391241
1203.57580078,0.01465389
1205.50460815,0.01541629
1207.43341553,0.01585026
1209.36222290,0.01632323
1211.29103027,0.01690754
1213.21983765,0.01727222
1215.14864502,0.01771443
1217.07745239,0.01817729
1219.00625977,0.01835718
1220.93506714,0.01890117
1222.86387451,0.01913948
1224.79268188,0.01908302
1226.72148926,0.01929570
1228.65029663,0.01946282
1230.57910400,0.01968410
1232.50791138,0.01959879
1234.43671875,0.01973938
1236.36552612,0.01980239
1238.29433350,0.01937906
1240.22314087,0.01946553
1242.15194824,0.01961255
1244.08075562,0.01955553
1246.00956299,0.01925908
1247.93837036,0.01930702
1249.86717773,0.01952184
1251.79598511,0.01902052
1253.72479248,0.01893698
1255.65359985,0.01881646
1257.58240723,0.01859505
1259.51121460,0.01850839
1261.44002197,0.01797721
1263.36882935,0.01781258
1265.29763672,0.01763776
1267.22644409,0.01747823
1269.15525146,0.01725743
1271.08405884,0.01682802
1273.01286621,0.01661491
1274.94167358,0.01625576
1276.87048096,0.01600412
1278.79928833,0.01559481
1280.72809570,0.01535507
1282.65690308,0.01512610
1284.58571045,0.01473313
1286.51451782,0.01478305
1288.44332520,0.01455606
1290.37213257,0.01427514
1292.30093994,0.01408868
1294.22974731,0.01411137
1296.15855469,0.01389254
1298.08736206,0.01372954
1300.01616943,0.01438356
1301.94497681,0.01419477
1303.87378418,0.01419945
1305.80259155,0.01469104
1307.73139893,0.01459561
1309.66020630,0.01478170
1311.58901367,0.01492264
1313.51782104,0.01532000
1315.44662842,0.01581939
1317.37543579,0.01601584
1319.30424316,0.01655466
1321.23305054,0.01725567
1323.16185791,0.01771584
1325.09066528,0.01810462
1327.01947266,0.01867356
1328.94828003,0.01912411
1330.87708740,0.01956373
1332.80589478,0.02008692
1334.73470215,0.02055552
1336.66350952,0.02065260
1338.59231689,0.02053917
1340.52112427,0.02103431
1342.44993164,0.02155092
1344.37873901,0.02174002
1346.30754639,0.02184149
1348.23635376,0.02165578
1350.16516113,0.02172825
1352.09396851,0.02183197
1354.02277588,0.02144592
1355.95158325,0.02131286
1357.88039062,0.02118038
1359.80919800,0.02087374
1361.73800537,0.02014887
1363.66681274,0.01975486
1365.59562012,0.02079910
1367.52442749,0.02047270
1369.45323486,0.01999006
1371.38204224,0.02021829
1373.31084961,0.01929163
1375.23965698,0.01963304
1377.16846436,0.02004215
1379.09727173,0.01981005
1381.02607910,0.01977410
1382.95488647,0.01997216
1384.88369385,0.02017577
1386.81250122,0.01906167
1388.74130859,0.01949450
1390.67011597,0.02093937
1392.59892334,0.02036720
1394.52773071,0.01934586
1396.45653809,0.02008497
1398.38534546,0.02008574
1400.31415283,0.02003643
1402.24296021,0.02178394
1404.17176758,0.02042256
1406.10057495,0.02031122
1408.02938232,0.02142433
1409.95818970,0.02056159
1411.88699707,0.02103717
1413.81580444,0.02041707
1415.74461182,0.02073828
1417.67341919,0.01875496
1419.60222656,0.01678584
1421.53103394,0.01949673
1423.45984131,0.01884604
1425.38864868,0.01818250
1427.31745605,0.01844559
1429.24626343,0.01705696
1431.17507080,0.01672501
1433.10387817,0.01690723
1435.03268555,0.01547839
1436.96149292,0.01341560
1438.89030029,0.01489252
1440.81910767,0.01526697
1442.74791504,0.01449559
1444.67672241,0.01487655
1446.60552979,0.01366168
1448.53433716,0.01388708
1450.46314453,0.01435981
1452.39195190,0.01493122
1454.32075928,0.01540084
1456.24956665,0.01287833
1458.17837402,0.01337022
1460.10718140,0.01754075
1462.03598877,0.01870919
1463.96479614,0.01868368
1465.89360352,0.01969996
1467.82241089,0.02206402
1469.75121826,0.02368809
1471.68002563,0.02138723
1473.60883301,0.02238204
1475.53764038,0.02551233
1477.46644775,0.02727755
1479.39525513,0.02983220
1481.32406250,0.03023811
1483.25286987,0.03202559
1485.18167725,0.03314476
1487.11048462,0.03267045
1489.03929199,0.03259605
1490.96809937,0.03277407
1492.89690674,0.03790461
1494.82571411,0.03720890
1496.75452148,0.03360134
1498.68332886,0.03800705
1500.61213623,0.03917690
1502.54094360,0.04158433
1504.46975098,0.03977643
1506.39855835,0.02947613
1508.32736572,0.03523549
1510.25617310,0.04145195
1512.18498047,0.04024038
1514.11378784,0.04340901
1516.04259521,0.03935029
1517.97140259,0.04099815
1519.90020996,0.03972244
1521.82901733,0.03471769
1523.75782471,0.04215162
1525.68663208,0.04120395
1527.61543945,0.04131411
1529.54424683,0.04558475
1531.47305420,0.04373772
1533.40186157,0.04054855
1535.33066895,0.04273796
1537.25947632,0.04557711
1539.18828369,0.03315447
1541.11709106,0.03456730
1543.04589844,0.04144961
1544.97470581,0.03971809
1546.90351318,0.04671720
1548.83232056,0.04391062
1550.76112793,0.04494154
1552.68993530,0.04478697
1554.61874268,0.04081086
1556.54755005,0.04334545
1558.47635742,0.03124600
1560.40516479,0.03368118
1562.33397217,0.04727958
1564.26277954,0.04473507
1566.19158691,0.04580038
1568.12039429,0.04553793
1570.04920166,0.04047262
1571.97800903,0.04654300
1573.90681641,0.04720132
1575.83562378,0.03771948
1577.76443115,0.04257074
1579.69323853,0.04788646
1581.62204590,0.04597026
1583.55085327,0.04712714
1585.47966064,0.04636507
1587.40846802,0.04676967
1589.33727539,0.04647925
1591.26608276,0.04649627
1593.19489014,0.04657612
1595.12369751,0.04619858
1597.05250488,0.04682715
1598.98131226,0.04644608
1600.91011963,0.04685058
1602.83892700,0.04603283
1604.76773437,0.04665807
1606.69654175,0.04616419
1608.62534912,0.04629241
1610.55415649,0.04614850
1612.48296387,0.04632659
1614.41177124,0.04714254
1616.34057861,0.03882738
1618.26938599,0.04181410
1620.19819336,0.04863001
1622.12700073,0.04337019
1624.05580811,0.04353691
1625.98461548,0.04562549
1627.91342285,0.04532544
1629.84223022,0.04521761
1631.77103760,0.04821454
1633.69984497,0.04464784
1635.62865234,0.03742635
1637.55745972,0.04311132
1639.48626709,0.04722211
1641.41507446,0.04629631
1643.34388184,0.04740702
1645.27268921,0.04293051
1647.20149658,0.03786550
1649.13030396,0.04692548
1651.05911133,0.04483295
1652.98791870,0.02906221
1654.91672607,0.03898356
1656.84553345,0.04880277
1658.77434082,0.04661482
1660.70314819,0.04804152
1662.63195557,0.04390520
1664.56076294,0.04616806
1666.48957031,0.04938915
1668.41837769,0.04343870
1670.34718506,0.04232109
1672.27599243,0.04775473
1674.20479980,0.04431897
1676.13360718,0.04244470
1678.06241455,0.04873903
1679.99122192,0.04693970
1681.92002930,0.04656368
1683.84883667,0.03827362
1685.77764404,0.03757560
1687.70645142,0.05125387
1689.63525879,0.04474072
1691.56406616,0.04895396
1693.49287354,0.04993967
1695.42168091,0.03690330
1697.35048828,0.04522813
1699.27929565,0.03995962
1701.20810303,0.03612235
1703.13691040,0.04864042
1705.06571777,0.04495512
1706.99452515,0.04515444
1708.92333252,0.04903417
1710.85213989,0.04738332
1712.78094727,0.04792536
1714.70975464,0.04481714
1716.63856201,0.04034531
1718.56736938,0.03964966
1720.49617676,0.04697271
1722.42498413,0.04858734
1724.35379150,0.04517526
1726.28259888,0.04907902
1728.21140625,0.04549163
1730.14021362,0.04580718
1732.06902100,0.04475617
1733.99782837,0.03444353
1735.92663574,0.04243615
1737.85544312,0.04694559
1739.78425049,0.04192518
1741.71305786,0.04551507
1743.64186523,0.04615512
1745.57067261,0.04622053
1747.49947998,0.04658879
1749.42828735,0.04472395
1751.35709473,0.04284199
1753.28590210,0.04728663
1755.21470947,0.04954946
1757.14351685,0.04538437
1759.07232422,0.04984849
1761.00113159,0.04689945
1762.92993896,0.04525377
1764.85874634,0.05161655
1766.78755371,0.04667580
1768.71636108,0.04710880
1770.64516846,0.04689165
1772.57397583,0.04232651
1774.50278320,0.04687221
1776.43159058,0.04959165
1778.36039795,0.04892858
1780.28920532,0.04834851
1782.21801270,0.04882067
1784.14682007,0.04865313
1786.07562744,0.04777715
1788.00443481,0.05015036
1789.93324219,0.04904559
1791.86204956,0.04454833
1793.79085693,0.04643645
1795.71966431,0.04972810
1797.64847168,0.04905510
1799.57727905,0.04865944
1801.50608643,0.04774245
1803.43489380,0.04912904
1805.36370117,0.05034729
1807.29250854,0.04974552
1809.22131592,0.04973183
1811.15012329,0.04844103
1813.07893066,0.05007068
1815.00773804,0.05009527
1816.93654541,0.04992083
1818.86535278,0.05042170
1820.79416016,0.05001423
1822.72296753,0.05096287
1824.65177490,0.04757330
1826.58058228,0.04931520
1828.50938965,0.04950247
1830.43819702,0.04644269
1832.36700439,0.05051611
1834.29581177,0.05033125
1836.22461914,0.05032154
1838.15342651,0.05010292
1840.08223389,0.05045648
1842.01104126,0.05047997
1843.93984863,0.04495427
1845.86865601,0.04780148
1847.79746338,0.05042859
1849.72627075,0.04935144
1851.65507812,0.05074445
1853.58388550,0.05001845
1855.51269287,0.05041243
1857.44150024,0.05009475
1859.37030762,0.04985329
1861.29911499,0.05013419
1863.22792236,0.04961660
1865.15672974,0.05016059
1867.08553711,0.04874200
1869.01434448,0.04679767
1870.94315186,0.04852750
1872.87195923,0.05031076
1874.80076660,0.04949719
1876.72957397,0.04982863
1878.65838135,0.04967481
1880.58718872,0.04950843
1882.51599609,0.04989190
1884.44480347,0.04906148
1886.37361084,0.04989436
1888.30241821,0.04887830
1890.23122559,0.04816452
1892.16003296,0.04985529
1894.08884033,0.04886144
1896.01764771,0.04880799
1897.94645508,0.04954943
1899.87526245,0.04926934
1901.80406982,0.04940815
1903.73287720,0.04910326
1905.66168457,0.04933386
1907.59049194,0.04891860
1909.51929932,0.04861983
1911.44810669,0.04899727
1913.37691406,0.04907835
1915.30572144,0.04934808
1917.23452881,0.04733000
1919.16333618,0.04770774
1921.09214355,0.04942388
1923.02095093,0.04776699
1924.94975830,0.04884573
1926.87856567,0.04935799
1928.80737305,0.04876851
1930.73618042,0.04937904
1932.66498779,0.04865400
1934.59379517,0.04916481
1936.52260254,0.04892622
1938.45140991,0.04906363
1940.38021729,0.04904959
1942.30902466,0.04753907
1944.23783203,0.04839587
1946.16663940,0.04892951
1948.09544678,0.04875083
1950.02425415,0.04886584
1951.95306152,0.04896274
1953.88186890,0.04902033
1955.81067627,0.04871713
1957.73948364,0.04895412
1959.66829102,0.04884434
1961.59709839,0.04884946
1963.52590576,0.04903450
1965.45471313,0.04866344
1967.38352051,0.04828111
1969.31232788,0.04872838
1971.24113525,0.04913307
1973.16994263,0.04887342
1975.09875000,0.04899708
1977.02755737,0.04886943
1978.95636475,0.04889859
1980.88517212,0.04875620
1982.81397949,0.04880025
1984.74278687,0.04899774
1986.67159424,0.04841156
1988.60040161,0.04865469
1990.52920898,0.04820618
1992.45801636,0.04774141
1994.38682373,0.04847676
1996.31563110,0.04846057
1998.24443848,0.04845672
2000.17324585,0.04845034
2002.10205322,0.04825666
2004.03086060,0.04835226
2005.95966797,0.04815803
2007.88847534,0.04797443
2009.81728271,0.04806562
2011.74609009,0.04804141
2013.67489746,0.04806238
2015.60370483,0.04772874
2017.53251221,0.04742170
2019.46131958,0.04771166
2021.39012695,0.04757813
2023.31893433,0.04752340
2025.24774170,0.04752616
2027.17654907,0.04743958
2029.10535645,0.04752021
2031.03416382,0.04727793
2032.96297119,0.04721634
2034.89177856,0.04705070
2036.82058594,0.04705783
2038.74939331,0.04709333
2040.67820068,0.04669271
2042.60700806,0.04679450
2044.53581543,0.04697805
2046.46462280,0.04686459
2048.39343018,0.04673434
2050.32223755,0.04659844
2052.25104492,0.04669109
2054.17985229,0.04674347
2056.10865967,0.04651176
2058.03746704,0.04648757
2059.96627441,0.04641141
2061.89508179,0.04633849
2063.82388916,0.04626269
2065.75269653,0.04596541
2067.68150391,0.04625011
2069.61031128,0.04616480
2071.53911865,0.04588397
2073.46792603,0.04603037
2075.39673340,0.04584140
2077.32554077,0.04586224
2079.25434814,0.04584236
2081.18315552,0.04575124
2083.11196289,0.04565665
2085.04077026,0.04552013
2086.96957764,0.04561675
2088.89838501,0.04555289
2090.82719238,0.04540259
2092.75599976,0.04534260
2094.68480713,0.04538795
2096.61361450,0.04530329
2098.54242187,0.04523504
2100.47122925,0.04512018
2102.40003662,0.04511505
2104.32884399,0.04530969
2106.25765137,0.04516316
2108.18645874,0.04507113
2110.11526611,0.04499555
2112.04407349,0.04506428
2113.97288086,0.04506179
2115.90168823,0.04482684
2117.83049561,0.04493079
2119.75930298,0.04490018
2121.68811035,0.04474758
2123.61691772,0.04471197
2125.54572510,0.04460487
2127.47453247,0.04454475
2129.40333984,0.04471438
2131.33214722,0.04467148
2133.26095459,0.04463979
2135.18976196,0.04466506
2137.11856934,0.04436684
2139.04737671,0.04451753
2140.97618408,0.04453696
2142.90499146,0.04435375
2144.83379883,0.04428263
2146.76260620,0.04419801
2148.69141357,0.04439022
2150.62022095,0.04424740
2152.54902832,0.04419076
2154.47783569,0.04425637
2156.40664307,0.04419806
2158.33545044,0.04421419
2160.26425781,0.04415862
2162.19306519,0.04418048
2164.12187256,0.04414541
2166.05067993,0.04405607
2167.97948730,0.04400798
2169.90829468,0.04414180
2171.83710205,0.04400402
2173.76590942,0.04386790
2175.69471680,0.04391002
2177.62352417,0.04373466
2179.55233154,0.04391096
2181.48113892,0.04390521
2183.40994629,0.04381878
2185.33875366,0.04385148
2187.26756104,0.04379126
2189.19636841,0.04389410
2191.12517578,0.04371907
2193.05398315,0.04362151
2194.98279053,0.04368276
2196.91159790,0.04356380
2198.84040527,0.04349729
2200.76921265,0.04355086
2202.69802002,0.04347422
2204.62682739,0.04347508
2206.55563477,0.04359603
2208.48444214,0.04347467
2210.41324951,0.04344928
2212.34205688,0.04347800
2214.27086426,0.04342730
2216.19967163,0.04331876
2218.12847900,0.04339623
2220.05728638,0.04344025
2221.98609375,0.04331320
2223.91490112,0.04337881
2225.84370850,0.04319369
2227.77251587,0.04319914
2229.70132324,0.04323926
2231.63013062,0.04308176
2233.55893799,0.04298524
2235.48774536,0.04288154
2237.41655273,0.04293610
2239.34536011,0.04270258
2241.27416748,0.04279327
2243.20297485,0.04288200
2245.13178223,0.04270151
2247.06058960,0.04274007
2248.98939697,0.04261111
2250.91820435,0.04268357
2252.84701172,0.04257803
2254.77581909,0.04258450
2256.70462646,0.04263281
2258.63343384,0.04237587
2260.56224121,0.04248194
2262.49104858,0.04240831
2264.41985596,0.04231766
2266.34866333,0.04239219
2268.27747070,0.04239599
2270.20627808,0.04235236
2272.13508545,0.04221855
2274.06389282,0.04222919
2275.99270020,0.04227525
2277.92150757,0.04233903
2279.85031494,0.04227620
2281.77912231,0.04211047
2283.70792969,0.04218508
2285.63673706,0.04219022
2287.56554443,0.04197229
2289.49435181,0.04201834
2291.42315918,0.04209197
2293.35196655,0.04188135
2295.28077393,0.04173377
2297.20958130,0.04167976
2299.13838867,0.04159736
2301.06719604,0.04140411
2302.99600342,0.04118152
2304.92481079,0.04100483
2306.85361816,0.04084092
2308.78242554,0.04051333
2310.71123291,0.04024224
2312.64004028,0.03999988
2314.56884766,0.03956863
2316.49765503,0.03928607
2318.42646240,0.03867435
2320.35526978,0.03811951
2322.28407715,0.03768330
2324.21288452,0.03711431
2326.14169189,0.03688117
2328.07049927,0.03643762
2329.99930664,0.03605940
2331.92811401,0.03579867
2333.85692139,0.03566268
2335.78572876,0.03552390
2337.71453613,0.03549056
2339.64334351,0.03564970
2341.57215088,0.03553971
2343.50095825,0.03612095
2345.42976562,0.03676637
2347.35857300,0.03820372
2349.28738037,0.03947837
2351.21618774,0.03815157
2353.14499512,0.03656357
2355.07380249,0.03511308
2357.00260986,0.03400402
2358.93141724,0.03356379
2360.86022461,0.03321267
2362.78903198,0.03325167
2364.71783936,0.03318207
2366.64664673,0.03361975
2368.57545410,0.03437889
2370.50426147,0.03536996
2372.43306885,0.03634436
2374.36187622,0.03713402
2376.29068359,0.03817709
2378.21949097,0.03887343
2380.14829834,0.03961274
2382.07710571,0.04000197
2384.00591309,0.04030171
2385.93472046,0.04069380
2387.86352783,0.04054530
2389.79233521,0.04049334
2391.72114258,0.04050179
2393.64994995,0.04058216
2395.57875732,0.04047132
2397.50756470,0.04044149
2399.43637207,0.04058228
2401.36517944,0.04038805
2403.29398682,0.04038493
2405.22279419,0.04031688
2407.15160156,0.04019522
2409.08040894,0.04024617
2411.00921631,0.04027597
2412.93802368,0.04025795
2414.86683105,0.04011811
2416.79563843,0.04009816
2418.72444580,0.04010001
2420.65325317,0.04001993
2422.58206055,0.03989300
2424.51086792,0.03983376
2426.43967529,0.04003794
2428.36848267,0.04003087
2430.29729004,0.03990293
2432.22609741,0.03991239
2434.15490479,0.03975192
2436.08371216,0.03983923
2438.01251953,0.03985990
2439.94132690,0.03966744
2441.87013428,0.03979620
2443.79894165,0.03974870
2445.72774902,0.03966971
2447.65655640,0.03967739
2449.58536377,0.03957380
2451.51417114,0.03945953
2453.44297852,0.03945011
2455.37178589,0.03949863
2457.30059326,0.03936065
2459.22940063,0.03947311
2461.15820801,0.03947068
2463.08701538,0.03929523
2465.01582275,0.03933541
2466.94463013,0.03928545
2468.87343750,0.03932856
2470.80224487,0.03928394
2472.73105225,0.03915826
2474.65985962,0.03918629
2476.58866699,0.03918620
2478.51747437,0.03904399
2480.44628174,0.03912989
2482.37508911,0.03919330
2484.30389648,0.03897579
2486.23270386,0.03910226
2488.16151123,0.03897204
2490.09031860,0.03882767
2492.01912598,0.03893692
2493.94793335,0.03871598
2495.87674072,0.03875007
2497.80554810,0.03889633
2499.73435547,0.03878170
2501.66316284,0.03867953
2503.59197021,0.03878556
2505.52077759,0.03873861
2507.44958496,0.03867438
2509.37839233,0.03871348
2511.30719971,0.03855760
2513.23600708,0.03858784
2515.16481445,0.03852530
2517.09362183,0.03850847
2519.02242920,0.03859374
2520.95123657,0.03851944
2522.88004395,0.03849617
2524.80885132,0.03839659
2526.73765869,0.03842112
2528.66646606,0.03844089
2530.59527344,0.03838816
2532.52408081,0.03832707
2534.45288818,0.03824499
2536.38169556,0.03822053
2538.31050293,0.03826097
2540.23931030,0.03826188
2542.16811768,0.03811094
2544.09692505,0.03817220
2546.02573242,0.03816528
2547.95453979,0.03802942
2549.88334717,0.03800091
2551.81215454,0.03797799
2553.74096191,0.03792442
2555.66976929,0.03786916
2557.59857666,0.03787109
2559.52738403,0.03775769
2561.45619141,0.03781768
2563.38499878,0.03777673
2565.31380615,0.03775433
2567.24261353,0.03779011
2569.17142090,0.03760586
2571.10022827,0.03769881
2573.02903564,0.03762951
2574.95784302,0.03766904
2576.88665039,0.03764711
2578.81545776,0.03748235
2580.74426514,0.03758200
2582.67307251,0.03743451
2584.60187988,0.03741997
2586.53068726,0.03735195
2588.45949463,0.03735855
2590.38830200,0.03738830
2592.31710937,0.03726551
2594.24591675,0.03730276
2596.17472412,0.03724844
2598.10353149,0.03737088
2600.03233887,0.03730351
2601.96114624,0.03721613
2603.88995361,0.03716781
2605.81876099,0.03703754
2607.74756836,0.03707680
2609.67637573,0.03691969
2611.60518311,0.03700732
2613.53399048,0.03705313
2615.46279785,0.03692258
2617.39160522,0.03698574
2619.32041260,0.03700240
2621.24921997,0.03698162
2623.17802734,0.03690343
2625.10683472,0.03680988
2627.03564209,0.03677333
2628.96444946,0.03675178
2630.89325684,0.03660892
2632.82206421,0.03664134
2634.75087158,0.03659949
2636.67967895,0.03646296
2638.60848633,0.03651500
2640.53729370,0.03647170
2642.46610107,0.03654587
2644.39490845,0.03642061
2646.32371582,0.03638003
2648.25252319,0.03634396
2650.18133057,0.03618659
2652.11013794,0.03643717
2654.03894531,0.03630982
2655.96775269,0.03615728
2657.89656006,0.03623991
2659.82536743,0.03623310
2661.75417480,0.03625296
2663.68298218,0.03608188
2665.61178955,0.03604437
2667.54059692,0.03615177
2669.46940430,0.03607918
2671.39821167,0.03600096
2673.32701904,0.03607857
2675.25582642,0.03589596
2677.18463379,0.03576183
2679.11344116,0.03584803
2681.04224854,0.03576240
2682.97105591,0.03580434
2684.89986328,0.03573976
2686.82867065,0.03564696
2688.75747803,0.03568643
2690.68628540,0.03570265
2692.61509277,0.03568178
2694.54390015,0.03558483
2696.47270752,0.03554590
2698.40151489,0.03547315
2700.33032227,0.03549526
2702.25912964,0.03547925
2704.18793701,0.03541563
2706.11674438,0.03529902
2708.04555176,0.03524495
2709.97435913,0.03539531
2711.90316650,0.03519347
2713.83197388,0.03505873
2715.76078125,0.03513079
2717.68958862,0.03514124
2719.61839600,0.03511475
2721.54720337,0.03497552
2723.47601074,0.03503593
2725.40481812,0.03505182
2727.33362549,0.03490491
2729.26243286,0.03490359
2731.19124023,0.03497800
2733.12004761,0.03488850
2735.04885498,0.03473427
2736.97766235,0.03471154
2738.90646973,0.03480992
2740.83527710,0.03481567
2742.76408447,0.03465467
2744.69289185,0.03467730
2746.62169922,0.03465506
2748.55050659,0.03457423
2750.47931396,0.03459652
2752.40812134,0.03458526
2754.33692871,0.03450252
2756.26573608,0.03435015
2758.19454346,0.03434437
2760.12335083,0.03429959
2762.05215820,0.03433868
2763.98096558,0.03429208
2765.90977295,0.03415909
2767.83858032,0.03426691
2769.76738770,0.03419489
2771.69619507,0.03415747
2773.62500244,0.03407043
2775.55380981,0.03400414
2777.48261719,0.03405326
2779.41142456,0.03392527
2781.34023193,0.03387845
2783.26903931,0.03379989
2785.19784668,0.03377833
2787.12665405,0.03379590
2789.05546143,0.03379989
2790.98426880,0.03371501
2792.91307617,0.03356252
2794.84188354,0.03358960
2796.77069092,0.03347494
2798.69949829,0.03344838
2800.62830566,0.03351015
2802.55711304,0.03341337
2804.48592041,0.03334222
2806.41472778,0.03324201
2808.34353516,0.03322379
2810.27234253,0.03326266
2812.20114990,0.03314217
2814.12995728,0.03308473
2816.05876465,0.03311912
2817.98757202,0.03299489
2819.91637939,0.03306732
2821.84518677,0.03304894
2823.77399414,0.03277514
2825.70280151,0.03282661
2827.63160889,0.03280831
2829.56041626,0.03269792
2831.48922363,0.03276103
2833.41803101,0.03267322
2835.34683838,0.03254655
2837.27564575,0.03260765
2839.20445312,0.03248751
2841.13326050,0.03233926
2843.06206787,0.03236500
2844.99087524,0.03214363
2846.91968262,0.03203692
2848.84848999,0.03191987
2850.77729736,0.03179599
2852.70610474,0.03190603
2854.63491211,0.03176598
2856.56371948,0.03165457
2858.49252686,0.03162660
2860.42133423,0.03168029
2862.35014160,0.03171745
2864.27894897,0.03161654
2866.20775635,0.03161088
2868.13656372,0.03154337
2870.06537109,0.03162642
2871.99417847,0.03157826
2873.92298584,0.03134296
2875.85179321,0.03134263
2877.78060059,0.03127675
2879.70940796,0.03123454
2881.63821533,0.03130989
2883.56702270,0.03129707
2885.49583008,0.03122499
2887.42463745,0.03117694
2889.35344482,0.03121205
2891.28225220,0.03112861
2893.21105957,0.03096902
2895.13986694,0.03099601
2897.06867432,0.03094467
2898.99748169,0.03083485
2900.92628906,0.03076072
2902.85509644,0.03073483
2904.78390381,0.03076071
2906.71271118,0.03057832
2908.64151855,0.03058388
2910.57032593,0.03046483
2912.49913330,0.03024618
2914.42794067,0.03037526
2916.35674805,0.03012613
2918.28555542,0.02993356
2920.21436279,0.03004087
2922.14317017,0.03000392
2924.07197754,0.02988545
2926.00078491,0.02986511
2927.92959229,0.02999299
2929.85839966,0.02989773
2931.78720703,0.02983972
2933.71601440,0.02982843
2935.64482178,0.02983303
2937.57362915,0.02992243
2939.50243652,0.02985987
2941.43124390,0.02983653
2943.36005127,0.02981062
2945.28885864,0.02983482
2947.21766602,0.02974407
2949.14647339,0.02960985
2951.07528076,0.02970732
2953.00408813,0.02969219
2954.93289551,0.02959565
2956.86170288,0.02955944
2958.79051025,0.02949612
2960.71931763,0.02940091
2962.64812500,0.02934186
2964.57693237,0.02921491
2966.50573975,0.02917872
2968.43454712,0.02927391
2970.36335449,0.02930949
2972.29216187,0.02937513
2974.22096924,0.02931857
2976.14977661,0.02935189
2978.07858398,0.02944581
2980.00739136,0.02941181
2981.93619873,0.02943545
2983.86500610,0.02938743
2985.79381348,0.02932396
2987.72262085,0.02932183
2989.65142822,0.02934277
2991.58023560,0.02926400
2993.50904297,0.02918552
2995.43785034,0.02921567
2997.36665771,0.02917738
2999.29546509,0.02913443
3001.22427246,0.02907096
3003.15307983,0.02904879
3005.08188721,0.02900418
3007.01069458,0.02890976
3008.93950195,0.02898524
3010.86830933,0.02894484
3012.79711670,0.02876623
3014.72592407,0.02870725
3016.65473145,0.02865395
3018.58353882,0.02868188
3020.51234619,0.02868121
3022.44115356,0.02866481
3024.36996094,0.02863967
3026.29876831,0.02844475
3028.22757568,0.02852072
3030.15638306,0.02837978
3032.08519043,0.02816718
3034.01399780,0.02838129
3035.94280518,0.02832918
3037.87161255,0.02830191
3039.80041992,0.02821330
3041.72922729,0.02810832
3043.65803467,0.02803815
3045.58684204,0.02795624
3047.51564941,0.02805168
3049.44445679,0.02785316
3051.37326416,0.02800992
3053.30207153,0.02797599
3055.23087891,0.02774277
3057.15968628,0.02786610
3059.08849365,0.02762657
3061.01730103,0.02772556
3062.94610840,0.02774663
3064.87491577,0.02756823
3066.80372314,0.02763239
3068.73253052,0.02754854
3070.66133789,0.02753848
3072.59014526,0.02747402
3074.51895264,0.02733956
3076.44776001,0.02730059
3078.37656738,0.02739839
3080.30537476,0.02722190
3082.23418213,0.02718599
3084.16298950,0.02730709
3086.09179687,0.02708928
3088.02060425,0.02718015
3089.94941162,0.02707043
3091.87821899,0.02696835
3093.80702637,0.02705118
3095.73583374,0.02687904
3097.66464111,0.02688804
3099.59344849,0.02680965
3101.52225586,0.02671675
3103.45106323,0.02677323
3105.37987061,0.02679925
3107.30867798,0.02670855
3109.23748535,0.02661176
3111.16629272,0.02649144
3113.09510010,0.02641770
3115.02390747,0.02645486
3116.95271484,0.02633003
3118.88152222,0.02635880
3120.81032959,0.02630701
3122.73913696,0.02623153
3124.66794434,0.02626477
3126.59675171,0.02610978
3128.52555908,0.02603607
3130.45436645,0.02602264
3132.38317383,0.02594413
3134.31198120,0.02574317
3136.24078857,0.02584546
3138.16959595,0.02586767
3140.09840332,0.02563788
3142.02721069,0.02573347
3143.95601807,0.02569613
3145.88482544,0.02565150
3147.81363281,0.02563528
3149.74244019,0.02546320
3151.67124756,0.02528901
3153.60005493,0.02527993
3155.52886230,0.02528353
3157.45766968,0.02517087
3159.38647705,0.02525178
3161.31528442,0.02514735
3163.24409180,0.02506425
3165.17289917,0.02506266
3167.10170654,0.02493113
3169.03051392,0.02485881
3170.95932129,0.02477298
3172.88812866,0.02478020
3174.81693604,0.02467249
3176.74574341,0.02460576
3178.67455078,0.02458072
3180.60335815,0.02451999
3182.53216553,0.02453184
3184.46097290,0.02449816
3186.38978027,0.02443789
3188.31858765,0.02436014
3190.24739502,0.02437854
3192.17620239,0.02418977
3194.10500977,0.02416286
3196.03381714,0.02422902
3197.96262451,0.02406517
3199.89143188,0.02410549
3201.82023926,0.02398971
3203.74904663,0.02396844
3205.67785400,0.02396663
3207.60666138,0.02385212
3209.53546875,0.02393273
3211.46427612,0.02383892
3213.39308350,0.02373747
3215.32189087,0.02375174
3217.25069824,0.02377312
3219.17950562,0.02366718
3221.10831299,0.02360665
3223.03712036,0.02370756
3224.96592773,0.02360345
3226.89473511,0.02350576
3228.82354248,0.02354089
3230.75234985,0.02343109
3232.68115723,0.02338398
3234.60996460,0.02349355
3236.53877197,0.02340709
3238.46757935,0.02330499
3240.39638672,0.02330139
3242.32519409,0.02332643
3244.25400146,0.02329916
3246.18280884,0.02322677
3248.11161621,0.02327787
3250.04042358,0.02320653
3251.96923096,0.02316478
3253.89803833,0.02306547
3255.82684570,0.02304057
3257.75565308,0.02325186
3259.68446045,0.02319167
3261.61326782,0.02308116
3263.54207520,0.02302990
3265.47088257,0.02303291
3267.39968994,0.02305894
3269.32849731,0.02304436
3271.25730469,0.02296411
3273.18611206,0.02288042
3275.11491943,0.02295507
3277.04372681,0.02288084
3278.97253418,0.02287059
3280.90134155,0.02295185
3282.83014893,0.02288634
3284.75895630,0.02280696
3286.68776367,0.02288627
3288.61657104,0.02287177
3290.54537842,0.02268201
3292.47418579,0.02272599
3294.40299316,0.02265618
3296.33180054,0.02265501
3298.26060791,0.02267938
3300.18941528,0.02260852
3302.11822266,0.02265309
3304.04703003,0.02253474
3305.97583740,0.02262822
3307.90464478,0.02262854
3309.83345215,0.02254858
3311.76225952,0.02253500
3313.69106689,0.02242027
3315.61987427,0.02255881
3317.54868164,0.02254796
3319.47748901,0.02240650
3321.40629639,0.02239613
3323.33510376,0.02241780
3325.26391113,0.02234505
3327.19271851,0.02233050
3329.12152588,0.02237074
3331.05033325,0.02228210
3332.97914062,0.02227834
3334.90794800,0.02217036
3336.83675537,0.02211248
3338.76556274,0.02217496
3340.69437012,0.02218089
3342.62317749,0.02212853
3344.55198486,0.02208851
3346.48079224,0.02212512
3348.40959961,0.02203326
3350.33840698,0.02192732
3352.26721436,0.02189131
3354.19602173,0.02198176
3356.12482910,0.02186535
3358.05363647,0.02178828
3359.98244385,0.02190093
3361.91125122,0.02172493
3363.84005859,0.02176145
3365.76886597,0.02174714
3367.69767334,0.02166145
3369.62648071,0.02173778
3371.55528809,0.02164518
3373.48409546,0.02159711
3375.41290283,0.02157974
3377.34171020,0.02151951
3379.27051758,0.02147009
3381.19932495,0.02151838
3383.12813232,0.02148287
3385.05693970,0.02137248
3386.98574707,0.02136693
3388.91455444,0.02147753
3390.84336182,0.02134818
3392.77216919,0.02111851
3394.70097656,0.02128902
3396.62978394,0.02114842
3398.55859131,0.02104575
3400.48739868,0.02111191
3402.41620605,0.02105121
3404.34501343,0.02112834
3406.27382080,0.02102361
3408.20262817,0.02104908
3410.13143555,0.02099385
3412.06024292,0.02094737
3413.98905029,0.02090943
3415.91785767,0.02083114
3417.84666504,0.02097887
3419.77547241,0.02077657
3421.70427979,0.02067887
3423.63308716,0.02073583
3425.56189453,0.02070124
3427.49070190,0.02071133
3429.41950928,0.02070096
3431.34831665,0.02060529
3433.27712402,0.02053029
3435.20593140,0.02061059
3437.13473877,0.02051453
3439.06354614,0.02056788
3440.99235352,0.02038974
3442.92116089,0.02024578
3444.84996826,0.02043462
3446.77877563,0.02015873
3448.70758301,0.02024485
3450.63639038,0.02053021
3452.56519775,0.02036860
3454.49400513,0.02023591
3456.42281250,0.02027646
3458.35161987,0.02026790
3460.28042725,0.02021312
3462.20923462,0.02023245
3464.13804199,0.02017265
3466.06684937,0.02011375
3467.99565674,0.02008232
3469.92446411,0.02015406
3471.85327148,0.02016944
3473.78207886,0.02008849
3475.71088623,0.01996690
3477.63969360,0.02005151
3479.56850098,0.02015456
3481.49730835,0.01980620
3483.42611572,0.01986024
3485.35492310,0.01999948
3487.28373047,0.01991334
3489.21253784,0.01989924
3491.14134521,0.01990821
3493.07015259,0.01997104
3494.99895996,0.01990107
3496.92776733,0.01989326
3498.85657471,0.01977691
3500.78538208,0.01989477
3502.71418945,0.01961539
3504.64299683,0.01952624
3506.57180420,0.02010566
3508.50061157,0.01970541
3510.42941895,0.01965876
3512.35822632,0.01983558
3514.28703369,0.01979877
3516.21584106,0.01995716
3518.14464844,0.01974303
3520.07345581,0.01985704
3522.00226318,0.01973922
3523.93107056,0.01949100
3525.85987793,0.01954923
3527.78868530,0.01957454
3529.71749268,0.01957086
3531.64630005,0.01968675
3533.57510742,0.01990028
3535.50391479,0.01970502
3537.43272217,0.01959760
3539.36152954,0.01980331
3541.29033691,0.01987550
3543.21914429,0.01964768
3545.14795166,0.01920524
3547.07675903,0.01891281
3549.00556641,0.01956347
3550.93437378,0.01977347
3552.86318115,0.01914305
3554.79198853,0.01966522
3556.72079590,0.01970601
3558.64960327,0.01953106
3560.57841064,0.01962691
3562.50721802,0.01941631
3564.43602539,0.01960161
3566.36483276,0.01833948
3568.29364014,0.01779873
3570.22244751,0.01927904
3572.15125488,0.01970346
3574.08006226,0.01947888
3576.00886963,0.01963158
3577.93767700,0.01960497
3579.86648437,0.01955961
3581.79529175,0.01954529
3583.72409912,0.01960403
3585.65290649,0.01925445
3587.58171387,0.01773443
3589.51052124,0.01815540
3591.43932861,0.01966948
3593.36813599,0.01912209
3595.29694336,0.01880154
3597.22575073,0.01912337
3599.15455811,0.01936681
3601.08336548,0.01925756
3603.01217285,0.01926899
3604.94098022,0.01966260
3606.86978760,0.01909696
3608.79859497,0.01788075
3610.72740234,0.01832959
3612.65620972,0.01878937
3614.58501709,0.01818570
3616.51382446,0.01959649
3618.44263184,0.01815283
3620.37143921,0.01740693
3622.30024658,0.01971932
3624.22905395,0.01912209
3626.15786133,0.01986760
3628.08666870,0.01709819
3630.01547607,0.01562073
3631.94428345,0.01946323
3633.87309082,0.01892012
3635.80189819,0.01915846
3637.73070557,0.01962353
3639.65951294,0.01934189
3641.58832031,0.01955616
3643.51712769,0.01919502
3645.44593506,0.01935503
3647.37474243,0.01760578
3649.30354980,0.01615002
3651.23235718,0.01634998
3653.16116455,0.01931206
3655.08997192,0.01897214
3657.01877930,0.01708842
3658.94758667,0.01970440
3660.87639404,0.01931502
3662.80520142,0.01951540
3664.73400879,0.01947852
3666.66281616,0.01923073
3668.59162354,0.01871128
3670.52043091,0.01550099
3672.44923828,0.01850621
3674.37804565,0.01767764
3676.30685303,0.01478720
3678.23566040,0.01836362
3680.16446777,0.01876123
3682.09327515,0.01867584
3684.02208252,0.01931887
3685.95088989,0.01909456
3687.87969727,0.01715951
3689.80850464,0.01583767
3691.73731201,0.01798253
3693.66611938,0.01849697
3695.59492676,0.01890641
3697.52373413,0.01883339
3699.45254150,0.01872975
3701.38134888,0.01835303
3703.31015625,0.01767603
3705.23896362,0.01927824
3707.16777100,0.01838292
3709.09657837,0.01807933
3711.02538574,0.01704042
3712.95419312,0.01599783
3714.88300049,0.01863798
3716.81180786,0.01833014
3718.74061523,0.01846106
3720.66942261,0.01802873
3722.59822998,0.01747702
3724.52703735,0.01817757
3726.45584473,0.01689505
3728.38465210,0.01825102
3730.31345947,0.01804052
3732.24226685,0.01674293
3734.17107422,0.01631804
3736.09988159,0.01541952
3738.02868896,0.01640370
3739.95749634,0.01770042
3741.88630371,0.01848585
3743.81511108,0.01456019
3745.74391846,0.01366013
3747.67272583,0.01751495
3749.60153320,0.01530347
3751.53034058,0.01416592
3753.45914795,0.01614844
3755.38795532,0.01733042
3757.31676270,0.01778627
3759.24557007,0.01653164
3761.17437744,0.01720209
3763.10318481,0.01820232
3765.03199219,0.01714667
3766.96079956,0.01745264
3768.88960693,0.01725220
3770.81841431,0.01644929
3772.74722168,0.01767417
3774.67602905,0.01777895
3776.60483643,0.01775069
3778.53364380,0.01735866
3780.46245117,0.01672368
3782.39125854,0.01771060
3784.32006592,0.01736061
3786.24887329,0.01728178
3788.17768066,0.01762031
3790.10648804,0.01753402
3792.03529541,0.01746410
3793.96410278,0.01770952
3795.89291016,0.01673611
3797.82171753,0.01651733
3799.75052490,0.01735491
3801.67933228,0.01397186
3803.60813965,0.01616505
3805.53694702,0.01750830
3807.46575439,0.01442415
3809.39456177,0.01726931
3811.32336914,0.01688459
3813.25217651,0.01745173
3815.18098389,0.01588925
3817.10979126,0.01402727
3819.03859863,0.01757612
3820.96740601,0.01434946
3822.89621338,0.01506709
3824.82502075,0.01744071
3826.75382812,0.01587390
3828.68263550,0.01704923
3830.61144287,0.01636082
3832.54025024,0.01593245
3834.46905762,0.01612194
3836.39786499,0.01539986
3838.32667236,0.01410636
3840.25547974,0.01503409
3842.18428711,0.01617019
3844.11309448,0.01552444
3846.04190186,0.01675256
3847.97070923,0.01643273
3849.89951660,0.01647004
3851.82832397,0.01492673
3853.75713135,0.01131893
3855.68593872,0.01329077
3857.61474609,0.01648139
3859.54355347,0.01618774
3861.47236084,0.01598161
3863.40116821,0.01564553
3865.32997559,0.01460866
3867.25878296,0.01616896
3869.18759033,0.01492140
3871.11639770,0.01378524
3873.04520508,0.01624104
3874.97401245,0.01502843
3876.90281982,0.01610599
3878.83162720,0.01634306
3880.76043457,0.01407308
3882.68924194,0.01620735
3884.61804932,0.01517616
3886.54685669,0.01396773
3888.47566406,0.01616216
3890.40447144,0.01537712
3892.33327881,0.01458596
3894.26208618,0.01576798
3896.19089355,0.01607934
3898.11970093,0.01533807
3900.04850830,0.01449411
3901.97731567,0.01442674
3903.90612305,0.01424035
3905.83493042,0.01441291
3907.76373779,0.01573830
3909.69254517,0.01584503
3911.62135254,0.01573527
3913.55015991,0.01592653
3915.47896728,0.01533656
3917.40777466,0.01487706
3919.33658203,0.01485879
3921.26538940,0.01541000
3923.19419678,0.01531277
3925.12300415,0.01512108
3927.05181152,0.01534288
3928.98061890,0.01532516
3930.90942627,0.01511075
3932.83823364,0.01470996
3934.76704102,0.01519321
3936.69584839,0.01531132
3938.62465576,0.01516927
3940.55346313,0.01538874
3942.48227051,0.01484507
3944.41107788,0.01483497
3946.33988525,0.01514761
3948.26869263,0.01482842
3950.19750000,0.01480027
3952.12630737,0.01501286
3954.05511475,0.01498420
3955.98392212,0.01501560
3957.91272949,0.01494261
3959.84153687,0.01496341
3961.77034424,0.01493529
3963.69915161,0.01481390
3965.62795898,0.01504411
3967.55676636,0.01487596
3969.48557373,0.01482459
3971.41438110,0.01489754
3973.34318848,0.01477685
3975.27199585,0.01474974
3977.20080322,0.01462397
3979.12961060,0.01471257
3981.05841797,0.01470863
3982.98722534,0.01474358
3984.91603271,0.01466373
3986.84484009,0.01462229
3988.77364746,0.01464641
3990.70245483,0.01446824
3992.63126221,0.01457019
3994.56006958,0.01442369
3996.48887695,0.01442834
3998.41768433,0.01457646
4000.34649170,0.01452753
4002.27529907,0.01446442
4004.20410645,0.01442085
4006.13291382,0.01444121
4008.06172119,0.01423395
4009.99052856,0.01430481
4011.91933594,0.01429154
4013.84814331,0.01421450
4015.77695068,0.01427068
4017.70575806,0.01421618
4019.63456543,0.01419354
4021.56337280,0.01406312
4023.49218018,0.01411700
4025.42098755,0.01403501
4027.34979492,0.01412070
4029.27860229,0.01416878
4031.20740967,0.01395693
4033.13621704,0.01405901
4035.06502441,0.01402309
4036.99383179,0.01400016
4038.92263916,0.01394879
4040.85144653,0.01394222
4042.78025391,0.01390750
4044.70906128,0.01378296
4046.63786865,0.01380839
4048.56667603,0.01376551
4050.49548340,0.01376844
4052.42429077,0.01369991
4054.35309814,0.01371797
4056.28190552,0.01371201
4058.21071289,0.01368175
4060.13952026,0.01365423
4062.06832764,0.01361535
4063.99713501,0.01367606
4065.92594238,0.01357117
4067.85474976,0.01358838
4069.78355713,0.01354129
4071.71236450,0.01356460
4073.64117187,0.01354927
4075.56997925,0.01341252
4077.49878662,0.01348130
4079.42759399,0.01336179
4081.35640137,0.01330712
4083.28520874,0.01328016
4085.21401611,0.01330637
4087.14282349,0.01327612
4089.07163086,0.01320324
4091.00043823,0.01329283
4092.92924561,0.01325203
4094.85805298,0.01326821
4096.78686035,0.01318435
4098.71566772,0.01314694
4100.64447510,0.01313401
4102.57328247,0.01310289
4104.50208984,0.01307659
4106.43089722,0.01293540
4108.35970459,0.01298424
4110.28851196,0.01303719
4112.21731934,0.01303452
4114.14612671,0.01292616
4116.07493408,0.01292422
4118.00374145,0.01286816
4119.93254883,0.01282331
4121.86135620,0.01291871
4123.79016357,0.01276469
4125.71897095,0.01284141
4127.64777832,0.01274834
4129.57658569,0.01267941
4131.50539307,0.01275659
4133.43420044,0.01259757
4135.36300781,0.01268318
4137.29181519,0.01261541
4139.22062256,0.01254306
4141.14942993,0.01255691
4143.07823730,0.01255675
4145.00704468,0.01258433
4146.93585205,0.01243899
4148.86465942,0.01242092
4150.79346680,0.01245898
4152.72227417,0.01239578
4154.65108154,0.01235542
4156.57988892,0.01239112
4158.50869629,0.01229488
4160.43750366,0.01227065
4162.36631103,0.01229744
4164.29511841,0.01221681
4166.22392578,0.01223700
4168.15273315,0.01220836
4170.08154053,0.01225124
4172.01034790,0.01220293
4173.93915527,0.01210673
4175.86796265,0.01207013
4177.79677002,0.01201164
4179.72557739,0.01208244
4181.65438477,0.01210179
4183.58319214,0.01209811
4185.51199951,0.01205131
4187.44080688,0.01203335
4189.36961426,0.01198808
4191.29842163,0.01191733
4193.22722900,0.01191253
4195.15603638,0.01188505
4197.08484375,0.01188381
4199.01365112,0.01183950
4200.94245850,0.01190308
4202.87126587,0.01184595
4204.80007324,0.01175056
4206.72888062,0.01174040
4208.65768799,0.01164616
4210.58649536,0.01165243
4212.51530273,0.01165443
4214.44411011,0.01170918
4216.37291748,0.01165745
4218.30172485,0.01160261
4220.23053223,0.01166646
4222.15933960,0.01163032
4224.08814697,0.01156664
4226.01695435,0.01150673
4227.94576172,0.01149159
4229.87456909,0.01144573
4231.80337646,0.01147178
4233.73218384,0.01147856
4235.66099121,0.01149604
4237.58979858,0.01147062
4239.51860596,0.01140867
4241.44741333,0.01137306
4243.37622070,0.01119768
4245.30502808,0.01133702
4247.23383545,0.01135592
4249.16264282,0.01125611
4251.09145020,0.01125668
4253.02025757,0.01119032
4254.94906494,0.01125586
4256.87787231,0.01105527
4258.80667969,0.01115521
4260.73548706,0.01128608
4262.66429443,0.01109098
4264.59310181,0.01109204
4266.52190918,0.01103373
4268.45071655,0.01102317
4270.37952393,0.01095003
4272.30833130,0.01100145
4274.23713867,0.01105243
4276.16594604,0.01091367
4278.09475342,0.01094373
4280.02356079,0.01095529
4281.95236816,0.01093841
4283.88117554,0.01087496
4285.80998291,0.01083569
4287.73879028,0.01082542
4289.66759766,0.01078131
4291.59640503,0.01073606
4293.52521240,0.01077060
4295.45401978,0.01075971
4297.38282715,0.01062481
4299.31163452,0.01073295
4301.24044189,0.01071254
4303.16924927,0.01057782
4305.09805664,0.01060104
4307.02686401,0.01058811
4308.95567139,0.01056841
4310.88447876,0.01049553
4312.81328613,0.01050331
4314.74209351,0.01051976
4316.67090088,0.01049247
4318.59970825,0.01047611
4320.52851562,0.01046416
4322.45732300,0.01049200
4324.38613037,0.01041836
4326.31493774,0.01036246
4328.24374512,0.01042438
4330.17255249,0.01034447
4332.10135986,0.01019702
4334.03016724,0.01021872
4335.95897461,0.01017227
4337.88778198,0.01018852
4339.81658936,0.01024194
4341.74539673,0.01020202
4343.67420410,0.01026405
4345.60301147,0.01019193
4347.53181885,0.01017363
4349.46062622,0.01020124
4351.38943359,0.01011676
4353.31824097,0.01007783
4355.24704834,0.01004557
4357.17585571,0.00999315
4359.10466309,0.00996204
4361.03347046,0.01005617
4362.96227783,0.00996117
4364.89108520,0.00988162
4366.81989258,0.00996804
4368.74869995,0.00988562
4370.67750732,0.00983068
4372.60631470,0.00984210
4374.53512207,0.00985109
4376.46392944,0.00980981
4378.39273682,0.00983090
4380.32154419,0.00980026
4382.25035156,0.00970943
4384.17915894,0.00974914
4386.10796631,0.00972901
4388.03677368,0.00971225
4389.96558105,0.00967174
4391.89438843,0.00968842
4393.82319580,0.00968735
4395.75200317,0.00958940
4397.68081055,0.00959358
4399.60961792,0.00958315
4401.53842529,0.00953644
4403.46723267,0.00952150
4405.39604004,0.00958045
4407.32484741,0.00950900
4409.25365478,0.00947120
4411.18246216,0.00952406
4413.11126953,0.00944937
4415.04007690,0.00944893
4416.96888428,0.00940361
4418.89769165,0.00941869
4420.82649902,0.00944716
4422.75530640,0.00934531
4424.68411377,0.00931700
4426.61292114,0.00932284
4428.54172852,0.00931977
4430.47053589,0.00925751
4432.39934326,0.00922565
4434.32815063,0.00920404
4436.25695801,0.00918425
4438.18576538,0.00921562
4440.11457275,0.00920253
4442.04338013,0.00914812
4443.97218750,0.00908647
4445.90099487,0.00904290
4447.82980225,0.00902293
4449.75860962,0.00906261
4451.68741699,0.00906156
4453.61622437,0.00907450
4455.54503174,0.00904113
4457.47383911,0.00896747
4459.40264648,0.00906390
4461.33145386,0.00902155
4463.26026123,0.00890735
4465.18906860,0.00891136
4467.11787598,0.00888784
4469.04668335,0.00888905
4470.97549072,0.00890948
4472.90429810,0.00887395
4474.83310547,0.00881361
4476.76191284,0.00877099
4478.69072021,0.00879806
4480.61952759,0.00882798
4482.54833496,0.00868759
4484.47714233,0.00866517
4486.40594971,0.00871576
4488.33475708,0.00869318
4490.26356445,0.00876404
4492.19237183,0.00869636
4494.12117920,0.00861636
4496.04998657,0.00857783
4497.97879395,0.00854610
4499.90760132,0.00850181
4501.83640869,0.00845272
4503.76521606,0.00859441
4505.69402344,0.00852992
4507.62283081,0.00841722
4509.55163818,0.00849526
4511.48044556,0.00847397
4513.40925293,0.00845483
4515.33806030,0.00844099
4517.26686768,0.00844935
4519.19567505,0.00843771
4521.12448242,0.00833986
4523.05328979,0.00838982
4524.98209717,0.00839861
4526.91090454,0.00825320
4528.83971191,0.00827721
4530.76851929,0.00827399
4532.69732666,0.00825613
4534.62613403,0.00829521
4536.55494141,0.00820923
4538.48374878,0.00823313
4540.41255615,0.00823841
4542.34136353,0.00822120
4544.27017090,0.00818965
4546.19897827,0.00804838
4548.12778564,0.00805710
4550.05659302,0.00809030
4551.98540039,0.00808189
4553.91420776,0.00805336
4555.84301514,0.00803568
4557.77182251,0.00807707
4559.70062988,0.00806089
4561.62943726,0.00801251
4563.55824463,0.00800009
4565.48705200,0.00795956
4567.41585937,0.00790648
4569.34466675,0.00795489
4571.27347412,0.00789891
4573.20228149,0.00783457
4575.13108887,0.00789330
4577.05989624,0.00786916
4578.98870361,0.00783701
4580.91751099,0.00785676
4582.84631836,0.00787041
4584.77512573,0.00781460
4586.70393311,0.00776356
4588.63274048,0.00771347
4590.56154785,0.00769594
4592.49035522,0.00772870
4594.41916260,0.00774933
4596.34796997,0.00777166
4598.27677734,0.00766503
4600.20558472,0.00759307
4602.13439209,0.00760072
4604.06319946,0.00764612
4605.99200684,0.00768707
4607.92081421,0.00763037
4609.84962158,0.00756707
4611.77842895,0.00748809
4613.70723633,0.00750248
4615.63604370,0.00751482
4617.56485107,0.00746250
4619.49365845,0.00739951
4621.42246582,0.00744085
4623.35127319,0.00743748
4625.28008057,0.00737325
4627.20888794,0.00753753
4629.13769531,0.00741112
4631.06650269,0.00727149
4632.99531006,0.00734304
4634.92411743,0.00737659
4636.85292480,0.00745603
4638.78173218,0.00725828
4640.71053955,0.00721629
4642.63934692,0.00728533
4644.56815430,0.00724059
4646.49696167,0.00728830
4648.42576904,0.00720760
4650.35457642,0.00719195
4652.28338379,0.00720895
4654.21219116,0.00711285
4656.14099853,0.00710144
4658.06980591,0.00716449
4659.99861328,0.00713780
4661.92742065,0.00714123
4663.85622803,0.00712563
4665.78503540,0.00709862
4667.71384277,0.00712400
4669.64265015,0.00700616
4671.57145752,0.00701729
4673.50026489,0.00707532
4675.42907227,0.00703821
4677.35787964,0.00696735
4679.28668701,0.00694276
4681.21549438,0.00694704
4683.14430176,0.00686880
4685.07310913,0.00693001
4687.00191650,0.00691241
4688.93072388,0.00691271
4690.85953125,0.00683076
4692.78833862,0.00674015
4694.71714600,0.00687709
4696.64595337,0.00685030
4698.57476074,0.00687370
4700.50356812,0.00680117
4702.43237549,0.00674957
4704.36118286,0.00673997
4706.28999023,0.00668551
4708.21879761,0.00677508
4710.14760498,0.00668879
4712.07641235,0.00670218
4714.00521973,0.00675460
4715.93402710,0.00673348
4717.86283447,0.00662947
4719.79164185,0.00659317
4721.72044922,0.00667505
4723.64925659,0.00658540
4725.57806396,0.00663824
4727.50687134,0.00663179
4729.43567871,0.00662692
4731.36448608,0.00659843
4733.29329346,0.00650563
4735.22210083,0.00647762
4737.15090820,0.00643132
4739.07971558,0.00653208
4741.00852295,0.00645550
4742.93733032,0.00647401
4744.86613770,0.00642597
4746.79494507,0.00636300
4748.72375244,0.00645521
4750.65255981,0.00629773
4752.58136719,0.00641226
4754.51017456,0.00639404
4756.43898193,0.00630558
4758.36778931,0.00637828
4760.29659668,0.00629325
4762.22540405,0.00633501
4764.15421143,0.00630167
4766.08301880,0.00624943
4768.01182617,0.00626088
4769.94063354,0.00627153
4771.86944092,0.00621577
4773.79824829,0.00623467
4775.72705566,0.00630547
4777.65586304,0.00623097
4779.58467041,0.00626235
4781.51347778,0.00626797
4783.44228516,0.00619725
4785.37109253,0.00606395
4787.29989990,0.00608964
4789.22870728,0.00615540
4791.15751465,0.00604060
4793.08632202,0.00608357
4795.01512939,0.00610347
4796.94393677,0.00608274
4798.87274414,0.00603869
4800.80155151,0.00604950
4802.73035889,0.00608981
4804.65916626,0.00603022
4806.58797363,0.00601430
4808.51678101,0.00596297
4810.44558838,0.00598203
4812.37439575,0.00599392
4814.30320312,0.00598140
4816.23201050,0.00595857
4818.16081787,0.00594409
4820.08962524,0.00596241
4822.01843262,0.00590200
4823.94723999,0.00583981
4825.87604736,0.00579741
4827.80485474,0.00591748
4829.73366211,0.00588477
4831.66246948,0.00583005
4833.59127686,0.00589229
4835.52008423,0.00575929
4837.44889160,0.00580128
4839.37769897,0.00578768
4841.30650635,0.00573070
4843.23531372,0.00580406
4845.16412109,0.00574732
4847.09292847,0.00574116
4849.02173584,0.00576258
4850.95054321,0.00570305
4852.87935059,0.00562938
4854.80815796,0.00564009
4856.73696533,0.00562335
4858.66577270,0.00560640
4860.59458008,0.00563953
4862.52338745,0.00559041
4864.45219482,0.00560040
4866.38100220,0.00562830
4868.30980957,0.00554439
4870.23861694,0.00552372
4872.16742432,0.00563803
4874.09623169,0.00555843
4876.02503906,0.00540831
4877.95384644,0.00549748
4879.88265381,0.00550997
4881.81146118,0.00542139
4883.74026855,0.00544135
4885.66907593,0.00540527
4887.59788330,0.00542255
4889.52669067,0.00557357
4891.45549805,0.00544415
4893.38430542,0.00535669
4895.31311279,0.00546552
4897.24192017,0.00540021
4899.17072754,0.00536907
4901.09953491,0.00534957
4903.02834228,0.00533994
4904.95714966,0.00532660
4906.88595703,0.00532103
4908.81476440,0.00534452
4910.74357178,0.00530891
4912.67237915,0.00533545
4914.60118652,0.00526274
4916.52999390,0.00520482
4918.45880127,0.00520510
4920.38760864,0.00521805
4922.31641602,0.00520451
4924.24522339,0.00514253
4926.17403076,0.00522118
4928.10283813,0.00517144
4930.03164551,0.00510861
4931.96045288,0.00512259
4933.88926025,0.00516810
4935.81806763,0.00517448
4937.74687500,0.00506471
4939.67568237,0.00514847
4941.60448975,0.00513826
4943.53329712,0.00509949
4945.46210449,0.00509186
4947.39091187,0.00501186
4949.31971924,0.00506490
4951.24852661,0.00500711
4953.17733398,0.00501339
4955.10614136,0.00502212
4957.03494873,0.00493697
4958.96375610,0.00498365
4960.89256348,0.00494846
4962.82137085,0.00497273
4964.75017822,0.00502056
4966.67898560,0.00491699
4968.60779297,0.00490718
4970.53660034,0.00491818
4972.46540771,0.00489826
4974.39421509,0.00491620
4976.32302246,0.00485711
4978.25182983,0.00481990
4980.18063721,0.00487137
4982.10944458,0.00489055
4984.03825195,0.00487433
4985.96705933,0.00487295
4987.89586670,0.00483689
4989.82467407,0.00482527
4991.75348145,0.00485798
4993.68228882,0.00479788
4995.61109619,0.00473137
4997.53990356,0.00463277
4999.46871094,0.00464212
5001.39751831,0.00471603
5003.32632568,0.00465205
5005.25513306,0.00471204
5007.18394043,0.00466877
5009.11274780,0.00463622
5011.04155518,0.00466110
5012.97036255,0.00456980
5014.89916992,0.00466854
5016.82797729,0.00463821
5018.75678467,0.00462058
5020.68559204,0.00465227
5022.61439941,0.00450955
5024.54320679,0.00452855
5026.47201416,0.00453045
5028.40082153,0.00452752
5030.32962891,0.00457008
5032.25843628,0.00457938
5034.18724365,0.00459254
5036.11605103,0.00447962
5038.04485840,0.00448197
5039.97366577,0.00455025
5041.90247314,0.00443353
5043.83128052,0.00443606
5045.76008789,0.00451110
5047.68889526,0.00448691
5049.61770264,0.00451209
5051.54651001,0.00442280
5053.47531738,0.00432233
5055.40412476,0.00436944
5057.33293213,0.00439379
5059.26173950,0.00435004
5061.19054687,0.00428871
5063.11935425,0.00436841
5065.04816162,0.00437069
5066.97696899,0.00430084
5068.90577637,0.00437943
5070.83458374,0.00434406
5072.76339111,0.00431710
5074.69219849,0.00435103
5076.62100586,0.00426521
5078.54981323,0.00425319
5080.47862061,0.00426630
5082.40742798,0.00427440
5084.33623535,0.00430748
5086.26504272,0.00420626
5088.19385010,0.00422024
5090.12265747,0.00423221
5092.05146484,0.00414320
5093.98027222,0.00418402
5095.90907959,0.00409459
5097.83788696,0.00410037
5099.76669434,0.00419211
5101.69550171,0.00413984
5103.62430908,0.00408350
5105.55311645,0.00410108
5107.48192383,0.00421776
5109.41073120,0.00406700
5111.33953857,0.00407156
5113.26834595,0.00422904
5115.19715332,0.00409884
5117.12596069,0.00407682
5119.05476807,0.00406924
5120.98357544,0.00412986
5122.91238281,0.00412490
5124.84119019,0.00403602
5126.76999756,0.00403828
5128.69880493,0.00392388
5130.62761230,0.00395860
5132.55641968,0.00402597
5134.48522705,0.00402626
5136.41403442,0.00403040
5138.34284180,0.00399689
5140.27164917,0.00402110
5142.20045654,0.00397937
5144.12926392,0.00387397
5146.05807129,0.00384494
5147.98687866,0.00393625
5149.91568603,0.00394791
5151.84449341,0.00390175
5153.77330078,0.00388684
5155.70210815,0.00386874
5157.63091553,0.00386340
5159.55972290,0.00380143
5161.48853027,0.00387130
5163.41733765,0.00390945
5165.34614502,0.00380994
5167.27495239,0.00386331
5169.20375977,0.00386126
5171.13256714,0.00375552
5173.06137451,0.00382336
5174.99018188,0.00384701
5176.91898926,0.00373410
5178.84779663,0.00378522
5180.77660400,0.00380830
5182.70541138,0.00371551
5184.63421875,0.00370842
5186.56302612,0.00375346
5188.49183350,0.00378046
5190.42064087,0.00371536
5192.34944824,0.00366456
5194.27825562,0.00366735
5196.20706299,0.00365679
5198.13587036,0.00367895
5200.06467773,0.00370264
5201.99348511,0.00367475
5203.92229248,0.00367666
5205.85109985,0.00360142
5207.77990723,0.00347889
5209.70871460,0.00358226
5211.63752197,0.00361005
5213.56632935,0.00355619
5215.49513672,0.00357342
5217.42394409,0.00353294
5219.35275146,0.00357680
5221.28155884,0.00358864
5223.21036621,0.00353383
5225.13917358,0.00347344
5227.06798096,0.00350914
5228.99678833,0.00359828
5230.92559570,0.00349294
5232.85440308,0.00342772
5234.78321045,0.00347189
5236.71201782,0.00347609
5238.64082520,0.00344604
5240.56963257,0.00348833
5242.49843994,0.00352616
5244.42724731,0.00342368
5246.35605469,0.00336187
5248.28486206,0.00333611
5250.21366943,0.00338742
5252.14247681,0.00349652
5254.07128418,0.00344070
5256.00009155,0.00334861
5257.92889893,0.00333959
5259.85770630,0.00334928
5261.78651367,0.00335433
5263.71532104,0.00330957
5265.64412842,0.00332221
5267.57293579,0.00335981
5269.50174316,0.00325175
5271.43055054,0.00327481
5273.35935791,0.00334852
5275.28816528,0.00329642
5277.21697266,0.00332540
5279.14578003,0.00332166
5281.07458740,0.00332894
5283.00339478,0.00330524
5284.93220215,0.00323056
5286.86100952,0.00330425
5288.78981689,0.00331857
5290.71862427,0.00325818
5292.64743164,0.00327330
5294.57623901,0.00330330
5296.50504639,0.00324824
5298.43385376,0.00319396
5300.36266113,0.00323919
5302.29146851,0.00317879
5304.22027588,0.00314404
5306.14908325,0.00316854
5308.07789062,0.00308422
5310.00669800,0.00313287
5311.93550537,0.00316043
5313.86431274,0.00317465
5315.79312012,0.00320237
5317.72192749,0.00310398
5319.65073486,0.00322090
5321.57954224,0.00324660
5323.50834961,0.00317479
5325.43715698,0.00310301
5327.36596436,0.00294390
5329.29477173,0.00306760
5331.22357910,0.00306277
5333.15238647,0.00303902
5335.08119385,0.00309932
5337.01000122,0.00300127
5338.93880859,0.00298962
5340.86761597,0.00297911
5342.79642334,0.00300618
5344.72523071,0.00294021
5346.65403809,0.00298279
5348.58284546,0.00303925
5350.51165283,0.00296147
5352.44046020,0.00298992
5354.36926758,0.00286564
5356.29807495,0.00292931
5358.22688232,0.00298677
5360.15568970,0.00298444
5362.08449707,0.00305934
5364.01330444,0.00293781
5365.94211182,0.00297920
5367.87091919,0.00296712
5369.79972656,0.00295072
5371.72853394,0.00290272
5373.65734131,0.00284112
5375.58614868,0.00293263
5377.51495605,0.00280529
5379.44376343,0.00286979
5381.37257080,0.00295706
5383.30137817,0.00289005
5385.23018555,0.00287544
5387.15899292,0.00275871
5389.08780029,0.00282440
5391.01660767,0.00286266
5392.94541504,0.00278699
5394.87422241,0.00283836
5396.80302978,0.00280223
5398.73183716,0.00279581
5400.66064453,0.00287593
5402.58945190,0.00281278
5404.51825928,0.00280605
5406.44706665,0.00282776
5408.37587402,0.00276126
5410.30468140,0.00276750
5412.23348877,0.00272323
5414.16229614,0.00268827
5416.09110352,0.00275173
5418.01991089,0.00279875
5419.94871826,0.00273071
5421.87752563,0.00270597
5423.80633301,0.00276416
5425.73514038,0.00271859
5427.66394775,0.00269035
5429.59275513,0.00262335
5431.52156250,0.00270611
5433.45036987,0.00272501
5435.37917725,0.00254978
5437.30798462,0.00266799
5439.23679199,0.00265303
5441.16559936,0.00256575
5443.09440674,0.00264262
5445.02321411,0.00264308
5446.95202148,0.00262993
5448.88082886,0.00261807
5450.80963623,0.00266628
5452.73844360,0.00266239
5454.66725098,0.00265081
5456.59605835,0.00263745
5458.52486572,0.00259318
5460.45367310,0.00259182
5462.38248047,0.00258354
5464.31128784,0.00264259
5466.24009521,0.00264771
5468.16890259,0.00258392
5470.09770996,0.00258512
5472.02651733,0.00262885
5473.95532471,0.00255541
5475.88413208,0.00246722
5477.81293945,0.00254258
5479.74174683,0.00256400
5481.67055420,0.00251071
5483.59936157,0.00248639
5485.52816895,0.00250505
5487.45697632,0.00245082
5489.38578369,0.00241405
5491.31459106,0.00246552
5493.24339844,0.00242866
5495.17220581,0.00244760
5497.10101318,0.00246671
5499.02982056,0.00245763
5500.95862793,0.00247549
5502.88743530,0.00246499
5504.81624268,0.00246353
5506.74505005,0.00249350
5508.67385742,0.00254167
5510.60266479,0.00242061
5512.53147217,0.00242254
5514.46027954,0.00251049
5516.38908691,0.00235120
5518.31789429,0.00238897
5520.24670166,0.00244150
5522.17550903,0.00230274
5524.10431641,0.00236604
5526.03312378,0.00244450
5527.96193115,0.00241486
5529.89073853,0.00240831
5531.81954590,0.00240455
5533.74835327,0.00238009
5535.67716064,0.00232972
5537.60596802,0.00234329
5539.53477539,0.00232845
5541.46358276,0.00230759
5543.39239014,0.00235289
5545.32119751,0.00229305
5547.25000488,0.00227736
5549.17881226,0.00233983
5551.10761963,0.00234775
5553.03642700,0.00233658
5554.96523437,0.00234877
5556.89404175,0.00232094
5558.82284912,0.00225630
5560.75165649,0.00228985
5562.68046387,0.00222229
5564.60927124,0.00219845
5566.53807861,0.00223829
5568.46688599,0.00218374
5570.39569336,0.00226375
5572.32450073,0.00224210
5574.25330811,0.00220146
5576.18211548,0.00221862
5578.11092285,0.00222601
5580.03973022,0.00227298
5581.96853760,0.00219904
5583.89734497,0.00221218
5585.82615234,0.00221778
5587.75495972,0.00222568
5589.68376709,0.00223085
5591.61257446,0.00214688
5593.54138184,0.00217383
5595.47018921,0.00213216
5597.39899658,0.00217001
5599.32780395,0.00219434
5601.25661133,0.00213172
5603.18541870,0.00216100
5605.11422607,0.00212169
5607.04303345,0.00219232
5608.97184082,0.00214295
5610.90064819,0.00204418
5612.82945557,0.00214347
5614.75826294,0.00206675
5616.68707031,0.00207120
5618.61587769,0.00213881
5620.54468506,0.00208788
5622.47349243,0.00212353
5624.40229980,0.00207387
5626.33110718,0.00205052
5628.25991455,0.00210175
5630.18872192,0.00207244
5632.11752930,0.00206262
5634.04633667,0.00205963
5635.97514404,0.00206626
5637.90395142,0.00209086
5639.83275879,0.00208241
5641.76156616,0.00199987
5643.69037353,0.00200725
5645.61918091,0.00204280
5647.54798828,0.00197732
5649.47679565,0.00205901
5651.40560303,0.00206990
5653.33441040,0.00200348
5655.26321777,0.00202471
5657.19202515,0.00207353
5659.12083252,0.00210734
5661.04963989,0.00199297
5662.97844727,0.00204720
5664.90725464,0.00204013
5666.83606201,0.00193469
5668.76486938,0.00201324
5670.69367676,0.00193699
5672.62248413,0.00191405
5674.55129150,0.00193140
5676.48009888,0.00194363
5678.40890625,0.00195884
5680.33771362,0.00190076
5682.26652100,0.00195065
5684.19532837,0.00188688
5686.12413574,0.00187051
5688.05294311,0.00188969
5689.98175049,0.00189258
5691.91055786,0.00193807
5693.83936523,0.00182485
5695.76817261,0.00188672
5697.69697998,0.00193239
5699.62578735,0.00188102
5701.55459473,0.00193664
5703.48340210,0.00186929
5705.41220947,0.00191647
5707.34101685,0.00194391
5709.26982422,0.00181952
5711.19863159,0.00186939
5713.12743896,0.00184183
5715.05624634,0.00178387
5716.98505371,0.00189033
5718.91386108,0.00185730
5720.84266846,0.00183728
5722.77147583,0.00188450
5724.70028320,0.00183463
5726.62909058,0.00181053
5728.55789795,0.00176881
5730.48670532,0.00179479
5732.41551270,0.00182933
5734.34432007,0.00182466
5736.27312744,0.00184682
5738.20193481,0.00176636
5740.13074219,0.00178501
5742.05954956,0.00181159
5743.98835693,0.00176336
5745.91716431,0.00180721
5747.84597168,0.00175171
5749.77477905,0.00171370
5751.70358643,0.00178959
5753.63239380,0.00179620
5755.56120117,0.00172199
5757.49000854,0.00168967
5759.41881592,0.00170863
5761.34762329,0.00168387
5763.27643066,0.00173937
5765.20523804,0.00173713
5767.13404541,0.00165306
5769.06285278,0.00171250
5770.99166016,0.00171343
5772.92046753,0.00172623
5774.84927490,0.00179039
5776.77808228,0.00175316
5778.70688965,0.00173072
5780.63569702,0.00165904
5782.56450439,0.00161213
5784.49331177,0.00167458
5786.42211914,0.00165860
5788.35092651,0.00159706
5790.27973389,0.00163332
5792.20854126,0.00164380
5794.13734863,0.00159303
5796.06615601,0.00165152
5797.99496338,0.00170057
5799.92377075,0.00166564
5801.85257812,0.00161907
5803.78138550,0.00161423
5805.71019287,0.00162949
5807.63900024,0.00159819
5809.56780762,0.00164074
5811.49661499,0.00163749
5813.42542236,0.00156744
5815.35422974,0.00155847
5817.28303711,0.00156387
5819.21184448,0.00159413
5821.14065186,0.00157916
5823.06945923,0.00157137
5824.99826660,0.00160721
5826.92707397,0.00161024
5828.85588135,0.00155087
5830.78468872,0.00155460
5832.71349609,0.00160833
5834.64230347,0.00155428
5836.57111084,0.00159048
5838.49991821,0.00158835
5840.42872559,0.00149953
5842.35753296,0.00152859
5844.28634033,0.00156340
5846.21514770,0.00156494
5848.14395508,0.00151184
5850.07276245,0.00151902
5852.00156982,0.00153348
5853.93037720,0.00151526
5855.85918457,0.00152131
5857.78799194,0.00147963
5859.71679932,0.00152507
5861.64560669,0.00152119
5863.57441406,0.00144624
5865.50322144,0.00146411
5867.43202881,0.00152291
5869.36083618,0.00150291
5871.28964355,0.00141023
5873.21845093,0.00143896
5875.14725830,0.00145749
5877.07606567,0.00145910
5879.00487305,0.00145232
5880.93368042,0.00142793
5882.86248779,0.00151942
5884.79129517,0.00148543
5886.72010254,0.00144004
5888.64890991,0.00148379
5890.57771728,0.00147082
5892.50652466,0.00145282
5894.43533203,0.00139740
5896.36413940,0.00137834
5898.29294678,0.00138760
5900.22175415,0.00141470
5902.15056152,0.00138839
5904.07936890,0.00133103
5906.00817627,0.00141347
5907.93698364,0.00142668
5909.86579102,0.00139183
5911.79459839,0.00139362
5913.72340576,0.00138603
5915.65221313,0.00138957
5917.58102051,0.00133886
5919.50982788,0.00132497
5921.43863525,0.00131642
5923.36744263,0.00133462
5925.29625000,0.00135733
5927.22505737,0.00134946
5929.15386475,0.00137354
5931.08267212,0.00129178
5933.01147949,0.00131703
5934.94028686,0.00135663
5936.86909424,0.00129606
5938.79790161,0.00133591
5940.72670898,0.00129825
5942.65551636,0.00129763
5944.58432373,0.00130421
5946.51313110,0.00130992
5948.44193848,0.00134504
5950.37074585,0.00129172
5952.29955322,0.00136326
5954.22836060,0.00133331
5956.15716797,0.00128199
5958.08597534,0.00133848
5960.01478271,0.00128030
5961.94359009,0.00126547
5963.87239746,0.00123059
5965.80120483,0.00125440
5967.73001221,0.00129881
5969.65881958,0.00121104
5971.58762695,0.00120591
5973.51643433,0.00125795
5975.44524170,0.00126475
5977.37404907,0.00122620
5979.30285645,0.00123470
5981.23166382,0.00125005
5983.16047119,0.00121838
5985.08927856,0.00123554
5987.01808594,0.00125280
5988.94689331,0.00123296
5990.87570068,0.00119422
5992.80450806,0.00123028
5994.73331543,0.00124484
5996.66212280,0.00117478
5998.59093018,0.00119678
6000.51973755,0.00120623
