399.26312622,0.00017396
401.19193359,0.00024905
403.12074097,0.00015598
405.04954834,0.00022064
406.97835571,0.00007984
408.90716309,0.00020082
410.83597046,0.00019799
412.76477783,0.00004545
414.69358521,0.00013762
416.62239258,0.00016557
418.55119995,0.00019522
420.48000732,0.00014332
422.40881470,0.00016603
424.33762207,0.00029938
426.26642944,0.00016118
428.19523682,0.00005563
430.12404419,0.00014220
432.05285156,0.00002158
433.98165894,0.00011738
435.91046631,0.00023512
437.83927368,0.00029460
439.76808105,0.00014719
441.69688843,-0.00003828
443.62569580,0.00015802
445.55450317,0.00025181
447.48331055,0.00018186
449.41211792,-0.00007699
451.34092529,0.00021468
453.26973267,0.00019857
455.19854004,-0.00012025
457.12734741,0.00020734
459.05615479,0.00009146
460.98496216,0.00013099
462.91376953,0.00022870
464.84257690,0.00025208
466.77138428,0.00030613
468.70019165,0.00005955
470.62899902,0.00011588
472.55780640,-0.00006809
474.48661377,0.00008975
476.41542114,0.00022915
478.34422852,-0.00004122
480.27303589,0.00016179
482.20184326,0.00023635
484.13065063,0.00004928
486.05945801,0.00006406
487.98826538,0.00043435
489.91707275,0.00025570
491.84588013,0.00004104
493.77468750,0.00018290
495.70349487,0.00003604
497.63230225,0.00001635
499.56110962,-0.00016543
501.48991699,-0.00008274
503.41872437,0.00024085
505.34753174,0.00023137
507.27633911,0.00008515
509.20514648,0.00003329
511.13395386,0.00019524
513.06276123,0.00002517
514.99156860,-0.00011557
516.92037598,-0.00017367
518.84918335,-0.00013125
520.77799072,0.00023115
522.70679810,0.00012692
524.63560547,0.00011476
526.56441284,0.00023952
528.49322021,-0.00001336
530.42202759,0.00003306
532.35083496,0.00021551
534.27964233,0.00015357
536.20844971,0.00005861
538.13725708,-0.00004787
540.06606445,0.00014823
541.99487183,0.00017359
543.92367920,-0.00006671
545.85248657,0.00024324
547.78129395,0.00027766
549.71010132,0.00010609
551.63890869,0.00019692
553.56771606,0.00004868
555.49652344,0.00017496
557.42533081,0.00036628
559.35413818,0.00032987
561.28294556,0.00014996
563.21175293,-0.00008899
565.14056030,0.00007832
567.06936768,0.00022510
568.99817505,0.00010596
570.92698242,0.00006384
572.85578979,0.00006207
574.78459717,0.00016201
576.71340454,0.00029861
578.64221191,0.00012684
580.57101929,0.00011817
582.49982666,0.00009439
584.42863403,-0.00001981
586.35744141,0.00013334
588.28624878,-0.00001127
590.21505615,0.00014743
592.14386353,0.00020458
594.07267090,-0.00010348
596.00147827,0.00004155
597.93028564,-0.00007840
599.85909302,-0.00012595
601.78790039,0.00003508
603.71670776,0.00023911
605.64551514,0.00034100
607.57432251,0.00014089
609.50312988,-0.00004278
611.43193726,-0.00008410
613.36074463,0.00022014
615.28955200,0.00017206
617.21835938,-0.00011136
619.14716675,0.00005680
621.07597412,0.00023412
623.00478149,0.00028130
624.93358887,0.00014059
626.86239624,0.00024647
628.79120361,0.00020218
630.72001099,0.00015799
632.64881836,0.00031537
634.57762573,0.00008702
636.50643311,0.00000163
638.43524048,-0.00009828
640.36404785,0.00005802
642.29285522,0.00001751
644.22166260,-0.00011913
646.15046997,0.00022052
648.07927734,0.00008024
650.00808472,0.00012453
651.93689209,0.00020694
653.86569946,0.00007917
655.79450684,0.00024346
657.72331421,0.00007803
659.65212158,-0.00000603
661.58092896,0.00004626
663.50973633,0.00003069
665.43854370,0.00009855
667.36735107,0.00004756
669.29615845,0.00017912
671.22496582,0.00005158
673.15377319,0.00003913
675.08258057,0.00004724
677.01138794,-0.00002934
678.94019531,0.00029741
680.86900269,0.00025826
682.79781006,0.00023228
684.72661743,0.00007447
686.65542480,0.00004866
688.58423218,0.00007849
690.51303955,0.00003939
692.44184692,0.00021610
694.37065430,0.00001357
696.29946167,0.00018840
698.22826904,0.00019446
700.15707642,0.00003856
702.08588379,0.00011734
704.01469116,0.00006503
705.94349854,0.00016667
707.87230591,0.00002351
709.80111328,0.00002557
711.72992065,0.00004058
713.65872803,0.00014077
715.58753540,0.00031589
717.51634277,0.00019995
719.44515015,0.00013041
721.37395752,0.00020454
723.30276489,0.00019478
725.23157227,-0.00000350
727.16037964,0.00011506
729.08918701,-0.00009773
731.01799438,-0.00009596
732.94680176,0.00013355
734.87560913,-0.00019916
736.80441650,0.00029633
738.73322388,0.00032118
740.66203125,0.00002937
742.59083862,0.00035315
744.51964600,0.00011463
746.44845337,0.00013990
748.37726074,0.00008664
750.30606812,0.00000431
752.23487549,0.00010772
754.16368286,0.00003083
756.09249023,0.00000403
758.02129761,-0.00011144
759.95010498,0.00013432
761.87891235,0.00009500
763.80771973,0.00017506
765.73652710,0.00030184
767.66533447,-0.00005610
769.59414185,-0.00000634
771.52294922,0.00011419
773.45175659,0.00019307
775.38056396,0.00010220
777.30937134,0.00005890
779.23817871,0.00011776
781.16698608,-0.00007471
783.09579346,-0.00008467
785.02460083,0.00014361
786.95340820,0.00015974
788.88221558,0.00018135
790.81102295,0.00021638
792.73983032,-0.00006180
794.66863770,0.00018373
796.59744507,0.00023237
798.52625244,0.00015790
800.45505981,0.00031817
802.38386719,-0.00004622
804.31267456,0.00010434
806.24148193,0.00018844
808.17028931,0.00011474
810.09909668,0.00012673
812.02790405,-0.00021445
813.95671143,0.00002860
815.88551880,0.00012851
817.81432617,-0.00002200
819.74313354,0.00009173
821.67194092,0.00013431
823.60074829,0.00021607
825.52955566,0.00011304
827.45836304,0.00013867
829.38717041,0.00023419
831.31597778,0.00014904
833.24478516,0.00018051
835.17359253,0.00022523
837.10239990,0.00014620
839.03120728,0.00020978
840.96001465,0.00034192
842.88882202,0.00022220
844.81762939,0.00012526
846.74643677,0.00018311
848.67524414,0.00027252
850.60405151,0.00020347
852.53285889,0.00017274
854.46166626,0.00013818
856.39047363,0.00001971
858.31928101,0.00006196
860.24808838,0.00012001
862.17689575,0.00027373
864.10570313,0.00015432
866.03451050,0.00005222
867.96331787,0.00018364
869.89212524,0.00017176
871.82093262,0.00021112
873.74973999,0.00007195
875.67854736,0.00010562
877.60735474,0.00025165
879.53616211,0.00010948
881.46496948,0.00007918
883.39377686,0.00021370
885.32258423,0.00017682
887.25139160,0.00011124
889.18019897,0.00026642
891.10900635,0.00026382
893.03781372,0.00018886
894.96662109,0.00012602
896.89542847,0.00016412
898.82423584,0.00021546
900.75304321,0.00007162
902.68185059,0.00015081
904.61065796,0.00011618
906.53946533,0.00012316
908.46827271,0.00011305
910.39708008,0.00007155
912.32588745,0.00026958
914.25469482,0.00010528
916.18350220,0.00007497
918.11230957,0.00009290
920.04111694,0.00010402
921.96992432,0.00017515
923.89873169,0.00000151
925.82753906,0.00015763
927.75634644,0.00017489
929.68515381,0.00008445
931.61396118,0.00020168
933.54276855,0.00020794
935.47157593,0.00019011
937.40038330,0.00016953
939.32919067,0.00016603
941.25799805,0.00032447
943.18680542,0.00037418
945.11561279,0.00011009
947.04442017,0.00023238
948.97322754,0.00019732
950.90203491,-0.00001722
952.83084229,0.00041329
954.75964966,0.00033574
956.68845703,0.00002238
958.61726440,0.00008171
960.54607178,0.00009400
962.47487915,0.00035490
964.40368652,0.00024958
966.33249390,0.00011854
968.26130127,0.00024546
970.19010864,0.00012671
972.11891602,0.00021704
974.04772339,0.00028393
975.97653076,0.00033936
977.90533813,0.00032035
979.83414551,0.00020037
981.76295288,0.00029163
983.69176025,0.00016626
985.62056763,0.00018917
987.54937500,0.00028822
989.47818237,0.00014835
991.40698975,0.00018217
993.33579712,0.00033848
995.26460449,0.00036924
997.19341187,0.00026645
999.12221924,0.00045198
1001.05102661,0.00031326
1002.97983398,0.00011178
1004.90864136,0.00045491
1006.83744873,0.00038559
1008.76625610,0.00036801
1010.69506348,0.00027762
1012.62387085,0.00009324
1014.55267822,0.00034392
1016.48148560,0.00030327
1018.41029297,0.00033342
1020.33910034,0.00049302
1022.26790771,0.00035371
1024.19671509,0.00023109
1026.12552246,0.00047437
1028.05432983,0.00059545
1029.98313721,0.00035244
1031.91194458,0.00036741
1033.84075195,0.00041905
1035.76955933,0.00033031
1037.69836670,0.00022945
1039.62717407,0.00033187
1041.55598145,0.00040833
1043.48478882,0.00030336
1045.41359619,0.00037181
1047.34240356,0.00037965
1049.27121094,0.00038360
1051.20001831,0.00047248
1053.12882568,0.00058871
1055.05763306,0.00046192
1056.98644043,0.00034287
1058.91524780,0.00036514
1060.84405518,0.00026309
1062.77286255,0.00042247
1064.70166992,0.00044521
1066.63047729,0.00046904
1068.55928467,0.00045988
1070.48809204,0.00033293
1072.41689941,0.00054479
1074.34570679,0.00039660
1076.27451416,0.00030705
1078.20332153,0.00044818
1080.13212891,0.00038748
1082.06093628,0.00036443
1083.98974365,0.00027047
1085.91855103,0.00051212
1087.84735840,0.00054563
1089.77616577,0.00025619
1091.70497314,0.00037907
1093.63378052,0.00022700
1095.56258789,0.00012049
1097.49139526,0.00028454
1099.42020264,0.00033649
1101.34901001,0.00034196
1103.27781738,0.00022536
1105.20662476,0.00043023
1107.13543213,0.00049642
1109.06423950,0.00035568
1110.99304687,0.00030315
1112.92185425,0.00024554
1114.85066162,0.00039254
1116.77946899,0.00032978
1118.70827637,0.00040809
1120.63708374,0.00042910
1122.56589111,0.00031143
1124.49469849,0.00036157
1126.42350586,0.00032877
1128.35231323,0.00046767
1130.28112061,0.00034062
1132.20992798,0.00044391
1134.13873535,0.00054921
1136.06754272,0.00037630
1137.99635010,0.00048720
1139.92515747,0.00037523
1141.85396484,0.00054278
1143.78277222,0.00052538
1145.71157959,0.00032384
1147.64038696,0.00034615
1149.56919434,0.00024657
1151.49800171,0.00047967
1153.42680908,0.00040882
1155.35561646,0.00030017
1157.28442383,0.00048594
1159.21323120,0.00045096
1161.14203857,0.00046676
1163.07084595,0.00058673
1164.99965332,0.00055059
1166.92846069,0.00037669
1168.85726807,0.00048629
1170.78607544,0.00046679
1172.71488281,0.00040757
1174.64369019,0.00052995
1176.57249756,0.00047569
1178.50130493,0.00054342
1180.43011230,0.00058349
1182.35891968,0.00064791
1184.28772705,0.00069066
1186.21653442,0.00060074
1188.14534180,0.00066408
1190.07414917,0.00073186
1192.00295654,0.00064236
1193.93176392,0.00063094
1195.86057129,0.00091428
1197.78937866,0.00090296
1199.71818604,0.00070412
1201.64699341,0.00082156
1203.57580078,0.00097732
1205.50460815,0.00101548
1207.43341553,0.00085663
1209.36222290,0.00075127
1211.29103027,0.00101362
1213.21983765,0.00119139
1215.14864502,0.00095442
1217.07745239,0.00100265
1219.00625977,0.00105023
1220.93506714,0.00072563
1222.86387451,0.00089875
1224.79268188,0.00122784
1226.72148926,0.00117780
1228.65029663,0.00099944
1230.57910400,0.00109447
1232.50791138,0.00123811
1234.43671875,0.00108303
1236.36552612,0.00111255
1238.29433350,0.00122514
1240.22314087,0.00115027
1242.15194824,0.00103077
1244.08075562,0.00101707
1246.00956299,0.00098051
1247.93837036,0.00114250
1249.86717773,0.00122757
1251.79598511,0.00093113
1253.72479248,0.00104880
1255.65359985,0.00094227
1257.58240723,0.00085257
1259.51121460,0.00112768
1261.44002197,0.00096147
1263.36882935,0.00098889
1265.29763672,0.00104756
1267.22644409,0.00097992
1269.15525146,0.00092032
1271.08405884,0.00088410
1273.01286621,0.00098382
1274.94167358,0.00097550
1276.87048096,0.00102497
1278.79928833,0.00094497
1280.72809570,0.00089884
1282.65690308,0.00086314
1284.58571045,0.00087028
1286.51451782,0.00092047
1288.44332520,0.00083819
1290.37213257,0.00099798
1292.30093994,0.00098511
1294.22974731,0.00103486
1296.15855469,0.00106386
1298.08736206,0.00085747
1300.01616943,0.00092031
1301.94497681,0.00098126
1303.87378418,0.00106419
1305.80259155,0.00098546
1307.73139893,0.00084526
1309.66020630,0.00081953
1311.58901367,0.00081018
1313.51782104,0.00093179
1315.44662842,0.00103736
1317.37543579,0.00115073
1319.30424316,0.00096659
1321.23305054,0.00097907
1323.16185791,0.00120853
1325.09066528,0.00094194
1327.01947266,0.00106700
1328.94828003,0.00128061
1330.87708740,0.00101197
1332.80589478,0.00114719
1334.73470215,0.00131361
1336.66350952,0.00113387
1338.59231689,0.00117707
1340.52112427,0.00129683
1342.44993164,0.00132636
1344.37873901,0.00135614
1346.30754639,0.00132257
1348.23635376,0.00131675
1350.16516113,0.00126296
1352.09396851,0.00126045
1354.02277588,0.00135795
1355.95158325,0.00125857
1357.88039062,0.00116695
1359.80919800,0.00122751
1361.73800537,0.00117669
1363.66681274,0.00119462
1365.59562012,0.00140801
1367.52442749,0.00130458
1369.45323486,0.00105439
1371.38204224,0.00122546
1373.31084961,0.00140881
1375.23965698,0.00125214
1377.16846436,0.00112847
1379.09727173,0.00130918
1381.02607910,0.00138007
1382.95488647,0.00120281
1384.88369385,0.00119331
1386.81250122,0.00119012
1388.74130859,0.00121510
1390.67011597,0.00141256
1392.59892334,0.00130084
1394.52773071,0.00111387
1396.45653809,0.00124787
1398.38534546,0.00122871
1400.31415283,0.00130371
1402.24296021,0.00152056
1404.17176758,0.00124889
1406.10057495,0.00111194
1408.02938232,0.00126167
1409.95818970,0.00131069
1411.88699707,0.00134838
1413.81580444,0.00124505
1415.74461182,0.00130123
1417.67341919,0.00128284
1419.60222656,0.00115484
1421.53103394,0.00123048
1423.45984131,0.00112477
1425.38864868,0.00118169
1427.31745605,0.00121121
1429.24626343,0.00102493
1431.17507080,0.00117025
1433.10387817,0.00124269
1435.03268555,0.00105145
1436.96149292,0.00087800
1438.89030029,0.00101000
1440.81910767,0.00115527
1442.74791504,0.00103793
1444.67672241,0.00104857
1446.60552979,0.00100948
1448.53433716,0.00108514
1450.46314453,0.00108430
1452.39195190,0.00093395
1454.32075928,0.00110656
1456.24956665,0.00098127
1458.17837402,0.00099005
1460.10718140,0.00124244
1462.03598877,0.00116228
1463.96479614,0.00129483
1465.89360352,0.00140223
1467.82241089,0.00142635
1469.75121826,0.00149573
1471.68002563,0.00144465
1473.60883301,0.00153550
1475.53764038,0.00169712
1477.46644775,0.00176322
1479.39525513,0.00171954
1481.32406250,0.00181635
1483.25286987,0.00192001
1485.18167725,0.00188083
1487.11048462,0.00187314
1489.03929199,0.00187277
1490.96809937,0.00204509
1492.89690674,0.00214898
1494.82571411,0.00212023
1496.75452148,0.00208809
1498.68332886,0.00209865
1500.61213623,0.00226210
1502.54094360,0.00233471
1504.46975098,0.00208949
1506.39855835,0.00182500
1508.32736572,0.00213415
1510.25617310,0.00227702
1512.18498047,0.00235683
1514.11378784,0.00257621
1516.04259521,0.00221019
1517.97140259,0.00233258
1519.90020996,0.00239179
1521.82901733,0.00216480
1523.75782471,0.00240865
1525.68663208,0.00231466
1527.61543945,0.00231875
1529.54424683,0.00262392
1531.47305420,0.00263069
1533.40186157,0.00222795
1535.33066895,0.00243823
1537.25947632,0.00263666
1539.18828369,0.00201607
1541.11709106,0.00216496
1543.04589844,0.00232309
1544.97470581,0.00242714
1546.90351318,0.00261799
1548.83232056,0.00245787
1550.76112793,0.00277692
1552.68993530,0.00255890
1554.61874268,0.00252516
1556.54755005,0.00274004
1558.47635742,0.00198524
1560.40516479,0.00207289
1562.33397217,0.00277937
1564.26277954,0.00265027
1566.19158691,0.00268324
1568.12039429,0.00262166
1570.04920166,0.00230459
1571.97800903,0.00288750
1573.90681641,0.00274729
1575.83562378,0.00218376
1577.76443115,0.00266275
1579.69323853,0.00279995
1581.62204590,0.00283749
1583.55085327,0.00289974
1585.47966064,0.00276243
1587.40846802,0.00257766
1589.33727539,0.00250629
1591.26608276,0.00288963
1593.19489014,0.00284992
1595.12369751,0.00271274
1597.05250488,0.00280730
1598.98131226,0.00287135
1600.91011963,0.00286841
1602.83892700,0.00274920
1604.76773437,0.00275053
1606.69654175,0.00271532
1608.62534912,0.00282445
1610.55415649,0.00270392
1612.48296387,0.00269616
1614.41177124,0.00278056
1616.34057861,0.00226812
1618.26938599,0.00243613
1620.19819336,0.00288483
1622.12700073,0.00267336
1624.05580811,0.00258376
1625.98461548,0.00278835
1627.91342285,0.00279113
1629.84223022,0.00276730
1631.77103760,0.00298192
1633.69984497,0.00267861
1635.62865234,0.00243507
1637.55745972,0.00280473
1639.48626709,0.00282165
1641.41507446,0.00272211
1643.34388184,0.00290094
1645.27268921,0.00267894
1647.20149658,0.00235014
1649.13030396,0.00284707
1651.05911133,0.00277873
1652.98791870,0.00195560
1654.91672607,0.00248240
1656.84553345,0.00311458
1658.77434082,0.00289161
1660.70314819,0.00288078
1662.63195557,0.00280261
1664.56076294,0.00288682
1666.48957031,0.00295124
1668.41837769,0.00269314
1670.34718506,0.00276713
1672.27599243,0.00289308
1674.20479980,0.00271922
1676.13360718,0.00271266
1678.06241455,0.00296007
1679.99122192,0.00286540
1681.92002930,0.00272332
1683.84883667,0.00249774
1685.77764404,0.00252340
1687.70645142,0.00304798
1689.63525879,0.00274539
1691.56406616,0.00297316
1693.49287354,0.00308046
1695.42168091,0.00229891
1697.35048828,0.00289813
1699.27929565,0.00270936
1701.20810303,0.00226732
1703.13691040,0.00300370
1705.06571777,0.00284911
1706.99452515,0.00289083
1708.92333252,0.00303859
1710.85213989,0.00293026
1712.78094727,0.00306007
1714.70975464,0.00277606
1716.63856201,0.00258156
1718.56736938,0.00265999
1720.49617676,0.00301449
1722.42498413,0.00300827
1724.35379150,0.00278618
1726.28259888,0.00306543
1728.21140625,0.00291447
1730.14021362,0.00297153
1732.06902100,0.00294350
1733.99782837,0.00233816
1735.92663574,0.00275245
1737.85544312,0.00304174
1739.78425049,0.00270806
1741.71305786,0.00290221
1743.64186523,0.00305893
1745.57067261,0.00301856
1747.49947998,0.00303218
1749.42828735,0.00298357
1751.35709473,0.00283360
1753.28590210,0.00308147
1755.21470947,0.00310757
1757.14351685,0.00284705
1759.07232422,0.00313694
1761.00113159,0.00293483
1762.92993896,0.00303589
1764.85874634,0.00336362
1766.78755371,0.00298978
1768.71636108,0.00308070
1770.64516846,0.00298169
1772.57397583,0.00282176
1774.50278320,0.00303869
1776.43159058,0.00318705
1778.36039795,0.00323534
1780.28920532,0.00304163
1782.21801270,0.00312871
1784.14682007,0.00316968
1786.07562744,0.00310171
1788.00443481,0.00319071
1789.93324219,0.00309922
1791.86204956,0.00294640
1793.79085693,0.00298279
1795.71966431,0.00315606
1797.64847168,0.00320069
1799.57727905,0.00316072
1801.50608643,0.00302488
1803.43489380,0.00309000
1805.36370117,0.00325830
1807.29250854,0.00331650
1809.22131592,0.00334213
1811.15012329,0.00322263
1813.07893066,0.00322798
1815.00773804,0.00320177
1816.93654541,0.00330921
1818.86535278,0.00326518
1820.79416016,0.00317114
1822.72296753,0.00325972
1824.65177490,0.00297594
1826.58058228,0.00310723
1828.50938965,0.00316233
1830.43819702,0.00308090
1832.36700439,0.00331256
1834.29581177,0.00328202
1836.22461914,0.00332605
1838.15342651,0.00326042
1840.08223389,0.00332921
1842.01104126,0.00326967
1843.93984863,0.00306984
1845.86865601,0.00320474
1847.79746338,0.00325579
1849.72627075,0.00343269
1851.65507812,0.00332425
1853.58388550,0.00335580
1855.51269287,0.00351686
1857.44150024,0.00324422
1859.37030762,0.00329580
1861.29911499,0.00328525
1863.22792236,0.00329295
1865.15672974,0.00337549
1867.08553711,0.00321550
1869.01434448,0.00325481
1870.94315186,0.00329224
1872.87195923,0.00332335
1874.80076660,0.00335666
1876.72957397,0.00337861
1878.65838135,0.00338628
1880.58718872,0.00320188
1882.51599609,0.00322899
1884.44480347,0.00330133
1886.37361084,0.00322776
1888.30241821,0.00326717
1890.23122559,0.00324726
1892.16003296,0.00330666
1894.08884033,0.00330730
1896.01764771,0.00324714
1897.94645508,0.00340053
1899.87526245,0.00333090
1901.80406982,0.00324029
1903.73287720,0.00328592
1905.66168457,0.00330171
1907.59049194,0.00334024
1909.51929932,0.00323948
1911.44810669,0.00324326
1913.37691406,0.00330586
1915.30572144,0.00324877
1917.23452881,0.00318111
1919.16333618,0.00322061
1921.09214355,0.00332888
1923.02095093,0.00323184
1924.94975830,0.00321377
1926.87856567,0.00340095
1928.80737305,0.00347268
1930.73618042,0.00334338
1932.66498779,0.00326683
1934.59379517,0.00336019
1936.52260254,0.00337315
1938.45140991,0.00342629
1940.38021729,0.00341190
1942.30902466,0.00323272
1944.23783203,0.00329793
1946.16663940,0.00338270
1948.09544678,0.00329507
1950.02425415,0.00331838
1951.95306152,0.00332365
1953.88186890,0.00330688
1955.81067627,0.00335957
1957.73948364,0.00335099
1959.66829102,0.00332240
1961.59709839,0.00325521
1963.52590576,0.00334147
1965.45471313,0.00347678
1967.38352051,0.00336017
1969.31232788,0.00331676
1971.24113525,0.00334747
1973.16994263,0.00333126
1975.09875000,0.00338346
1977.02755737,0.00342310
1978.95636475,0.00334460
1980.88517212,0.00330051
1982.81397949,0.00338988
1984.74278687,0.00337821
1986.67159424,0.00336192
1988.60040161,0.00341364
1990.52920898,0.00334654
1992.45801636,0.00325931
1994.38682373,0.00332353
1996.31563110,0.00337212
1998.24443848,0.00333935
2000.17324585,0.00343406
2002.10205322,0.00338694
2004.03086060,0.00328905
2005.95966797,0.00344073
2007.88847534,0.00343843
2009.81728271,0.00332363
2011.74609009,0.00335858
2013.67489746,0.00331051
2015.60370483,0.00328039
2017.53251221,0.00338061
2019.46131958,0.00329266
2021.39012695,0.00329916
2023.31893433,0.00341408
2025.24774170,0.00327770
2027.17654907,0.00328041
2029.10535645,0.00330876
2031.03416382,0.00324808
2032.96297119,0.00335302
2034.89177856,0.00333141
2036.82058594,0.00321264
2038.74939331,0.00323555
2040.67820068,0.00327279
2042.60700806,0.00324029
2044.53581543,0.00322395
2046.46462280,0.00329765
2048.39343018,0.00339246
2050.32223755,0.00331715
2052.25104492,0.00327827
2054.17985229,0.00338577
2056.10865967,0.00331007
2058.03746704,0.00326617
2059.96627441,0.00328964
2061.89508179,0.00325960
2063.82388916,0.00327585
2065.75269653,0.00324992
2067.68150391,0.00334499
2069.61031128,0.00332689
2071.53911865,0.00327102
2073.46792603,0.00333254
2075.39673340,0.00317914
2077.32554077,0.00322853
2079.25434814,0.00323545
2081.18315552,0.00320098
2083.11196289,0.00343699
2085.04077026,0.00326257
2086.96957764,0.00315364
2088.89838501,0.00326124
2090.82719238,0.00325119
2092.75599976,0.00332655
2094.68480713,0.00316231
2096.61361450,0.00306165
2098.54242187,0.00319796
2100.47122925,0.00327398
2102.40003662,0.00324800
2104.32884399,0.00322057
2106.25765137,0.00326689
2108.18645874,0.00319736
2110.11526611,0.00322063
2112.04407349,0.00324269
2113.97288086,0.00320307
2115.90168823,0.00327333
2117.83049561,0.00324834
2119.75930298,0.00322881
2121.68811035,0.00322776
2123.61691772,0.00317335
2125.54572510,0.00308635
2127.47453247,0.00312911
2129.40333984,0.00325980
2131.33214722,0.00326994
2133.26095459,0.00326366
2135.18976196,0.00323825
2137.11856934,0.00323578
2139.04737671,0.00319491
2140.97618408,0.00322371
2142.90499146,0.00327684
2144.83379883,0.00319990
2146.76260620,0.00321843
2148.69141357,0.00319710
2150.62022095,0.00315635
2152.54902832,0.00320517
2154.47783569,0.00328606
2156.40664307,0.00325783
2158.33545044,0.00321036
2160.26425781,0.00326999
2162.19306519,0.00322242
2164.12187256,0.00322453
2166.05067993,0.00315824
2167.97948730,0.00313401
2169.90829468,0.00321858
2171.83710205,0.00313787
2173.76590942,0.00314406
2175.69471680,0.00321829
2177.62352417,0.00331393
2179.55233154,0.00322768
2181.48113892,0.00314401
2183.40994629,0.00322238
2185.33875366,0.00312327
2187.26756104,0.00317743
2189.19636841,0.00329426
2191.12517578,0.00327373
2193.05398315,0.00317238
2194.98279053,0.00319502
2196.91159790,0.00332839
2198.84040527,0.00320943
2200.76921265,0.00322189
2202.69802002,0.00320657
2204.62682739,0.00314813
2206.55563477,0.00324578
2208.48444214,0.00321318
2210.41324951,0.00331187
2212.34205688,0.00321184
2214.27086426,0.00304716
2216.19967163,0.00318769
2218.12847900,0.00319089
2220.05728638,0.00316904
2221.98609375,0.00314603
2223.91490112,0.00320846
2225.84370850,0.00317401
2227.77251587,0.00307073
2229.70132324,0.00328968
2231.63013062,0.00327990
2233.55893799,0.00326052
2235.48774536,0.00323185
2237.41655273,0.00316368
2239.34536011,0.00336602
2241.27416748,0.00315911
2243.20297485,0.00312004
2245.13178223,0.00329442
2247.06058960,0.00317864
2248.98939697,0.00317218
2250.91820435,0.00316860
2252.84701172,0.00325413
2254.77581909,0.00314306
2256.70462646,0.00309417
2258.63343384,0.00326473
2260.56224121,0.00313145
2262.49104858,0.00308668
2264.41985596,0.00316674
2266.34866333,0.00323368
2268.27747070,0.00321007
2270.20627808,0.00312081
2272.13508545,0.00308664
2274.06389282,0.00312813
2275.99270020,0.00316442
2277.92150757,0.00308967
2279.85031494,0.00322014
2281.77912231,0.00326976
2283.70792969,0.00328041
2285.63673706,0.00319128
2287.56554443,0.00300659
2289.49435181,0.00324908
2291.42315918,0.00324477
2293.35196655,0.00321912
2295.28077393,0.00328335
2297.20958130,0.00306947
2299.13838867,0.00316534
2301.06719604,0.00321591
2302.99600342,0.00305040
2304.92481079,0.00304190
2306.85361816,0.00309675
2308.78242554,0.00305339
2310.71123291,0.00302002
2312.64004028,0.00306444
2314.56884766,0.00305185
2316.49765503,0.00309178
2318.42646240,0.00302085
2320.35526978,0.00285276
2322.28407715,0.00285308
2324.21288452,0.00288860
2326.14169189,0.00289749
2328.07049927,0.00285420
2329.99930664,0.00282657
2331.92811401,0.00286815
2333.85692139,0.00280039
2335.78572876,0.00279730
2337.71453613,0.00283974
2339.64334351,0.00272984
2341.57215088,0.00277423
2343.50095825,0.00285805
2345.42976562,0.00285816
2347.35857300,0.00295293
2349.28738037,0.00305136
2351.21618774,0.00298906
2353.14499512,0.00278510
2355.07380249,0.00273069
2357.00260986,0.00270901
2358.93141724,0.00268638
2360.86022461,0.00266910
2362.78903198,0.00263459
2364.71783936,0.00266660
2366.64664673,0.00262639
2368.57545410,0.00278686
2370.50426147,0.00281871
2372.43306885,0.00277857
2374.36187622,0.00292944
2376.29068359,0.00284349
2378.21949097,0.00301608
2380.14829834,0.00315481
2382.07710571,0.00302349
2384.00591309,0.00314555
2385.93472046,0.00316773
2387.86352783,0.00311987
2389.79233521,0.00311435
2391.72114258,0.00304704
2393.64994995,0.00311324
2395.57875732,0.00319090
2397.50756470,0.00316408
2399.43637207,0.00311215
2401.36517944,0.00301380
2403.29398682,0.00305446
2405.22279419,0.00307616
2407.15160156,0.00305053
2409.08040894,0.00314076
2411.00921631,0.00307988
2412.93802368,0.00319501
2414.86683105,0.00326462
2416.79563843,0.00312261
2418.72444580,0.00314214
2420.65325317,0.00307260
2422.58206055,0.00308513
2424.51086792,0.00316198
2426.43967529,0.00315229
2428.36848267,0.00307136
2430.29729004,0.00305605
2432.22609741,0.00309085
2434.15490479,0.00304216
2436.08371216,0.00314827
2438.01251953,0.00312200
2439.94132690,0.00310595
2441.87013428,0.00308900
2443.79894165,0.00300802
2445.72774902,0.00309350
2447.65655640,0.00304164
2449.58536377,0.00309368
2451.51417114,0.00313290
2453.44297852,0.00310979
2455.37178589,0.00307980
2457.30059326,0.00299643
2459.22940063,0.00311759
2461.15820801,0.00312911
2463.08701538,0.00306399
2465.01582275,0.00300516
2466.94463013,0.00295069
2468.87343750,0.00300469
2470.80224487,0.00310801
2472.73105225,0.00308914
2474.65985962,0.00304189
2476.58866699,0.00316173
2478.51747437,0.00303614
2480.44628174,0.00297939
2482.37508911,0.00307888
2484.30389648,0.00303029
2486.23270386,0.00302472
2488.16151123,0.00303320
2490.09031860,0.00309741
2492.01912598,0.00303974
2493.94793335,0.00298795
2495.87674072,0.00300063
2497.80554810,0.00301385
2499.73435547,0.00305792
2501.66316284,0.00301429
2503.59197021,0.00300559
2505.52077759,0.00292036
2507.44958496,0.00302790
2509.37839233,0.00315730
2511.30719971,0.00302886
2513.23600708,0.00304608
2515.16481445,0.00303626
2517.09362183,0.00293816
2519.02242920,0.00293149
2520.95123657,0.00297888
2522.88004395,0.00299466
2524.80885132,0.00301217
2526.73765869,0.00299737
2528.66646606,0.00303389
2530.59527344,0.00307864
2532.52408081,0.00300506
2534.45288818,0.00303059
2536.38169556,0.00301784
2538.31050293,0.00312158
2540.23931030,0.00313612
2542.16811768,0.00300050
2544.09692505,0.00305904
2546.02573242,0.00298665
2547.95453979,0.00299818
2549.88334717,0.00301302
2551.81215454,0.00303994
2553.74096191,0.00301233
2555.66976929,0.00291788
2557.59857666,0.00307939
2559.52738403,0.00290889
2561.45619141,0.00294756
2563.38499878,0.00307869
2565.31380615,0.00283747
2567.24261353,0.00293190
2569.17142090,0.00292994
2571.10022827,0.00292707
2573.02903564,0.00296742
2574.95784302,0.00283828
2576.88665039,0.00297344
2578.81545776,0.00297690
2580.74426514,0.00289204
2582.67307251,0.00297221
2584.60187988,0.00294872
2586.53068726,0.00295922
2588.45949463,0.00300221
2590.38830200,0.00300310
2592.31710937,0.00296162
2594.24591675,0.00294588
2596.17472412,0.00306256
2598.10353149,0.00298004
2600.03233887,0.00290805
2601.96114624,0.00298823
2603.88995361,0.00293131
2605.81876099,0.00290360
2607.74756836,0.00292168
2609.67637573,0.00300694
2611.60518311,0.00288644
2613.53399048,0.00280636
2615.46279785,0.00301482
2617.39160522,0.00297872
2619.32041260,0.00294157
2621.24921997,0.00290579
2623.17802734,0.00291813
2625.10683472,0.00292527
2627.03564209,0.00282404
2628.96444946,0.00288792
2630.89325684,0.00282787
2632.82206421,0.00292819
2634.75087158,0.00297576
2636.67967895,0.00287801
2638.60848633,0.00292480
2640.53729370,0.00283073
2642.46610107,0.00289335
2644.39490845,0.00292879
2646.32371582,0.00290198
2648.25252319,0.00295410
2650.18133057,0.00300517
2652.11013794,0.00299022
2654.03894531,0.00284647
2655.96775269,0.00294349
2657.89656006,0.00290459
2659.82536743,0.00284724
2661.75417480,0.00291623
2663.68298218,0.00284346
2665.61178955,0.00297374
2667.54059692,0.00298343
2669.46940430,0.00287899
2671.39821167,0.00281478
2673.32701904,0.00278637
2675.25582642,0.00286597
2677.18463379,0.00284708
2679.11344116,0.00292545
2681.04224854,0.00290739
2682.97105591,0.00281024
2684.89986328,0.00290573
2686.82867065,0.00289721
2688.75747803,0.00280638
2690.68628540,0.00276619
2692.61509277,0.00277663
2694.54390015,0.00283382
2696.47270752,0.00285840
2698.40151489,0.00285991
2700.33032227,0.00289571
2702.25912964,0.00286538
2704.18793701,0.00278289
2706.11674438,0.00281673
2708.04555176,0.00286695
2709.97435913,0.00285025
2711.90316650,0.00277630
2713.83197388,0.00278034
2715.76078125,0.00284831
2717.68958862,0.00276174
2719.61839600,0.00280140
2721.54720337,0.00288318
2723.47601074,0.00284204
2725.40481812,0.00288715
2727.33362549,0.00278367
2729.26243286,0.00278526
2731.19124023,0.00284082
2733.12004761,0.00273463
2735.04885498,0.00287043
2736.97766235,0.00281321
2738.90646973,0.00268610
2740.83527710,0.00281583
2742.76408447,0.00283469
2744.69289185,0.00282902
2746.62169922,0.00281938
2748.55050659,0.00282584
2750.47931396,0.00275718
2752.40812134,0.00277793
2754.33692871,0.00279321
2756.26573608,0.00267842
2758.19454346,0.00284401
2760.12335083,0.00275422
2762.05215820,0.00269475
2763.98096558,0.00292427
2765.90977295,0.00279201
2767.83858032,0.00272811
2769.76738770,0.00282344
2771.69619507,0.00280476
2773.62500244,0.00273076
2775.55380981,0.00274850
2777.48261719,0.00278231
2779.41142456,0.00280749
2781.34023193,0.00281038
2783.26903931,0.00262797
2785.19784668,0.00275273
2787.12665405,0.00283313
2789.05546143,0.00269456
2790.98426880,0.00271205
2792.91307617,0.00263165
2794.84188354,0.00269036
2796.77069092,0.00266643
2798.69949829,0.00263600
2800.62830566,0.00272994
2802.55711304,0.00264148
2804.48592041,0.00267821
2806.41472778,0.00261302
2808.34353516,0.00251234
2810.27234253,0.00260877
2812.20114990,0.00264076
2814.12995728,0.00259625
2816.05876465,0.00262663
2817.98757202,0.00270336
2819.91637939,0.00263731
2821.84518677,0.00265067
2823.77399414,0.00266065
2825.70280151,0.00263388
2827.63160889,0.00267832
2829.56041626,0.00265783
2831.48922363,0.00266784
2833.41803101,0.00263239
2835.34683838,0.00275292
2837.27564575,0.00279438
2839.20445312,0.00264666
2841.13326050,0.00265093
2843.06206787,0.00252449
2844.99087524,0.00253070
2846.91968262,0.00258495
2848.84848999,0.00251712
2850.77729736,0.00259928
2852.70610474,0.00263849
2854.63491211,0.00265393
2856.56371948,0.00255539
2858.49252686,0.00255286
2860.42133423,0.00265072
2862.35014160,0.00251930
2864.27894897,0.00253763
2866.20775635,0.00261179
2868.13656372,0.00253614
2870.06537109,0.00253841
2871.99417847,0.00255912
2873.92298584,0.00252419
2875.85179321,0.00247187
2877.78060059,0.00241694
2879.70940796,0.00251317
2881.63821533,0.00261612
2883.56702270,0.00250395
2885.49583008,0.00248748
2887.42463745,0.00249721
2889.35344482,0.00245769
2891.28225220,0.00250944
2893.21105957,0.00258056
2895.13986694,0.00264268
2897.06867432,0.00252788
2898.99748169,0.00249329
2900.92628906,0.00251417
2902.85509644,0.00245283
2904.78390381,0.00251421
2906.71271118,0.00249146
2908.64151855,0.00249978
2910.57032593,0.00249008
2912.49913330,0.00241990
2914.42794067,0.00245194
2916.35674805,0.00247379
2918.28555542,0.00247486
2920.21436279,0.00241936
2922.14317017,0.00245048
2924.07197754,0.00245009
2926.00078491,0.00245088
2927.92959229,0.00247092
2929.85839966,0.00236979
2931.78720703,0.00246374
2933.71601440,0.00247183
2935.64482178,0.00241173
2937.57362915,0.00250957
2939.50243652,0.00249912
2941.43124390,0.00245526
2943.36005127,0.00243862
2945.28885864,0.00245311
2947.21766602,0.00244356
2949.14647339,0.00245300
2951.07528076,0.00246382
2953.00408813,0.00240352
2954.93289551,0.00237700
2956.86170288,0.00237554
2958.79051025,0.00237530
2960.71931763,0.00233678
2962.64812500,0.00240792
2964.57693237,0.00248710
2966.50573975,0.00241607
2968.43454712,0.00234962
2970.36335449,0.00236654
2972.29216187,0.00242309
2974.22096924,0.00240328
2976.14977661,0.00245424
2978.07858398,0.00241180
2980.00739136,0.00238123
2981.93619873,0.00248126
2983.86500610,0.00236221
2985.79381348,0.00244229
2987.72262085,0.00251410
2989.65142822,0.00237469
2991.58023560,0.00240636
2993.50904297,0.00234521
2995.43785034,0.00233238
2997.36665771,0.00238171
2999.29546509,0.00233274
3001.22427246,0.00237870
3003.15307983,0.00244063
3005.08188721,0.00246116
3007.01069458,0.00244018
3008.93950195,0.00238037
3010.86830933,0.00237854
3012.79711670,0.00240908
3014.72592407,0.00236808
3016.65473145,0.00234359
3018.58353882,0.00236267
3020.51234619,0.00235790
3022.44115356,0.00238612
3024.36996094,0.00240197
3026.29876831,0.00239828
3028.22757568,0.00239026
3030.15638306,0.00232834
3032.08519043,0.00226160
3034.01399780,0.00230069
3035.94280518,0.00240083
3037.87161255,0.00233377
3039.80041992,0.00229941
3041.72922729,0.00246618
3043.65803467,0.00241874
3045.58684204,0.00232326
3047.51564941,0.00241542
3049.44445679,0.00237195
3051.37326416,0.00232723
3053.30207153,0.00227126
3055.23087891,0.00223363
3057.15968628,0.00237018
3059.08849365,0.00232218
3061.01730103,0.00227596
3062.94610840,0.00236038
3064.87491577,0.00233777
3066.80372314,0.00222114
3068.73253052,0.00213153
3070.66133789,0.00232651
3072.59014526,0.00239817
3074.51895264,0.00219609
3076.44776001,0.00222805
3078.37656738,0.00230227
3080.30537476,0.00229356
3082.23418213,0.00234024
3084.16298950,0.00225936
3086.09179687,0.00216401
3088.02060425,0.00223416
3089.94941162,0.00225137
3091.87821899,0.00223739
3093.80702637,0.00223693
3095.73583374,0.00218054
3097.66464111,0.00226694
3099.59344849,0.00230369
3101.52225586,0.00222132
3103.45106323,0.00223968
3105.37987061,0.00224523
3107.30867798,0.00228121
3109.23748535,0.00227993
3111.16629272,0.00222926
3113.09510010,0.00220254
3115.02390747,0.00218369
3116.95271484,0.00220779
3118.88152222,0.00209603
3120.81032959,0.00216975
3122.73913696,0.00225549
3124.66794434,0.00208992
3126.59675171,0.00219448
3128.52555908,0.00220246
3130.45436645,0.00212927
3132.38317383,0.00212229
3134.31198120,0.00210538
3136.24078857,0.00224631
3138.16959595,0.00212426
3140.09840332,0.00211977
3142.02721069,0.00218633
3143.95601807,0.00210941
3145.88482544,0.00210906
3147.81363281,0.00193591
3149.74244019,0.00206975
3151.67124756,0.00217231
3153.60005493,0.00210587
3155.52886230,0.00215472
3157.45766968,0.00199802
3159.38647705,0.00208171
3161.31528442,0.00211920
3163.24409180,0.00207144
3165.17289917,0.00213969
3167.10170654,0.00200828
3169.03051392,0.00206313
3170.95932129,0.00210078
3172.88812866,0.00203903
3174.81693604,0.00206898
3176.74574341,0.00195541
3178.67455078,0.00198080
3180.60335815,0.00211470
3182.53216553,0.00200721
3184.46097290,0.00196924
3186.38978027,0.00204259
3188.31858765,0.00197985
3190.24739502,0.00202338
3192.17620239,0.00205281
3194.10500977,0.00196694
3196.03381714,0.00198627
3197.96262451,0.00201651
3199.89143188,0.00202835
3201.82023926,0.00196848
3203.74904663,0.00194754
3205.67785400,0.00201461
3207.60666138,0.00196233
3209.53546875,0.00200622
3211.46427612,0.00209819
3213.39308350,0.00202284
3215.32189087,0.00208077
3217.25069824,0.00211490
3219.17950562,0.00199097
3221.10831299,0.00197766
3223.03712036,0.00189632
3224.96592773,0.00191094
3226.89473511,0.00201383
3228.82354248,0.00194467
3230.75234985,0.00197260
3232.68115723,0.00198528
3234.60996460,0.00198420
3236.53877197,0.00198607
3238.46757935,0.00188862
3240.39638672,0.00194940
3242.32519409,0.00199356
3244.25400146,0.00191965
3246.18280884,0.00194731
3248.11161621,0.00199800
3250.04042358,0.00193906
3251.96923096,0.00188022
3253.89803833,0.00188131
3255.82684570,0.00187148
3257.75565308,0.00193833
3259.68446045,0.00198421
3261.61326782,0.00188803
3263.54207520,0.00188550
3265.47088257,0.00196013
3267.39968994,0.00193972
3269.32849731,0.00194432
3271.25730469,0.00192740
3273.18611206,0.00193002
3275.11491943,0.00201731
3277.04372681,0.00192875
3278.97253418,0.00184581
3280.90134155,0.00191439
3282.83014893,0.00193126
3284.75895630,0.00191306
3286.68776367,0.00190701
3288.61657104,0.00193911
3290.54537842,0.00192898
3292.47418579,0.00191296
3294.40299316,0.00200040
3296.33180054,0.00196089
3298.26060791,0.00187785
3300.18941528,0.00193465
3302.11822266,0.00188718
3304.04703003,0.00188133
3305.97583740,0.00190133
3307.90464478,0.00182369
3309.83345215,0.00193136
3311.76225952,0.00194034
3313.69106689,0.00189156
3315.61987427,0.00197009
3317.54868164,0.00194495
3319.47748901,0.00191611
3321.40629639,0.00187810
3323.33510376,0.00192473
3325.26391113,0.00194499
3327.19271851,0.00184769
3329.12152588,0.00187810
3331.05033325,0.00193228
3332.97914062,0.00189411
3334.90794800,0.00182721
3336.83675537,0.00188506
3338.76556274,0.00187989
3340.69437012,0.00185444
3342.62317749,0.00191228
3344.55198486,0.00178777
3346.48079224,0.00188437
3348.40959961,0.00201580
3350.33840698,0.00184898
3352.26721436,0.00188813
3354.19602173,0.00189766
3356.12482910,0.00183598
3358.05363647,0.00190871
3359.98244385,0.00179954
3361.91125122,0.00180698
3363.84005859,0.00189997
3365.76886597,0.00181936
3367.69767334,0.00185145
3369.62648071,0.00185351
3371.55528809,0.00183371
3373.48409546,0.00183481
3375.41290283,0.00180589
3377.34171020,0.00179740
3379.27051758,0.00178759
3381.19932495,0.00189373
3383.12813232,0.00189170
3385.05693970,0.00189269
3386.98574707,0.00186450
3388.91455444,0.00174352
3390.84336182,0.00177839
3392.77216919,0.00174992
3394.70097656,0.00185799
3396.62978394,0.00184273
3398.55859131,0.00175013
3400.48739868,0.00184145
3402.41620605,0.00168848
3404.34501343,0.00176042
3406.27382080,0.00186563
3408.20262817,0.00177549
3410.13143555,0.00181272
3412.06024292,0.00173982
3413.98905029,0.00175837
3415.91785767,0.00186591
3417.84666504,0.00187234
3419.77547241,0.00180305
3421.70427979,0.00177114
3423.63308716,0.00181533
3425.56189453,0.00181476
3427.49070190,0.00184348
3429.41950928,0.00173733
3431.34831665,0.00168241
3433.27712402,0.00186133
3435.20593140,0.00180679
3437.13473877,0.00169497
3439.06354614,0.00174892
3440.99235352,0.00173479
3442.92116089,0.00182982
3444.84996826,0.00188085
3446.77877563,0.00170067
3448.70758301,0.00171369
3450.63639038,0.00180539
3452.56519775,0.00168844
3454.49400513,0.00164377
3456.42281250,0.00169769
3458.35161987,0.00173815
3460.28042725,0.00179892
3462.20923462,0.00172146
3464.13804199,0.00170291
3466.06684937,0.00173480
3467.99565674,0.00168521
3469.92446411,0.00179605
3471.85327148,0.00173787
3473.78207886,0.00171871
3475.71088623,0.00178947
3477.63969360,0.00167864
3479.56850098,0.00176986
3481.49730835,0.00171597
3483.42611572,0.00169932
3485.35492310,0.00182238
3487.28373047,0.00173960
3489.21253784,0.00174829
3491.14134521,0.00176536
3493.07015259,0.00183672
3494.99895996,0.00176039
3496.92776733,0.00166825
3498.85657471,0.00177923
3500.78538208,0.00171493
3502.71418945,0.00173429
3504.64299683,0.00175994
3506.57180420,0.00175953
3508.50061157,0.00180057
3510.42941895,0.00169035
3512.35822632,0.00171185
3514.28703369,0.00175322
3516.21584106,0.00170121
3518.14464844,0.00176126
3520.07345581,0.00173553
3522.00226318,0.00165367
3523.93107056,0.00181077
3525.85987793,0.00187721
3527.78868530,0.00170062
3529.71749268,0.00164806
3531.64630005,0.00170905
3533.57510742,0.00172988
3535.50391479,0.00171490
3537.43272217,0.00172329
3539.36152954,0.00168890
3541.29033691,0.00168423
3543.21914429,0.00177989
3545.14795166,0.00172687
3547.07675903,0.00167689
3549.00556641,0.00175377
3550.93437378,0.00165907
3552.86318115,0.00162010
3554.79198853,0.00177820
3556.72079590,0.00175407
3558.64960327,0.00170347
3560.57841064,0.00170350
3562.50721802,0.00168397
3564.43602539,0.00169476
3566.36483276,0.00156648
3568.29364014,0.00161176
3570.22244751,0.00171358
3572.15125488,0.00162680
3574.08006226,0.00173968
3576.00886963,0.00183608
3577.93767700,0.00172514
3579.86648437,0.00167977
3581.79529175,0.00167339
3583.72409912,0.00163240
3585.65290649,0.00163427
3587.58171387,0.00160191
3589.51052124,0.00163698
3591.43932861,0.00172933
3593.36813599,0.00172629
3595.29694336,0.00178683
3597.22575073,0.00172223
3599.15455811,0.00161137
3601.08336548,0.00172302
3603.01217285,0.00175400
3604.94098022,0.00167179
3606.86978760,0.00167044
3608.79859497,0.00159218
3610.72740234,0.00152666
3612.65620972,0.00161005
3614.58501709,0.00161646
3616.51382446,0.00171169
3618.44263184,0.00169375
3620.37143921,0.00160297
3622.30024658,0.00167886
3624.22905395,0.00168665
3626.15786133,0.00181713
3628.08666870,0.00157976
3630.01547607,0.00144894
3631.94428345,0.00178551
3633.87309082,0.00170629
3635.80189819,0.00171132
3637.73070557,0.00180602
3639.65951294,0.00172396
3641.58832031,0.00171042
3643.51712769,0.00179538
3645.44593506,0.00169962
3647.37474243,0.00152284
3649.30354980,0.00157649
3651.23235718,0.00148344
3653.16116455,0.00168914
3655.08997192,0.00169776
3657.01877930,0.00158370
3658.94758667,0.00185854
3660.87639404,0.00169151
3662.80520142,0.00174736
3664.73400879,0.00175558
3666.66281616,0.00168136
3668.59162354,0.00160181
3670.52043091,0.00130005
3672.44923828,0.00162437
3674.37804565,0.00152747
3676.30685303,0.00138491
3678.23566040,0.00166635
3680.16446777,0.00166992
3682.09327515,0.00171224
3684.02208252,0.00165095
3685.95088989,0.00175648
3687.87969727,0.00163534
3689.80850464,0.00147667
3691.73731201,0.00160569
3693.66611938,0.00161423
3695.59492676,0.00175026
3697.52373413,0.00166675
3699.45254150,0.00161351
3701.38134888,0.00152308
3703.31015625,0.00151854
3705.23896362,0.00180776
3707.16777100,0.00170239
3709.09657837,0.00160992
3711.02538574,0.00150843
3712.95419312,0.00151705
3714.88300049,0.00167203
3716.81180786,0.00165314
3718.74061523,0.00171650
3720.66942261,0.00161171
3722.59822998,0.00161059
3724.52703735,0.00160663
3726.45584473,0.00154237
3728.38465210,0.00167886
3730.31345947,0.00163264
3732.24226685,0.00157215
3734.17107422,0.00148508
3736.09988159,0.00141996
3738.02868896,0.00148268
3739.95749634,0.00160771
3741.88630371,0.00162963
3743.81511108,0.00131712
3745.74391846,0.00127728
3747.67272583,0.00149525
3749.60153320,0.00146469
3751.53034058,0.00132874
3753.45914795,0.00140502
3755.38795532,0.00158612
3757.31676270,0.00157340
3759.24557007,0.00154467
3761.17437744,0.00152577
3763.10318481,0.00159706
3765.03199219,0.00162721
3766.96079956,0.00151456
3768.88960693,0.00154118
3770.81841431,0.00156496
3772.74722168,0.00157957
3774.67602905,0.00153420
3776.60483643,0.00151079
3778.53364380,0.00154958
3780.46245117,0.00154233
3782.39125854,0.00165387
3784.32006592,0.00156121
3786.24887329,0.00140188
3788.17768066,0.00155459
3790.10648804,0.00160510
3792.03529541,0.00152862
3793.96410278,0.00155737
3795.89291016,0.00148671
3797.82171753,0.00155088
3799.75052490,0.00151501
3801.67933228,0.00125862
3803.60813965,0.00156922
3805.53694702,0.00155833
3807.46575439,0.00135191
3809.39456177,0.00163352
3811.32336914,0.00156419
3813.25217651,0.00164262
3815.18098389,0.00146549
3817.10979126,0.00125179
3819.03859863,0.00156911
3820.96740601,0.00132323
3822.89621338,0.00137060
3824.82502075,0.00160146
3826.75382812,0.00140607
3828.68263550,0.00150333
3830.61144287,0.00144843
3832.54025024,0.00136082
3834.46905762,0.00147972
3836.39786499,0.00140910
3838.32667236,0.00133217
3840.25547974,0.00144562
3842.18428711,0.00156370
3844.11309448,0.00149008
3846.04190186,0.00143114
3847.97070923,0.00154866
3849.89951660,0.00156023
3851.82832397,0.00134547
3853.75713135,0.00113668
3855.68593872,0.00122712
3857.61474609,0.00146622
3859.54355347,0.00146283
3861.47236084,0.00150258
3863.40116821,0.00140015
3865.32997559,0.00123255
3867.25878296,0.00147362
3869.18759033,0.00134786
3871.11639770,0.00128166
3873.04520508,0.00146197
3874.97401245,0.00130611
3876.90281982,0.00148727
3878.83162720,0.00149354
3880.76043457,0.00126258
3882.68924194,0.00142433
3884.61804932,0.00140362
3886.54685669,0.00132099
3888.47566406,0.00143500
3890.40447144,0.00142069
3892.33327881,0.00134775
3894.26208618,0.00137941
3896.19089355,0.00137594
3898.11970093,0.00136120
3900.04850830,0.00135708
3901.97731567,0.00130716
3903.90612305,0.00137917
3905.83493042,0.00145620
3907.76373779,0.00144803
3909.69254517,0.00144174
3911.62135254,0.00139530
3913.55015991,0.00139514
3915.47896728,0.00136327
3917.40777466,0.00129382
3919.33658203,0.00138060
3921.26538940,0.00139807
3923.19419678,0.00133225
3925.12300415,0.00137346
3927.05181152,0.00141441
3928.98061890,0.00141505
3930.90942627,0.00134951
3932.83823364,0.00137128
3934.76704102,0.00137771
3936.69584839,0.00134021
3938.62465576,0.00143675
3940.55346313,0.00135784
3942.48227051,0.00130058
3944.41107788,0.00136295
3946.33988525,0.00135428
3948.26869263,0.00138512
3950.19750000,0.00140089
3952.12630737,0.00140711
3954.05511475,0.00134153
3955.98392212,0.00133332
3957.91272949,0.00139452
3959.84153687,0.00137800
3961.77034424,0.00131129
3963.69915161,0.00130654
3965.62795898,0.00143672
3967.55676636,0.00138222
3969.48557373,0.00131209
3971.41438110,0.00136336
3973.34318848,0.00142131
3975.27199585,0.00147530
3977.20080322,0.00133810
3979.12961060,0.00129589
3981.05841797,0.00138307
3982.98722534,0.00139356
3984.91603271,0.00132108
3986.84484009,0.00127822
3988.77364746,0.00130530
3990.70245483,0.00129543
3992.63126221,0.00137640
3994.56006958,0.00132167
3996.48887695,0.00128366
3998.41768433,0.00142508
4000.34649170,0.00137066
4002.27529907,0.00127473
4004.20410645,0.00130097
4006.13291382,0.00138130
4008.06172119,0.00135208
4009.99052856,0.00130183
4011.91933594,0.00134820
4013.84814331,0.00130912
4015.77695068,0.00125332
4017.70575806,0.00128187
4019.63456543,0.00131477
4021.56337280,0.00127155
4023.49218018,0.00127676
4025.42098755,0.00128057
4027.34979492,0.00127660
4029.27860229,0.00132535
4031.20740967,0.00130772
4033.13621704,0.00130357
4035.06502441,0.00128937
4036.99383179,0.00133693
4038.92263916,0.00133821
4040.85144653,0.00131333
4042.78025391,0.00132037
4044.70906128,0.00122163
4046.63786865,0.00135366
4048.56667603,0.00134382
4050.49548340,0.00123315
4052.42429077,0.00132481
4054.35309814,0.00123333
4056.28190552,0.00125192
4058.21071289,0.00127641
4060.13952026,0.00127185
4062.06832764,0.00132387
4063.99713501,0.00124976
4065.92594238,0.00124577
4067.85474976,0.00121654
4069.78355713,0.00124362
4071.71236450,0.00123257
4073.64117187,0.00114745
4075.56997925,0.00117991
4077.49878662,0.00121327
4079.42759399,0.00122016
4081.35640137,0.00115060
4083.28520874,0.00122612
4085.21401611,0.00130075
4087.14282349,0.00125530
4089.07163086,0.00125775
4091.00043823,0.00119246
4092.92924561,0.00123142
4094.85805298,0.00120862
4096.78686035,0.00114705
4098.71566772,0.00122229
4100.64447510,0.00123949
4102.57328247,0.00122609
4104.50208984,0.00115015
4106.43089722,0.00116052
4108.35970459,0.00124676
4110.28851196,0.00122077
4112.21731934,0.00116895
4114.14612671,0.00121452
4116.07493408,0.00127698
4118.00374145,0.00120049
4119.93254883,0.00117696
4121.86135620,0.00120426
4123.79016357,0.00118967
4125.71897095,0.00122013
4127.64777832,0.00123373
4129.57658569,0.00116046
4131.50539307,0.00110835
4133.43420044,0.00113341
4135.36300781,0.00113296
4137.29181519,0.00117874
4139.22062256,0.00119816
4141.14942993,0.00119699
4143.07823730,0.00119251
4145.00704468,0.00117721
4146.93585205,0.00121971
4148.86465942,0.00115193
4150.79346680,0.00118491
4152.72227417,0.00122113
4154.65108154,0.00117248
4156.57988892,0.00116045
4158.50869629,0.00108952
4160.43750366,0.00115697
4162.36631103,0.00116739
4164.29511841,0.00118504
4166.22392578,0.00117908
4168.15273315,0.00107493
4170.08154053,0.00113781
4172.01034790,0.00110304
4173.93915527,0.00109568
4175.86796265,0.00111137
4177.79677002,0.00110045
4179.72557739,0.00116516
4181.65438477,0.00117871
4183.58319214,0.00118526
4185.51199951,0.00110130
4187.44080688,0.00106631
4189.36961426,0.00109395
4191.29842163,0.00111848
4193.22722900,0.00108617
4195.15603638,0.00105944
4197.08484375,0.00111922
4199.01365112,0.00103537
4200.94245850,0.00107036
4202.87126587,0.00112344
4204.80007324,0.00105891
4206.72888062,0.00109136
4208.65768799,0.00110446
4210.58649536,0.00108887
4212.51530273,0.00105853
4214.44411011,0.00107252
4216.37291748,0.00106598
4218.30172485,0.00109805
4220.23053223,0.00110528
4222.15933960,0.00105694
4224.08814697,0.00112507
4226.01695435,0.00110136
4227.94576172,0.00108760
4229.87456909,0.00109039
4231.80337646,0.00111200
4233.73218384,0.00113246
4235.66099121,0.00103273
4237.58979858,0.00100985
4239.51860596,0.00095745
4241.44741333,0.00101336
4243.37622070,0.00110085
4245.30502808,0.00106132
4247.23383545,0.00107749
4249.16264282,0.00105233
4251.09145020,0.00105228
4253.02025757,0.00102262
4254.94906494,0.00104691
4256.87787231,0.00108560
4258.80667969,0.00098747
4260.73548706,0.00107053
4262.66429443,0.00109010
4264.59310181,0.00100669
4266.52190918,0.00106286
4268.45071655,0.00100409
4270.37952393,0.00099216
4272.30833130,0.00105886
4274.23713867,0.00100461
4276.16594604,0.00097011
4278.09475342,0.00101157
4280.02356079,0.00103385
4281.95236816,0.00094493
4283.88117554,0.00099660
4285.80998291,0.00108518
4287.73879028,0.00101065
4289.66759766,0.00100682
4291.59640503,0.00094009
4293.52521240,0.00097050
4295.45401978,0.00101936
4297.38282715,0.00090633
4299.31163452,0.00099443
4301.24044189,0.00109591
4303.16924927,0.00098935
4305.09805664,0.00086643
4307.02686401,0.00099890
4308.95567139,0.00105716
4310.88447876,0.00093187
4312.81328613,0.00096329
4314.74209351,0.00094922
4316.67090088,0.00100293
4318.59970825,0.00102443
4320.52851562,0.00097327
4322.45732300,0.00096904
4324.38613037,0.00089633
4326.31493774,0.00093577
4328.24374512,0.00096150
4330.17255249,0.00098720
4332.10135986,0.00095311
4334.03016724,0.00094929
4335.95897461,0.00106619
4337.88778198,0.00098303
4339.81658936,0.00094959
4341.74539673,0.00093893
4343.67420410,0.00092646
4345.60301147,0.00099910
4347.53181885,0.00095253
4349.46062622,0.00097746
4351.38943359,0.00102704
4353.31824097,0.00099369
4355.24704834,0.00103600
4357.17585571,0.00097306
4359.10466309,0.00087111
4361.03347046,0.00093944
4362.96227783,0.00096098
4364.89108520,0.00101342
4366.81989258,0.00096754
4368.74869995,0.00086615
4370.67750732,0.00091055
4372.60631470,0.00087105
4374.53512207,0.00095234
4376.46392944,0.00088891
4378.39273682,0.00086653
4380.32154419,0.00097718
4382.25035156,0.00082537
4384.17915894,0.00090155
4386.10796631,0.00088441
4388.03677368,0.00087346
4389.96558105,0.00098789
4391.89438843,0.00094751
4393.82319580,0.00099348
4395.75200317,0.00084413
4397.68081055,0.00087918
4399.60961792,0.00099633
4401.53842529,0.00090206
4403.46723267,0.00090210
4405.39604004,0.00085341
4407.32484741,0.00090290
4409.25365478,0.00093646
4411.18246216,0.00091226
4413.11126953,0.00091267
4415.04007690,0.00087159
4416.96888428,0.00087060
4418.89769165,0.00084183
4420.82649902,0.00083690
4422.75530640,0.00087151
4424.68411377,0.00089793
4426.61292114,0.00090742
4428.54172852,0.00091244
4430.47053589,0.00082316
4432.39934326,0.00079599
4434.32815063,0.00089671
4436.25695801,0.00085227
4438.18576538,0.00086657
4440.11457275,0.00091897
4442.04338013,0.00088814
4443.97218750,0.00089066
4445.90099487,0.00085679
4447.82980225,0.00086029
4449.75860962,0.00089977
4451.68741699,0.00085498
4453.61622437,0.00085211
4455.54503174,0.00084663
4457.47383911,0.00075276
4459.40264648,0.00081742
4461.33145386,0.00080552
4463.26026123,0.00075762
4465.18906860,0.00088940
4467.11787598,0.00087046
4469.04668335,0.00085390
4470.97549072,0.00085506
4472.90429810,0.00084525
4474.83310547,0.00086968
4476.76191284,0.00081386
4478.69072021,0.00079393
4480.61952759,0.00083626
4482.54833496,0.00086664
4484.47714233,0.00076179
4486.40594971,0.00078371
4488.33475708,0.00085118
4490.26356445,0.00079533
4492.19237183,0.00085862
4494.12117920,0.00090170
4496.04998657,0.00086588
4497.97879395,0.00072485
4499.90760132,0.00072929
4501.83640869,0.00080900
4503.76521606,0.00077803
4505.69402344,0.00085245
4507.62283081,0.00079435
4509.55163818,0.00080539
4511.48044556,0.00086627
4513.40925293,0.00081805
4515.33806030,0.00090126
4517.26686768,0.00085159
4519.19567505,0.00074686
4521.12448242,0.00079631
4523.05328979,0.00081025
4524.98209717,0.00077050
4526.91090454,0.00078679
4528.83971191,0.00080789
4530.76851929,0.00077470
4532.69732666,0.00076107
4534.62613403,0.00084373
4536.55494141,0.00083830
4538.48374878,0.00075695
4540.41255615,0.00080696
4542.34136353,0.00074678
4544.27017090,0.00079090
4546.19897827,0.00087257
4548.12778564,0.00073005
4550.05659302,0.00073823
4551.98540039,0.00073945
4553.91420776,0.00073190
4555.84301514,0.00075191
4557.77182251,0.00076666
4559.70062988,0.00080498
4561.62943726,0.00076794
4563.55824463,0.00077653
4565.48705200,0.00071617
4567.41585937,0.00074512
4569.34466675,0.00075450
4571.27347412,0.00070130
4573.20228149,0.00074217
4575.13108887,0.00065998
4577.05989624,0.00068337
4578.98870361,0.00071644
4580.91751099,0.00071878
4582.84631836,0.00071088
4584.77512573,0.00067887
4586.70393311,0.00076617
4588.63274048,0.00075200
4590.56154785,0.00079618
4592.49035522,0.00076313
4594.41916260,0.00067821
4596.34796997,0.00074600
4598.27677734,0.00067389
4600.20558472,0.00066402
4602.13439209,0.00076946
4604.06319946,0.00081563
4605.99200684,0.00076196
4607.92081421,0.00073383
4609.84962158,0.00078216
4611.77842895,0.00069446
4613.70723633,0.00067010
4615.63604370,0.00071810
4617.56485107,0.00069553
4619.49365845,0.00071244
4621.42246582,0.00067791
4623.35127319,0.00067594
4625.28008057,0.00073924
4627.20888794,0.00071665
4629.13769531,0.00072812
4631.06650269,0.00069724
4632.99531006,0.00064472
4634.92411743,0.00070176
4636.85292480,0.00074273
4638.78173218,0.00073794
4640.71053955,0.00064596
4642.63934692,0.00067339
4644.56815430,0.00071429
4646.49696167,0.00068281
4648.42576904,0.00076481
4650.35457642,0.00067597
4652.28338379,0.00064130
4654.21219116,0.00065965
4656.14099853,0.00066590
4658.06980591,0.00075930
4659.99861328,0.00066736
4661.92742065,0.00068245
4663.85622803,0.00067679
4665.78503540,0.00065305
4667.71384277,0.00075126
4669.64265015,0.00068627
4671.57145752,0.00063867
4673.50026489,0.00064756
4675.42907227,0.00072492
4677.35787964,0.00068406
4679.28668701,0.00061765
4681.21549438,0.00065441
4683.14430176,0.00058286
4685.07310913,0.00067380
4687.00191650,0.00067986
4688.93072388,0.00061768
4690.85953125,0.00067459
4692.78833862,0.00065696
4694.71714600,0.00070851
4696.64595337,0.00064153
4698.57476074,0.00063559
4700.50356812,0.00073662
4702.43237549,0.00064541
4704.36118286,0.00066128
4706.28999023,0.00069069
4708.21879761,0.00062054
4710.14760498,0.00063663
4712.07641235,0.00064541
4714.00521973,0.00062864
4715.93402710,0.00062622
4717.86283447,0.00063662
4719.79164185,0.00061627
4721.72044922,0.00058782
4723.64925659,0.00061765
4725.57806396,0.00060719
4727.50687134,0.00063740
4729.43567871,0.00066573
4731.36448608,0.00062328
4733.29329346,0.00068216
4735.22210083,0.00070312
4737.15090820,0.00065669
4739.07971558,0.00061473
4741.00852295,0.00062545
4742.93733032,0.00062566
4744.86613770,0.00054929
4746.79494507,0.00062145
4748.72375244,0.00064880
4750.65255981,0.00064224
4752.58136719,0.00064146
4754.51017456,0.00058855
4756.43898193,0.00066022
4758.36778931,0.00064174
4760.29659668,0.00066586
4762.22540405,0.00065913
4764.15421143,0.00058947
4766.08301880,0.00062818
4768.01182617,0.00057132
4769.94063354,0.00064145
4771.86944092,0.00061016
4773.79824829,0.00054765
4775.72705566,0.00062893
4777.65586304,0.00052373
4779.58467041,0.00061593
4781.51347778,0.00067744
4783.44228516,0.00056459
4785.37109253,0.00060152
4787.29989990,0.00054460
4789.22870728,0.00055740
4791.15751465,0.00059087
4793.08632202,0.00053294
4795.01512939,0.00067252
4796.94393677,0.00066682
4798.87274414,0.00051484
4800.80155151,0.00061245
4802.73035889,0.00063749
4804.65916626,0.00058117
4806.58797363,0.00058901
4808.51678101,0.00053092
4810.44558838,0.00057002
4812.37439575,0.00064010
4814.30320312,0.00062184
4816.23201050,0.00058048
4818.16081787,0.00059067
4820.08962524,0.00059424
4822.01843262,0.00059557
4823.94723999,0.00065070
4825.87604736,0.00055174
4827.80485474,0.00054437
4829.73366211,0.00058232
4831.66246948,0.00051855
4833.59127686,0.00061609
4835.52008423,0.00058619
4837.44889160,0.00053768
4839.37769897,0.00055254
4841.30650635,0.00052250
4843.23531372,0.00059926
4845.16412109,0.00054914
4847.09292847,0.00052531
4849.02173584,0.00056790
4850.95054321,0.00054309
4852.87935059,0.00057425
4854.80815796,0.00051899
4856.73696533,0.00051825
4858.66577270,0.00059983
4860.59458008,0.00057254
4862.52338745,0.00055420
4864.45219482,0.00056118
4866.38100220,0.00055259
4868.30980957,0.00054491
4870.23861694,0.00053912
4872.16742432,0.00052993
4874.09623169,0.00053097
4876.02503906,0.00058459
4877.95384644,0.00055942
4879.88265381,0.00046022
4881.81146118,0.00051219
4883.74026855,0.00055748
4885.66907593,0.00053475
4887.59788330,0.00056828
4889.52669067,0.00051137
4891.45549805,0.00050396
4893.38430542,0.00055379
4895.31311279,0.00052542
4897.24192017,0.00055584
4899.17072754,0.00056406
4901.09953491,0.00054951
4903.02834228,0.00052313
4904.95714966,0.00049230
4906.88595703,0.00052205
4908.81476440,0.00052628
4910.74357178,0.00054313
4912.67237915,0.00055387
4914.60118652,0.00053883
4916.52999390,0.00049619
4918.45880127,0.00052870
4920.38760864,0.00059342
4922.31641602,0.00052223
4924.24522339,0.00052413
4926.17403076,0.00050477
4928.10283813,0.00052463
4930.03164551,0.00058356
4931.96045288,0.00048735
4933.88926025,0.00052394
4935.81806763,0.00050404
4937.74687500,0.00046888
4939.67568237,0.00053616
4941.60448975,0.00050479
4943.53329712,0.00052489
4945.46210449,0.00053448
4947.39091187,0.00053653
4949.31971924,0.00044461
4951.24852661,0.00041853
4953.17733398,0.00055132
4955.10614136,0.00048848
4957.03494873,0.00049632
4958.96375610,0.00054668
4960.89256348,0.00048567
4962.82137085,0.00046196
4964.75017822,0.00045751
4966.67898560,0.00053061
4968.60779297,0.00052159
4970.53660034,0.00044291
4972.46540771,0.00046910
4974.39421509,0.00049688
4976.32302246,0.00045557
4978.25182983,0.00049353
4980.18063721,0.00056338
4982.10944458,0.00047896
4984.03825195,0.00044728
4985.96705933,0.00047640
4987.89586670,0.00043385
4989.82467407,0.00050233
4991.75348145,0.00059651
4993.68228882,0.00051994
4995.61109619,0.00044492
4997.53990356,0.00044551
4999.46871094,0.00046277
5001.39751831,0.00049960
5003.32632568,0.00047221
5005.25513306,0.00049264
5007.18394043,0.00048278
5009.11274780,0.00041389
5011.04155518,0.00048587
5012.97036255,0.00045868
5014.89916992,0.00042641
5016.82797729,0.00049123
5018.75678467,0.00047170
5020.68559204,0.00049232
5022.61439941,0.00049962
5024.54320679,0.00047283
5026.47201416,0.00044818
5028.40082153,0.00045999
5030.32962891,0.00052586
5032.25843628,0.00050587
5034.18724365,0.00049445
5036.11605103,0.00049848
5038.04485840,0.00046133
5039.97366577,0.00043548
5041.90247314,0.00040748
5043.83128052,0.00040222
5045.76008789,0.00042841
5047.68889526,0.00045185
5049.61770264,0.00043427
5051.54651001,0.00047600
5053.47531738,0.00049842
5055.40412476,0.00046172
5057.33293213,0.00047675
5059.26173950,0.00042320
5061.19054687,0.00046868
5063.11935425,0.00048315
5065.04816162,0.00037493
5066.97696899,0.00041970
5068.90577637,0.00043970
5070.83458374,0.00045431
5072.76339111,0.00042162
5074.69219849,0.00046484
5076.62100586,0.00054065
5078.54981323,0.00040524
5080.47862061,0.00046744
5082.40742798,0.00045365
5084.33623535,0.00037673
5086.26504272,0.00042526
5088.19385010,0.00036377
5090.12265747,0.00045164
5092.05146484,0.00042660
5093.98027222,0.00036087
5095.90907959,0.00042985
5097.83788696,0.00041919
5099.76669434,0.00042988
5101.69550171,0.00041854
5103.62430908,0.00042682
5105.55311645,0.00040108
5107.48192383,0.00040272
5109.41073120,0.00042898
5111.33953857,0.00038707
5113.26834595,0.00038356
5115.19715332,0.00037927
5117.12596069,0.00042251
5119.05476807,0.00042402
5120.98357544,0.00039387
5122.91238281,0.00037241
5124.84119019,0.00033513
5126.76999756,0.00035936
5128.69880493,0.00040030
5130.62761230,0.00042317
5132.55641968,0.00039320
5134.48522705,0.00039289
5136.41403442,0.00037337
5138.34284180,0.00037831
5140.27164917,0.00042637
5142.20045654,0.00041690
5144.12926392,0.00040374
5146.05807129,0.00034932
5147.98687866,0.00041378
5149.91568603,0.00040439
5151.84449341,0.00031692
5153.77330078,0.00041911
5155.70210815,0.00040783
5157.63091553,0.00035821
5159.55972290,0.00042196
5161.48853027,0.00043148
5163.41733765,0.00036257
5165.34614502,0.00035534
5167.27495239,0.00044525
5169.20375977,0.00048724
5171.13256714,0.00039862
5173.06137451,0.00034827
5174.99018188,0.00043063
5176.91898926,0.00039003
5178.84779663,0.00038223
5180.77660400,0.00042840
5182.70541138,0.00035396
5184.63421875,0.00034964
5186.56302612,0.00041148
5188.49183350,0.00041874
5190.42064087,0.00035561
5192.34944824,0.00040629
5194.27825562,0.00039530
5196.20706299,0.00035722
5198.13587036,0.00041609
5200.06467773,0.00032106
5201.99348511,0.00034512
5203.92229248,0.00034314
5205.85109985,0.00031848
5207.77990723,0.00039379
5209.70871460,0.00033427
5211.63752197,0.00034890
5213.56632935,0.00034387
5215.49513672,0.00037340
5217.42394409,0.00038670
5219.35275146,0.00032398
5221.28155884,0.00041123
5223.21036621,0.00037240
5225.13917358,0.00034029
5227.06798096,0.00041898
5228.99678833,0.00036335
5230.92559570,0.00034236
5232.85440308,0.00034269
5234.78321045,0.00029689
5236.71201782,0.00034303
5238.64082520,0.00031416
5240.56963257,0.00029951
5242.49843994,0.00042049
5244.42724731,0.00039672
5246.35605469,0.00036489
5248.28486206,0.00038064
5250.21366943,0.00033913
5252.14247681,0.00031561
5254.07128418,0.00036434
5256.00009155,0.00040789
5257.92889893,0.00034237
5259.85770630,0.00039325
5261.78651367,0.00039902
5263.71532104,0.00034191
5265.64412842,0.00040802
5267.57293579,0.00038400
5269.50174316,0.00035748
5271.43055054,0.00031000
5273.35935791,0.00031898
5275.28816528,0.00041135
5277.21697266,0.00037981
5279.14578003,0.00037132
5281.07458740,0.00038394
5283.00339478,0.00035713
5284.93220215,0.00032239
5286.86100952,0.00032851
5288.78981689,0.00034796
5290.71862427,0.00030261
5292.64743164,0.00030319
5294.57623901,0.00034850
5296.50504639,0.00035621
5298.43385376,0.00031760
5300.36266113,0.00029549
5302.29146851,0.00030276
5304.22027588,0.00031319
5306.14908325,0.00033178
5308.07789062,0.00028011
5310.00669800,0.00024618
5311.93550537,0.00030797
5313.86431274,0.00035583
5315.79312012,0.00038364
5317.72192749,0.00033310
5319.65073486,0.00026487
5321.57954224,0.00032370
5323.50834961,0.00033404
5325.43715698,0.00029474
5327.36596436,0.00032727
5329.29477173,0.00035151
5331.22357910,0.00032131
5333.15238647,0.00028160
5335.08119385,0.00033430
5337.01000122,0.00036994
5338.93880859,0.00031136
5340.86761597,0.00026861
5342.79642334,0.00027269
5344.72523071,0.00033670
5346.65403809,0.00035396
5348.58284546,0.00028554
5350.51165283,0.00028819
5352.44046020,0.00035454
5354.36926758,0.00035854
5356.29807495,0.00033062
5358.22688232,0.00030516
5360.15568970,0.00033026
5362.08449707,0.00032804
5364.01330444,0.00023611
5365.94211182,0.00031896
5367.87091919,0.00035680
5369.79972656,0.00023903
5371.72853394,0.00022148
5373.65734131,0.00024951
5375.58614868,0.00032477
5377.51495605,0.00028568
5379.44376343,0.00026256
5381.37257080,0.00032016
5383.30137817,0.00025570
5385.23018555,0.00023008
5387.15899292,0.00024861
5389.08780029,0.00033471
5391.01660767,0.00035215
5392.94541504,0.00029209
5394.87422241,0.00028194
5396.80302978,0.00024602
5398.73183716,0.00032064
5400.66064453,0.00031784
5402.58945190,0.00024536
5404.51825928,0.00031392
5406.44706665,0.00036273
5408.37587402,0.00033169
5410.30468140,0.00028693
5412.23348877,0.00032725
5414.16229614,0.00031744
5416.09110352,0.00027916
5418.01991089,0.00027739
5419.94871826,0.00019319
5421.87752563,0.00022533
5423.80633301,0.00026187
5425.73514038,0.00023390
5427.66394775,0.00029426
5429.59275513,0.00030271
5431.52156250,0.00029907
5433.45036987,0.00026670
5435.37917725,0.00026698
5437.30798462,0.00028464
5439.23679199,0.00021143
5441.16559936,0.00026329
5443.09440674,0.00027468
5445.02321411,0.00023391
5446.95202148,0.00026205
5448.88082886,0.00024301
5450.80963623,0.00025946
5452.73844360,0.00029315
5454.66725098,0.00034339
5456.59605835,0.00026599
5458.52486572,0.00021772
5460.45367310,0.00030844
5462.38248047,0.00024283
5464.31128784,0.00027071
5466.24009521,0.00030032
5468.16890259,0.00026663
5470.09770996,0.00030419
5472.02651733,0.00025900
5473.95532471,0.00029790
5475.88413208,0.00026915
5477.81293945,0.00022704
5479.74174683,0.00032459
5481.67055420,0.00030269
5483.59936157,0.00025228
5485.52816895,0.00025942
5487.45697632,0.00029781
5489.38578369,0.00030814
5491.31459106,0.00028020
5493.24339844,0.00025471
5495.17220581,0.00022046
5497.10101318,0.00023747
5499.02982056,0.00028111
5500.95862793,0.00030684
5502.88743530,0.00028516
5504.81624268,0.00028154
5506.74505005,0.00024791
5508.67385742,0.00018434
5510.60266479,0.00022588
5512.53147217,0.00024207
5514.46027954,0.00027523
5516.38908691,0.00030526
5518.31789429,0.00026872
5520.24670166,0.00027892
5522.17550903,0.00022723
5524.10431641,0.00019267
5526.03312378,0.00021133
5527.96193115,0.00021465
5529.89073853,0.00027210
5531.81954590,0.00026486
5533.74835327,0.00025282
5535.67716064,0.00026680
5537.60596802,0.00024420
5539.53477539,0.00027181
5541.46358276,0.00023735
5543.39239014,0.00024001
5545.32119751,0.00031808
5547.25000488,0.00023956
5549.17881226,0.00018072
5551.10761963,0.00025103
5553.03642700,0.00026949
5554.96523437,0.00021208
5556.89404175,0.00018487
5558.82284912,0.00023563
5560.75165649,0.00023896
5562.68046387,0.00019319
5564.60927124,0.00022708
5566.53807861,0.00021164
5568.46688599,0.00017812
5570.39569336,0.00027117
5572.32450073,0.00028338
5574.25330811,0.00026475
5576.18211548,0.00028406
5578.11092285,0.00018899
5580.03973022,0.00018959
5581.96853760,0.00027558
5583.89734497,0.00026472
5585.82615234,0.00027686
5587.75495972,0.00026380
5589.68376709,0.00020131
5591.61257446,0.00021290
5593.54138184,0.00022505
5595.47018921,0.00022410
5597.39899658,0.00027265
5599.32780395,0.00028358
5601.25661133,0.00021643
5603.18541870,0.00020215
5605.11422607,0.00026316
5607.04303345,0.00025791
5608.97184082,0.00021745
5610.90064819,0.00018349
5612.82945557,0.00020076
5614.75826294,0.00025173
5616.68707031,0.00022911
5618.61587769,0.00023358
5620.54468506,0.00023150
5622.47349243,0.00025240
5624.40229980,0.00026294
5626.33110718,0.00020929
5628.25991455,0.00023291
5630.18872192,0.00018843
5632.11752930,0.00016606
5634.04633667,0.00020944
5635.97514404,0.00019502
5637.90395142,0.00019529
5639.83275879,0.00021817
5641.76156616,0.00025363
5643.69037353,0.00021616
5645.61918091,0.00021080
5647.54798828,0.00020346
5649.47679565,0.00017164
5651.40560303,0.00020968
5653.33441040,0.00018850
5655.26321777,0.00019839
5657.19202515,0.00019880
5659.12083252,0.00020719
5661.04963989,0.00024226
5662.97844727,0.00019735
5664.90725464,0.00020953
5666.83606201,0.00022571
5668.76486938,0.00020200
5670.69367676,0.00021194
5672.62248413,0.00022070
5674.55129150,0.00018815
5676.48009888,0.00021435
5678.40890625,0.00024257
5680.33771362,0.00024814
5682.26652100,0.00024250
5684.19532837,0.00017031
5686.12413574,0.00026260
5688.05294311,0.00021821
5689.98175049,0.00014583
5691.91055786,0.00029011
5693.83936523,0.00022442
5695.76817261,0.00021568
5697.69697998,0.00025219
5699.62578735,0.00018585
5701.55459473,0.00022216
5703.48340210,0.00026850
5705.41220947,0.00023445
5707.34101685,0.00017284
5709.26982422,0.00018081
5711.19863159,0.00017967
5713.12743896,0.00022101
5715.05624634,0.00023040
5716.98505371,0.00021441
5718.91386108,0.00024373
5720.84266846,0.00017911
5722.77147583,0.00017623
5724.70028320,0.00018405
5726.62909058,0.00017309
5728.55789795,0.00019309
5730.48670532,0.00018794
5732.41551270,0.00025522
5734.34432007,0.00027220
5736.27312744,0.00019830
5738.20193481,0.00021066
5740.13074219,0.00019465
5742.05954956,0.00012921
5743.98835693,0.00019400
5745.91716431,0.00018986
5747.84597168,0.00016828
5749.77477905,0.00018471
5751.70358643,0.00012474
5753.63239380,0.00018273
5755.56120117,0.00018724
5757.49000854,0.00014142
5759.41881592,0.00015949
5761.34762329,0.00016972
5763.27643066,0.00019461
5765.20523804,0.00018463
5767.13404541,0.00019235
5769.06285278,0.00019114
5770.99166016,0.00021566
5772.92046753,0.00020568
5774.84927490,0.00017806
5776.77808228,0.00017289
5778.70688965,0.00014290
5780.63569702,0.00019169
5782.56450439,0.00016030
5784.49331177,0.00013956
5786.42211914,0.00016426
5788.35092651,0.00017274
5790.27973389,0.00016760
5792.20854126,0.00012770
5794.13734863,0.00021147
5796.06615601,0.00019958
5797.99496338,0.00018068
5799.92377075,0.00020360
5801.85257812,0.00016462
5803.78138550,0.00016767
5805.71019287,0.00013628
5807.63900024,0.00017613
5809.56780762,0.00014495
5811.49661499,0.00017878
5813.42542236,0.00026071
5815.35422974,0.00016015
5817.28303711,0.00021449
5819.21184448,0.00022214
5821.14065186,0.00017870
5823.06945923,0.00019204
5824.99826660,0.00013584
5826.92707397,0.00023110
5828.85588135,0.00019071
5830.78468872,0.00007273
5832.71349609,0.00017893
5834.64230347,0.00013790
5836.57111084,0.00007658
5838.49991821,0.00013699
5840.42872559,0.00014505
5842.35753296,0.00016885
5844.28634033,0.00014962
5846.21514770,0.00018299
5848.14395508,0.00019883
5850.07276245,0.00016738
5852.00156982,0.00016077
5853.93037720,0.00010413
5855.85918457,0.00020013
5857.78799194,0.00021093
5859.71679932,0.00015843
5861.64560669,0.00019309
5863.57441406,0.00017356
5865.50322144,0.00025457
5867.43202881,0.00018969
5869.36083618,0.00011287
5871.28964355,0.00016480
5873.21845093,0.00011751
5875.14725830,0.00016000
5877.07606567,0.00022775
5879.00487305,0.00018594
5880.93368042,0.00015132
5882.86248779,0.00016621
5884.79129517,0.00016215
5886.72010254,0.00017611
5888.64890991,0.00018517
5890.57771728,0.00021925
5892.50652466,0.00019088
5894.43533203,0.00010814
5896.36413940,0.00021476
5898.29294678,0.00013985
5900.22175415,0.00006208
5902.15056152,0.00017295
5904.07936890,0.00015531
5906.00817627,0.00014634
5907.93698364,0.00013025
5909.86579102,0.00019023
5911.79459839,0.00020163
5913.72340576,0.00014842
5915.65221313,0.00014624
5917.58102051,0.00016030
5919.50982788,0.00022515
5921.43863525,0.00013935
5923.36744263,0.00014949
5925.29625000,0.00017670
5927.22505737,0.00014459
5929.15386475,0.00018957
5931.08267212,0.00012901
5933.01147949,0.00014349
5934.94028686,0.00015459
5936.86909424,0.00012058
5938.79790161,0.00009771
5940.72670898,0.00015681
5942.65551636,0.00016255
5944.58432373,0.00009491
5946.51313110,0.00024502
5948.44193848,0.00018500
5950.37074585,0.00013406
5952.29955322,0.00019247
5954.22836060,0.00009155
5956.15716797,0.00014101
5958.08597534,0.00015296
5960.01478271,0.00014366
5961.94359009,0.00012854
5963.87239746,0.00008245
5965.80120483,0.00013480
5967.73001221,0.00016174
5969.65881958,0.00017197
5971.58762695,0.00021121
5973.51643433,0.00020658
5975.44524170,0.00009659
5977.37404907,0.00015355
5979.30285645,0.00018775
5981.23166382,0.00010154
5983.16047119,0.00013473
5985.08927856,0.00009487
5987.01808594,0.00013155
5988.94689331,0.00009933
5990.87570068,0.00005737
5992.80450806,0.00015879
5994.73331543,0.00012019
5996.66212280,0.00013126
5998.59093018,0.00010810
6000.51973755,0.00010112
