399.26312622,0.00025909
401.19193359,0.00029787
403.12074097,0.00034120
405.04954834,0.00013163
406.97835571,0.00031484
408.90716309,0.00039301
410.83597046,0.00034794
412.76477783,0.00019180
414.69358521,0.00013872
416.62239258,0.00090968
418.55119995,0.00064517
420.48000732,0.00015901
422.40881470,0.00059078
424.33762207,0.00037583
426.26642944,0.00042729
428.19523682,0.00045244
430.12404419,0.00048642
432.05285156,0.00078640
433.98165894,0.00024886
435.91046631,0.00024650
437.83927368,0.00016540
439.76808105,0.00020119
441.69688843,0.00067261
443.62569580,0.00016033
445.55450317,0.00024167
447.48331055,0.00037305
449.41211792,0.00057673
451.34092529,0.00071590
453.26973267,0.00022043
455.19854004,0.00064482
457.12734741,0.00076963
459.05615479,0.00083706
460.98496216,0.00080743
462.91376953,0.00045820
464.84257690,0.00048362
466.77138428,0.00039550
468.70019165,0.00062443
470.62899902,0.00025410
472.55780640,0.00018334
474.48661377,0.00017616
476.41542114,-0.00003068
478.34422852,0.00061545
480.27303589,0.00040610
482.20184326,0.00037005
484.13065063,0.00040688
486.05945801,-0.00003179
487.98826538,0.00040786
489.91707275,0.00053137
491.84588013,-0.00011897
493.77468750,-0.00020551
495.70349487,0.00031082
497.63230225,0.00013087
499.56110962,0.00020822
501.48991699,0.00051116
503.41872437,0.00018788
505.34753174,0.00036716
507.27633911,0.00042903
509.20514648,0.00037844
511.13395386,0.00039507
513.06276123,0.00007878
514.99156860,0.00015551
516.92037598,0.00031230
518.84918335,0.00016115
520.77799072,0.00004909
522.70679810,0.00014499
524.63560547,0.00006741
526.56441284,0.00012682
528.49322021,0.00003583
530.42202759,-0.00004513
532.35083496,0.00031961
534.27964233,0.00002092
536.20844971,0.00013901
538.13725708,0.00042139
540.06606445,0.00005015
541.99487183,0.00020378
543.92367920,0.00032012
545.85248657,0.00016863
547.78129395,0.00000357
549.71010132,0.00015512
551.63890869,0.00004383
553.56771606,-0.00011315
555.49652344,0.00015655
557.42533081,-0.00017276
559.35413818,0.00005069
561.28294556,0.00032822
563.21175293,-0.00001655
565.14056030,0.00023641
567.06936768,0.00038227
568.99817505,0.00013732
570.92698242,-0.00006999
572.85578979,0.00006230
574.78459717,0.00028013
576.71340454,0.00029053
578.64221191,0.00051071
580.57101929,0.00035353
582.49982666,-0.00015635
584.42863403,-0.00003059
586.35744141,0.00008381
588.28624878,0.00022117
590.21505615,0.00052094
592.14386353,0.00022731
594.07267090,0.00005610
596.00147827,-0.00002318
597.93028564,0.00003126
599.85909302,0.00013332
601.78790039,0.00008601
603.71670776,0.00018338
605.64551514,0.00005599
607.57432251,0.00014024
609.50312988,0.00001065
611.43193726,0.00001328
613.36074463,0.00016456
615.28955200,-0.00000780
617.21835938,0.00018453
619.14716675,0.00017732
621.07597412,0.00010624
623.00478149,0.00032294
624.93358887,0.00006861
626.86239624,-0.00029150
628.79120361,0.00024400
630.72001099,0.00029780
632.64881836,0.00020877
634.57762573,0.00025862
636.50643311,0.00010551
638.43524048,0.00050185
640.36404785,0.00043903
642.29285522,0.00052206
644.22166260,0.00045202
646.15046997,0.00038217
648.07927734,0.00081395
650.00808472,0.00060318
651.93689209,0.00070965
653.86569946,0.00066441
655.79450684,0.00043958
657.72331421,0.00065442
659.65212158,0.00074702
661.58092896,0.00076293
663.50973633,0.00094321
665.43854370,0.00110403
667.36735107,0.00062252
669.29615845,0.00075412
671.22496582,0.00102227
673.15377319,0.00099193
675.08258057,0.00116650
677.01138794,0.00081306
678.94019531,0.00113934
680.86900269,0.00126431
682.79781006,0.00092176
684.72661743,0.00107326
686.65542480,0.00098077
688.58423218,0.00115405
690.51303955,0.00137128
692.44184692,0.00127106
694.37065430,0.00112355
696.29946167,0.00119672
698.22826904,0.00139580
700.15707642,0.00155690
702.08588379,0.00171576
704.01469116,0.00160164
705.94349854,0.00136246
707.87230591,0.00110359
709.80111328,0.00085295
711.72992065,0.00054680
713.65872803,0.00052946
715.58753540,0.00011305
717.51634277,-0.00017758
719.44515015,0.00031851
721.37395752,0.00008612
723.30276489,0.00023440
725.23157227,0.00032645
727.16037964,0.00000086
729.08918701,0.00020348
731.01799438,0.00015728
732.94680176,-0.00004479
734.87560913,0.00003178
736.80441650,0.00023646
738.73322388,-0.00003167
740.66203125,0.00024415
742.59083862,0.00027147
744.51964600,-0.00002262
746.44845337,0.00023120
748.37726074,-0.00001624
750.30606812,0.00033363
752.23487549,0.00040502
754.16368286,-0.00016861
756.09249023,0.00006841
758.02129761,0.00025874
759.95010498,0.00033853
761.87891235,0.00031474
763.80771973,0.00017303
765.73652710,0.00020582
767.66533447,0.00014514
769.59414185,0.00018549
771.52294922,0.00043649
773.45175659,0.00040963
775.38056396,0.00019268
777.30937134,0.00014890
779.23817871,0.00004083
781.16698608,0.00005334
783.09579346,0.00028371
785.02460083,0.00042326
786.95340820,0.00030051
788.88221558,0.00024720
790.81102295,0.00020893
792.73983032,0.00016874
794.66863770,0.00020823
796.59744507,0.00002945
798.52625244,0.00024537
800.45505981,0.00046029
802.38386719,0.00030810
804.31267456,0.00022999
806.24148193,0.00040542
808.17028931,0.00041031
810.09909668,0.00009805
812.02790405,0.00044926
813.95671143,0.00023818
815.88551880,0.00014056
817.81432617,0.00059313
819.74313354,0.00028482
821.67194092,0.00042979
823.60074829,0.00026022
825.52955566,0.00028533
827.45836304,0.00036996
829.38717041,0.00016618
831.31597778,0.00075909
833.24478516,0.00033252
835.17359253,0.00022876
837.10239990,0.00066005
839.03120728,0.00039270
840.96001465,0.00048127
842.88882202,0.00037919
844.81762939,0.00049774
846.74643677,0.00062698
848.67524414,0.00018503
850.60405151,0.00008234
852.53285889,0.00034239
854.46166626,0.00035845
856.39047363,0.00029229
858.31928101,0.00034562
860.24808838,0.00021634
862.17689575,0.00011070
864.10570313,0.00010620
866.03451050,0.00033572
867.96331787,0.00036005
869.89212524,0.00020792
871.82093262,0.00017780
873.74973999,0.00013218
875.67854736,0.00015452
877.60735474,0.00002453
879.53616211,0.00024432
881.46496948,0.00031202
883.39377686,0.00017381
885.32258423,0.00022033
887.25139160,0.00019191
889.18019897,0.00054120
891.10900635,0.00035648
893.03781372,0.00005065
894.96662109,0.00026944
896.89542847,0.00035935
898.82423584,0.00044001
900.75304321,0.00042301
902.68185059,0.00037027
904.61065796,0.00035084
906.53946533,0.00027491
908.46827271,0.00025922
910.39708008,0.00031945
912.32588745,0.00011566
914.25469482,0.00036362
916.18350220,0.00049198
918.11230957,0.00018849
920.04111694,0.00065967
921.96992432,0.00043481
923.89873169,0.00023587
925.82753906,0.00063088
927.75634644,0.00043960
929.68515381,0.00050426
931.61396118,0.00068554
933.54276855,0.00071031
935.47157593,0.00047189
937.40038330,0.00050118
939.32919067,0.00063898
941.25799805,0.00043167
943.18680542,0.00066373
945.11561279,0.00066726
947.04442017,0.00056716
948.97322754,0.00089589
950.90203491,0.00089408
952.83084229,0.00050504
954.75964966,0.00070674
956.68845703,0.00088296
958.61726440,0.00059178
960.54607178,0.00070297
962.47487915,0.00049519
964.40368652,0.00051271
966.33249390,0.00083467
968.26130127,0.00081252
970.19010864,0.00080346
972.11891602,0.00072431
974.04772339,0.00081878
975.97653076,0.00063150
977.90533813,0.00085036
979.83414551,0.00116746
981.76295288,0.00110485
983.69176025,0.00131450
985.62056763,0.00126593
987.54937500,0.00149897
989.47818237,0.00156884
991.40698975,0.00188428
993.33579712,0.00216057
995.26460449,0.00194796
997.19341187,0.00252534
999.12221924,0.00258080
1001.05102661,0.00265740
1002.97983398,0.00282154
1004.90864136,0.00281809
1006.83744873,0.00339645
1008.76625610,0.00340016
1010.69506348,0.00351180
1012.62387085,0.00385448
1014.55267822,0.00411566
1016.48148560,0.00429176
1018.41029297,0.00446172
1020.33910034,0.00468750
1022.26790771,0.00466797
1024.19671509,0.00506352
1026.12552246,0.00508564
1028.05432983,0.00517893
1029.98313721,0.00556329
1031.91194458,0.00551951
1033.84075195,0.00551580
1035.76955933,0.00546699
1037.69836670,0.00586274
1039.62717407,0.00589282
1041.55598145,0.00576669
1043.48478882,0.00605615
1045.41359619,0.00574066
1047.34240356,0.00549498
1049.27121094,0.00554768
1051.20001831,0.00553553
1053.12882568,0.00542642
1055.05763306,0.00533184
1056.98644043,0.00525209
1058.91524780,0.00519818
1060.84405518,0.00499704
1062.77286255,0.00468331
1064.70166992,0.00474188
1066.63047729,0.00452023
1068.55928467,0.00444359
1070.48809204,0.00445841
1072.41689941,0.00407394
1074.34570679,0.00385845
1076.27451416,0.00365578
1078.20332153,0.00353570
1080.13212891,0.00332919
1082.06093628,0.00321005
1083.98974365,0.00293108
1085.91855103,0.00285270
1087.84735840,0.00308082
1089.77616577,0.00258314
1091.70497314,0.00256752
1093.63378052,0.00272809
1095.56258789,0.00235196
1097.49139526,0.00214806
1099.42020264,0.00223292
1101.34901001,0.00238793
1103.27781738,0.00226176
1105.20662476,0.00231294
1107.13543213,0.00227713
1109.06423950,0.00200051
1110.99304687,0.00181608
1112.92185425,0.00212629
1114.85066162,0.00225929
1116.77946899,0.00193682
1118.70827637,0.00225802
1120.63708374,0.00214535
1122.56589111,0.00211166
1124.49469849,0.00216247
1126.42350586,0.00184684
1128.35231323,0.00238391
1130.28112061,0.00257363
1132.20992798,0.00245362
1134.13873535,0.00240481
1136.06754272,0.00247400
1137.99635010,0.00270949
1139.92515747,0.00279839
1141.85396484,0.00307690
1143.78277222,0.00310382
1145.71157959,0.00352633
1147.64038696,0.00363014
1149.56919434,0.00341046
1151.49800171,0.00391059
1153.42680908,0.00396661
1155.35561646,0.00417019
1157.28442383,0.00443095
1159.21323120,0.00435651
1161.14203857,0.00478346
1163.07084595,0.00510417
1164.99965332,0.00516505
1166.92846069,0.00528389
1168.85726807,0.00540872
1170.78607544,0.00566632
1172.71488281,0.00595278
1174.64369019,0.00613321
1176.57249756,0.00634342
1178.50130493,0.00653328
1180.43011230,0.00672493
1182.35891968,0.00702051
1184.28772705,0.00737133
1186.21653442,0.00776419
1188.14534180,0.00816995
1190.07414917,0.00842362
1192.00295654,0.00876835
1193.93176392,0.00928269
1195.86057129,0.00950947
1197.78937866,0.01020503
1199.71818604,0.01072363
1201.64699341,0.01081063
1203.57580078,0.01164471
1205.50460815,0.01192214
1207.43341553,0.01225505
1209.36222290,0.01290387
1211.29103027,0.01303458
1213.21983765,0.01362843
1215.14864502,0.01396365
1217.07745239,0.01410122
1219.00625977,0.01443505
1220.93506714,0.01458200
1222.86387451,0.01474668
1224.79268188,0.01493808
1226.72148926,0.01501097
1228.65029663,0.01502487
1230.57910400,0.01538251
1232.50791138,0.01552101
1234.43671875,0.01537954
1236.36552612,0.01530058
1238.29433350,0.01531911
1240.22314087,0.01529009
1242.15194824,0.01503671
1244.08075562,0.01522991
1246.00956299,0.01528764
1247.93837036,0.01498074
1249.86717773,0.01488048
1251.79598511,0.01492080
1253.72479248,0.01486326
1255.65359985,0.01464130
1257.58240723,0.01451779
1259.51121460,0.01414689
1261.44002197,0.01399235
1263.36882935,0.01389796
1265.29763672,0.01354769
1267.22644409,0.01355665
1269.15525146,0.01338083
1271.08405884,0.01304191
1273.01286621,0.01279668
1274.94167358,0.01262270
1276.87048096,0.01247177
1278.79928833,0.01221644
1280.72809570,0.01200210
1282.65690308,0.01196294
1284.58571045,0.01175327
1286.51451782,0.01125573
1288.44332520,0.01129716
1290.37213257,0.01112694
1292.30093994,0.01094453
1294.22974731,0.01123510
1296.15855469,0.01094370
1298.08736206,0.01087292
1300.01616943,0.01098055
1301.94497681,0.01105012
1303.87378418,0.01117290
1305.80259155,0.01103250
1307.73139893,0.01125885
1309.66020630,0.01156642
1311.58901367,0.01179721
1313.51782104,0.01199082
1315.44662842,0.01226353
1317.37543579,0.01253451
1319.30424316,0.01277660
1321.23305054,0.01340502
1323.16185791,0.01368973
1325.09066528,0.01411771
1327.01947266,0.01482866
1328.94828003,0.01488755
1330.87708740,0.01507167
1332.80589478,0.01556102
1334.73470215,0.01589176
1336.66350952,0.01610603
1338.59231689,0.01605919
1340.52112427,0.01629100
1342.44993164,0.01702211
1344.37873901,0.01711476
1346.30754639,0.01687019
1348.23635376,0.01694218
1350.16516113,0.01681488
1352.09396851,0.01679353
1354.02277588,0.01685457
1355.95158325,0.01666202
1357.88039062,0.01651108
1359.80919800,0.01635612
1361.73800537,0.01549944
1363.66681274,0.01535365
1365.59562012,0.01621041
1367.52442749,0.01558079
1369.45323486,0.01554154
1371.38204224,0.01589895
1373.31084961,0.01498643
1375.23965698,0.01518758
1377.16846436,0.01549265
1379.09727173,0.01561405
1381.02607910,0.01560908
1382.95488647,0.01537838
1384.88369385,0.01554401
1386.81250122,0.01492590
1388.74130859,0.01509146
1390.67011597,0.01608907
1392.59892334,0.01586739
1394.52773071,0.01510231
1396.45653809,0.01552846
1398.38534546,0.01564393
1400.31415283,0.01564713
1402.24296021,0.01675255
1404.17176758,0.01601200
1406.10057495,0.01614803
1408.02938232,0.01672326
1409.95818970,0.01602731
1411.88699707,0.01641452
1413.81580444,0.01598078
1415.74461182,0.01612226
1417.67341919,0.01466309
1419.60222656,0.01319955
1421.53103394,0.01503349
1423.45984131,0.01476131
1425.38864868,0.01430163
1427.31745605,0.01442781
1429.24626343,0.01336326
1431.17507080,0.01293602
1433.10387817,0.01329681
1435.03268555,0.01204931
1436.96149292,0.01020897
1438.89030029,0.01163059
1440.81910767,0.01178943
1442.74791504,0.01111559
1444.67672241,0.01175524
1446.60552979,0.01089648
1448.53433716,0.01102554
1450.46314453,0.01129292
1452.39195190,0.01152089
1454.32075928,0.01182365
1456.24956665,0.01005660
1458.17837402,0.01054209
1460.10718140,0.01365733
1462.03598877,0.01461320
1463.96479614,0.01445443
1465.89360352,0.01505500
1467.82241089,0.01715373
1469.75121826,0.01838689
1471.68002563,0.01648613
1473.60883301,0.01727680
1475.53764038,0.01958799
1477.46644775,0.02123013
1479.39525513,0.02340419
1481.32406250,0.02358378
1483.25286987,0.02502418
1485.18167725,0.02594825
1487.11048462,0.02556030
1489.03929199,0.02542778
1490.96809937,0.02562678
1492.89690674,0.02967362
1494.82571411,0.02903105
1496.75452148,0.02624758
1498.68332886,0.02943110
1500.61213623,0.03036957
1502.54094360,0.03244254
1504.46975098,0.03060285
1506.39855835,0.02284872
1508.32736572,0.02766518
1510.25617310,0.03209907
1512.18498047,0.03133256
1514.11378784,0.03387233
1516.04259521,0.03059661
1517.97140259,0.03206232
1519.90020996,0.03088688
1521.82901733,0.02688834
1523.75782471,0.03279927
1525.68663208,0.03214268
1527.61543945,0.03222383
1529.54424683,0.03551763
1531.47305420,0.03405222
1533.40186157,0.03142133
1535.33066895,0.03322201
1537.25947632,0.03532372
1539.18828369,0.02586386
1541.11709106,0.02729939
1543.04589844,0.03202526
1544.97470581,0.03086204
1546.90351318,0.03645473
1548.83232056,0.03391277
1550.76112793,0.03505515
1552.68993530,0.03468923
1554.61874268,0.03172532
1556.54755005,0.03389905
1558.47635742,0.02430054
1560.40516479,0.02640979
1562.33397217,0.03664944
1564.26277954,0.03473260
1566.19158691,0.03573499
1568.12039429,0.03531876
1570.04920166,0.03160018
1571.97800903,0.03623174
1573.90681641,0.03655667
1575.83562378,0.02945247
1577.76443115,0.03331493
1579.69323853,0.03718156
1581.62204590,0.03568241
1583.55085327,0.03655151
1585.47966064,0.03601452
1587.40846802,0.03651585
1589.33727539,0.03609581
1591.26608276,0.03619839
1593.19489014,0.03628316
1595.12369751,0.03577756
1597.05250488,0.03635662
1598.98131226,0.03624702
1600.91011963,0.03649139
1602.83892700,0.03566387
1604.76773437,0.03640658
1606.69654175,0.03600090
1608.62534912,0.03585933
1610.55415649,0.03601468
1612.48296387,0.03617088
1614.41177124,0.03654723
1616.34057861,0.03041302
1618.26938599,0.03293914
1620.19819336,0.03779123
1622.12700073,0.03372129
1624.05580811,0.03398524
1625.98461548,0.03562095
1627.91342285,0.03537370
1629.84223022,0.03517705
1631.77103760,0.03768620
1633.69984497,0.03451463
1635.62865234,0.02877798
1637.55745972,0.03360961
1639.48626709,0.03665135
1641.41507446,0.03602274
1643.34388184,0.03696692
1645.27268921,0.03345995
1647.20149658,0.02970347
1649.13030396,0.03643554
1651.05911133,0.03462210
1652.98791870,0.02283195
1654.91672607,0.03064136
1656.84553345,0.03797518
1658.77434082,0.03627875
1660.70314819,0.03739410
1662.63195557,0.03409329
1664.56076294,0.03588901
1666.48957031,0.03830998
1668.41837769,0.03360688
1670.34718506,0.03300284
1672.27599243,0.03710327
1674.20479980,0.03416983
1676.13360718,0.03293739
1678.06241455,0.03799360
1679.99122192,0.03665742
1681.92002930,0.03601944
1683.84883667,0.02973884
1685.77764404,0.02963519
1687.70645142,0.03977872
1689.63525879,0.03483258
1691.56406616,0.03827147
1693.49287354,0.03866390
1695.42168091,0.02874295
1697.35048828,0.03532009
1699.27929565,0.03105352
1701.20810303,0.02826936
1703.13691040,0.03789443
1705.06571777,0.03477950
1706.99452515,0.03530477
1708.92333252,0.03810605
1710.85213989,0.03659602
1712.78094727,0.03733667
1714.70975464,0.03485073
1716.63856201,0.03135276
1718.56736938,0.03078651
1720.49617676,0.03650279
1722.42498413,0.03770388
1724.35379150,0.03517792
1726.28259888,0.03822127
1728.21140625,0.03523933
1730.14021362,0.03577236
1732.06902100,0.03472541
1733.99782837,0.02685316
1735.92663574,0.03319276
1737.85544312,0.03640480
1739.78425049,0.03276563
1741.71305786,0.03530118
1743.64186523,0.03580423
1745.57067261,0.03604888
1747.49947998,0.03628878
1749.42828735,0.03475956
1751.35709473,0.03322132
1753.28590210,0.03701221
1755.21470947,0.03845707
1757.14351685,0.03504102
1759.07232422,0.03855927
1761.00113159,0.03618152
1762.92993896,0.03537540
1764.85874634,0.04020510
1766.78755371,0.03618811
1768.71636108,0.03664286
1770.64516846,0.03628917
1772.57397583,0.03299055
1774.50278320,0.03663397
1776.43159058,0.03848417
1778.36039795,0.03809538
1780.28920532,0.03775642
1782.21801270,0.03807048
1784.14682007,0.03781553
1786.07562744,0.03720610
1788.00443481,0.03917394
1789.93324219,0.03803013
1791.86204956,0.03463721
1793.79085693,0.03619529
1795.71966431,0.03874325
1797.64847168,0.03823417
1799.57727905,0.03761826
1801.50608643,0.03709930
1803.43489380,0.03821919
1805.36370117,0.03907449
1807.29250854,0.03866662
1809.22131592,0.03877565
1811.15012329,0.03792775
1813.07893066,0.03891519
1815.00773804,0.03908063
1816.93654541,0.03880976
1818.86535278,0.03903092
1820.79416016,0.03893923
1822.72296753,0.03955703
1824.65177490,0.03722687
1826.58058228,0.03844153
1828.50938965,0.03835092
1830.43819702,0.03620411
1832.36700439,0.03923303
1834.29581177,0.03901482
1836.22461914,0.03902428
1838.15342651,0.03899074
1840.08223389,0.03925515
1842.01104126,0.03905584
1843.93984863,0.03493097
1845.86865601,0.03733753
1847.79746338,0.03928760
1849.72627075,0.03858414
1851.65507812,0.03964432
1853.58388550,0.03880445
1855.51269287,0.03922249
1857.44150024,0.03894847
1859.37030762,0.03877089
1861.29911499,0.03903256
1863.22792236,0.03852595
1865.15672974,0.03896257
1867.08553711,0.03774657
1869.01434448,0.03634143
1870.94315186,0.03766092
1872.87195923,0.03901853
1874.80076660,0.03862954
1876.72957397,0.03883333
1878.65838135,0.03866290
1880.58718872,0.03860587
1882.51599609,0.03892457
1884.44480347,0.03836035
1886.37361084,0.03901298
1888.30241821,0.03788709
1890.23122559,0.03726985
1892.16003296,0.03878695
1894.08884033,0.03811409
1896.01764771,0.03810143
1897.94645508,0.03841229
1899.87526245,0.03827192
1901.80406982,0.03845549
1903.73287720,0.03814722
1905.66168457,0.03842420
1907.59049194,0.03807695
1909.51929932,0.03791124
1911.44810669,0.03801962
1913.37691406,0.03802639
1915.30572144,0.03838649
1917.23452881,0.03679325
1919.16333618,0.03697206
1921.09214355,0.03823584
1923.02095093,0.03715334
1924.94975830,0.03789076
1926.87856567,0.03820674
1928.80737305,0.03787468
1930.73618042,0.03838052
1932.66498779,0.03782251
1934.59379517,0.03815418
1936.52260254,0.03808961
1938.45140991,0.03816719
1940.38021729,0.03805924
1942.30902466,0.03693899
1944.23783203,0.03769837
1946.16663940,0.03806840
1948.09544678,0.03780591
1950.02425415,0.03807229
1951.95306152,0.03809946
1953.88186890,0.03800282
1955.81067627,0.03781028
1957.73948364,0.03803895
1959.66829102,0.03803580
1961.59709839,0.03794333
1963.52590576,0.03804899
1965.45471313,0.03783698
1967.38352051,0.03751656
1969.31232788,0.03787480
1971.24113525,0.03823879
1973.16994263,0.03803161
1975.09875000,0.03808232
1977.02755737,0.03786610
1978.95636475,0.03791413
1980.88517212,0.03789425
1982.81397949,0.03783035
1984.74278687,0.03800155
1986.67159424,0.03763287
1988.60040161,0.03794275
1990.52920898,0.03758634
1992.45801636,0.03702745
1994.38682373,0.03761038
1996.31563110,0.03766045
1998.24443848,0.03756765
2000.17324585,0.03757107
2002.10205322,0.03759284
2004.03086060,0.03756644
2005.95966797,0.03736787
2007.88847534,0.03724721
2009.81728271,0.03728765
2011.74609009,0.03737579
2013.67489746,0.03723261
2015.60370483,0.03706604
2017.53251221,0.03677030
2019.46131958,0.03690773
2021.39012695,0.03711815
2023.31893433,0.03692284
2025.24774170,0.03694014
2027.17654907,0.03685524
2029.10535645,0.03679030
2031.03416382,0.03679140
2032.96297119,0.03675743
2034.89177856,0.03663407
2036.82058594,0.03661222
2038.74939331,0.03663553
2040.67820068,0.03633002
2042.60700806,0.03629925
2044.53581543,0.03632681
2046.46462280,0.03626526
2048.39343018,0.03626615
2050.32223755,0.03623560
2052.25104492,0.03622504
2054.17985229,0.03603520
2056.10865967,0.03594728
2058.03746704,0.03592714
2059.96627441,0.03593371
2061.89508179,0.03597724
2063.82388916,0.03583395
2065.75269653,0.03574531
2067.68150391,0.03572813
2069.61031128,0.03558501
2071.53911865,0.03560246
2073.46792603,0.03574082
2075.39673340,0.03556848
2077.32554077,0.03547328
2079.25434814,0.03543067
2081.18315552,0.03539303
2083.11196289,0.03548883
2085.04077026,0.03532628
2086.96957764,0.03529423
2088.89838501,0.03528532
2090.82719238,0.03520312
2092.75599976,0.03525519
2094.68480713,0.03515682
2096.61361450,0.03509676
2098.54242187,0.03505292
2100.47122925,0.03507845
2102.40003662,0.03507026
2104.32884399,0.03498650
2106.25765137,0.03495418
2108.18645874,0.03475223
2110.11526611,0.03481660
2112.04407349,0.03488670
2113.97288086,0.03472667
2115.90168823,0.03474884
2117.83049561,0.03469626
2119.75930298,0.03468259
2121.68811035,0.03470498
2123.61691772,0.03468768
2125.54572510,0.03466614
2127.47453247,0.03457249
2129.40333984,0.03452964
2131.33214722,0.03446706
2133.26095459,0.03455743
2135.18976196,0.03451592
2137.11856934,0.03437641
2139.04737671,0.03449567
2140.97618408,0.03450006
2142.90499146,0.03446475
2144.83379883,0.03433230
2146.76260620,0.03419179
2148.69141357,0.03427234
2150.62022095,0.03433497
2152.54902832,0.03419955
2154.47783569,0.03409434
2156.40664307,0.03426666
2158.33545044,0.03415121
2160.26425781,0.03407672
2162.19306519,0.03417953
2164.12187256,0.03405930
2166.05067993,0.03421965
2167.97948730,0.03424721
2169.90829468,0.03406524
2171.83710205,0.03406850
2173.76590942,0.03400978
2175.69471680,0.03396283
2177.62352417,0.03404810
2179.55233154,0.03407598
2181.48113892,0.03398109
2183.40994629,0.03404274
2185.33875366,0.03402318
2187.26756104,0.03384467
2189.19636841,0.03386582
2191.12517578,0.03392614
2193.05398315,0.03385966
2194.98279053,0.03379157
2196.91159790,0.03377322
2198.84040527,0.03376193
2200.76921265,0.03381827
2202.69802002,0.03379344
2204.62682739,0.03369638
2206.55563477,0.03364536
2208.48444214,0.03365372
2210.41324951,0.03371520
2212.34205688,0.03366544
2214.27086426,0.03358467
2216.19967163,0.03351613
2218.12847900,0.03354459
2220.05728638,0.03347231
2221.98609375,0.03339475
2223.91490112,0.03351487
2225.84370850,0.03335430
2227.77251587,0.03331766
2229.70132324,0.03345096
2231.63013062,0.03335994
2233.55893799,0.03333715
2235.48774536,0.03334098
2237.41655273,0.03327991
2239.34536011,0.03325529
2241.27416748,0.03325815
2243.20297485,0.03323368
2245.13178223,0.03322636
2247.06058960,0.03305741
2248.98939697,0.03296999
2250.91820435,0.03305033
2252.84701172,0.03292134
2254.77581909,0.03285149
2256.70462646,0.03285716
2258.63343384,0.03295339
2260.56224121,0.03296904
2262.49104858,0.03288706
2264.41985596,0.03291342
2266.34866333,0.03276300
2268.27747070,0.03276671
2270.20627808,0.03273130
2272.13508545,0.03262756
2274.06389282,0.03283465
2275.99270020,0.03281253
2277.92150757,0.03269779
2279.85031494,0.03266983
2281.77912231,0.03257996
2283.70792969,0.03265547
2285.63673706,0.03260954
2287.56554443,0.03244861
2289.49435181,0.03245193
2291.42315918,0.03235997
2293.35196655,0.03230277
2295.28077393,0.03231809
2297.20958130,0.03222446
2299.13838867,0.03203407
2301.06719604,0.03191935
2302.99600342,0.03195428
2304.92481079,0.03170983
2306.85361816,0.03151135
2308.78242554,0.03131248
2310.71123291,0.03090778
2312.64004028,0.03080505
2314.56884766,0.03063012
2316.49765503,0.03023416
2318.42646240,0.02977736
2320.35526978,0.02940970
2322.28407715,0.02913461
2324.21288452,0.02880509
2326.14169189,0.02843761
2328.07049927,0.02803762
2329.99930664,0.02786435
2331.92811401,0.02766391
2333.85692139,0.02749124
2335.78572876,0.02739923
2337.71453613,0.02738783
2339.64334351,0.02743169
2341.57215088,0.02743587
2343.50095825,0.02784872
2345.42976562,0.02832305
2347.35857300,0.02954682
2349.28738037,0.03059227
2351.21618774,0.02952538
2353.14499512,0.02809264
2355.07380249,0.02710448
2357.00260986,0.02623083
2358.93141724,0.02574290
2360.86022461,0.02547926
2362.78903198,0.02536481
2364.71783936,0.02555184
2366.64664673,0.02597339
2368.57545410,0.02636693
2370.50426147,0.02717690
2372.43306885,0.02796363
2374.36187622,0.02855981
2376.29068359,0.02937600
2378.21949097,0.02999185
2380.14829834,0.03058231
2382.07710571,0.03104784
2384.00591309,0.03123425
2385.93472046,0.03127931
2387.86352783,0.03127016
2389.79233521,0.03134228
2391.72114258,0.03132447
2393.64994995,0.03124004
2395.57875732,0.03122265
2397.50756470,0.03129431
2399.43637207,0.03122844
2401.36517944,0.03109972
2403.29398682,0.03111732
2405.22279419,0.03117042
2407.15160156,0.03114393
2409.08040894,0.03103060
2411.00921631,0.03106376
2412.93802368,0.03114641
2414.86683105,0.03114714
2416.79563843,0.03106439
2418.72444580,0.03097666
2420.65325317,0.03106019
2422.58206055,0.03099995
2424.51086792,0.03085055
2426.43967529,0.03092887
2428.36848267,0.03087318
2430.29729004,0.03074994
2432.22609741,0.03083240
2434.15490479,0.03077906
2436.08371216,0.03070135
2438.01251953,0.03070119
2439.94132690,0.03072923
2441.87013428,0.03079551
2443.79894165,0.03069422
2445.72774902,0.03064819
2447.65655640,0.03066265
2449.58536377,0.03065028
2451.51417114,0.03058069
2453.44297852,0.03049990
2455.37178589,0.03050557
2457.30059326,0.03039442
2459.22940063,0.03039464
2461.15820801,0.03041421
2463.08701538,0.03035432
2465.01582275,0.03044656
2466.94463013,0.03045742
2468.87343750,0.03028999
2470.80224487,0.03022604
2472.73105225,0.03030730
2474.65985962,0.03028593
2476.58866699,0.03022501
2478.51747437,0.03017366
2480.44628174,0.03018730
2482.37508911,0.03012663
2484.30389648,0.03012174
2486.23270386,0.03027434
2488.16151123,0.03009553
2490.09031860,0.03005907
2492.01912598,0.03012402
2493.94793335,0.02999638
2495.87674072,0.02999039
2497.80554810,0.02994348
2499.73435547,0.02991193
2501.66316284,0.02992349
2503.59197021,0.02996375
2505.52077759,0.02991388
2507.44958496,0.02982243
2509.37839233,0.02974549
2511.30719971,0.02977220
2513.23600708,0.02991545
2515.16481445,0.02982793
2517.09362183,0.02981929
2519.02242920,0.02971492
2520.95123657,0.02961833
2522.88004395,0.02969605
2524.80885132,0.02962191
2526.73765869,0.02971424
2528.66646606,0.02970275
2530.59527344,0.02960280
2532.52408081,0.02954878
2534.45288818,0.02946873
2536.38169556,0.02952136
2538.31050293,0.02946507
2540.23931030,0.02940008
2542.16811768,0.02952892
2544.09692505,0.02955637
2546.02573242,0.02940672
2547.95453979,0.02940886
2549.88334717,0.02931473
2551.81215454,0.02927852
2553.74096191,0.02938321
2555.66976929,0.02927259
2557.59857666,0.02927094
2559.52738403,0.02923418
2561.45619141,0.02911464
2563.38499878,0.02901426
2565.31380615,0.02910668
2567.24261353,0.02911667
2569.17142090,0.02895604
2571.10022827,0.02910107
2573.02903564,0.02895577
2574.95784302,0.02897673
2576.88665039,0.02905703
2578.81545776,0.02883209
2580.74426514,0.02893890
2582.67307251,0.02894130
2584.60187988,0.02891094
2586.53068726,0.02881649
2588.45949463,0.02885082
2590.38830200,0.02889756
2592.31710937,0.02871795
2594.24591675,0.02887876
2596.17472412,0.02878739
2598.10353149,0.02862734
2600.03233887,0.02868330
2601.96114624,0.02862632
2603.88995361,0.02863287
2605.81876099,0.02866117
2607.74756836,0.02862278
2609.67637573,0.02851066
2611.60518311,0.02850903
2613.53399048,0.02840761
2615.46279785,0.02839248
2617.39160522,0.02854305
2619.32041260,0.02848471
2621.24921997,0.02842914
2623.17802734,0.02836016
2625.10683472,0.02842930
2627.03564209,0.02840371
2628.96444946,0.02816206
2630.89325684,0.02820535
2632.82206421,0.02823842
2634.75087158,0.02822649
2636.67967895,0.02828297
2638.60848633,0.02811868
2640.53729370,0.02809462
2642.46610107,0.02823019
2644.39490845,0.02806782
2646.32371582,0.02806194
2648.25252319,0.02817314
2650.18133057,0.02801172
2652.11013794,0.02799013
2654.03894531,0.02799143
2655.96775269,0.02787481
2657.89656006,0.02785230
2659.82536743,0.02791375
2661.75417480,0.02790253
2663.68298218,0.02775663
2665.61178955,0.02775914
2667.54059692,0.02776034
2669.46940430,0.02766048
2671.39821167,0.02766666
2673.32701904,0.02762681
2675.25582642,0.02762677
2677.18463379,0.02763294
2679.11344116,0.02757506
2681.04224854,0.02764585
2682.97105591,0.02760853
2684.89986328,0.02750591
2686.82867065,0.02749291
2688.75747803,0.02751281
2690.68628540,0.02753915
2692.61509277,0.02739968
2694.54390015,0.02740437
2696.47270752,0.02736340
2698.40151489,0.02714324
2700.33032227,0.02731975
2702.25912964,0.02740092
2704.18793701,0.02725143
2706.11674438,0.02729204
2708.04555176,0.02729110
2709.97435913,0.02722925
2711.90316650,0.02710877
2713.83197388,0.02707606
2715.76078125,0.02718941
2717.68958862,0.02707978
2719.61839600,0.02700155
2721.54720337,0.02707760
2723.47601074,0.02702478
2725.40481812,0.02699403
2727.33362549,0.02690259
2729.26243286,0.02678850
2731.19124023,0.02676122
2733.12004761,0.02675742
2735.04885498,0.02678405
2736.97766235,0.02672941
2738.90646973,0.02674979
2740.83527710,0.02669252
2742.76408447,0.02665678
2744.69289185,0.02671519
2746.62169922,0.02661921
2748.55050659,0.02658340
2750.47931396,0.02643775
2752.40812134,0.02641947
2754.33692871,0.02647536
2756.26573608,0.02642339
2758.19454346,0.02649001
2760.12335083,0.02635734
2762.05215820,0.02632771
2763.98096558,0.02637676
2765.90977295,0.02632121
2767.83858032,0.02626645
2769.76738770,0.02623206
2771.69619507,0.02627108
2773.62500244,0.02616835
2775.55380981,0.02621593
2777.48261719,0.02613183
2779.41142456,0.02595604
2781.34023193,0.02608022
2783.26903931,0.02604347
2785.19784668,0.02598667
2787.12665405,0.02593623
2789.05546143,0.02588269
2790.98426880,0.02592146
2792.91307617,0.02585506
2794.84188354,0.02580307
2796.77069092,0.02580335
2798.69949829,0.02569563
2800.62830566,0.02559444
2802.55711304,0.02560594
2804.48592041,0.02556989
2806.41472778,0.02566575
2808.34353516,0.02564618
2810.27234253,0.02546641
2812.20114990,0.02552121
2814.12995728,0.02546611
2816.05876465,0.02541237
2817.98757202,0.02537757
2819.91637939,0.02523838
2821.84518677,0.02525324
2823.77399414,0.02522856
2825.70280151,0.02513875
2827.63160889,0.02511585
2829.56041626,0.02516692
2831.48922363,0.02518950
2833.41803101,0.02504081
2835.34683838,0.02496999
2837.27564575,0.02500117
2839.20445312,0.02480110
2841.13326050,0.02469777
2843.06206787,0.02480499
2844.99087524,0.02477153
2846.91968262,0.02465256
2848.84848999,0.02440905
2850.77729736,0.02430764
2852.70610474,0.02433138
2854.63491211,0.02424848
2856.56371948,0.02431358
2858.49252686,0.02433756
2860.42133423,0.02427052
2862.35014160,0.02427812
2864.27894897,0.02429178
2866.20775635,0.02422253
2868.13656372,0.02425330
2870.06537109,0.02429311
2871.99417847,0.02405173
2873.92298584,0.02397263
2875.85179321,0.02401051
2877.78060059,0.02402255
2879.70940796,0.02403327
2881.63821533,0.02392877
2883.56702270,0.02399131
2885.49583008,0.02394410
2887.42463745,0.02385755
2889.35344482,0.02390636
2891.28225220,0.02384045
2893.21105957,0.02386302
2895.13986694,0.02372148
2897.06867432,0.02359413
2898.99748169,0.02377751
2900.92628906,0.02362166
2902.85509644,0.02340429
2904.78390381,0.02349032
2906.71271118,0.02341570
2908.64151855,0.02331216
2910.57032593,0.02327362
2912.49913330,0.02324557
2914.42794067,0.02327369
2916.35674805,0.02308101
2918.28555542,0.02292727
2920.21436279,0.02299695
2922.14317017,0.02296133
2924.07197754,0.02291607
2926.00078491,0.02288967
2927.92959229,0.02284950
2929.85839966,0.02286417
2931.78720703,0.02281068
2933.71601440,0.02275769
2935.64482178,0.02274770
2937.57362915,0.02278940
2939.50243652,0.02281984
2941.43124390,0.02275535
2943.36005127,0.02277363
2945.28885864,0.02277524
2947.21766602,0.02278150
2949.14647339,0.02278046
2951.07528076,0.02270439
2953.00408813,0.02275692
2954.93289551,0.02267968
2956.86170288,0.02251464
2958.79051025,0.02246729
2960.71931763,0.02247057
2962.64812500,0.02249032
2964.57693237,0.02237049
2966.50573975,0.02234039
2968.43454712,0.02242957
2970.36335449,0.02236277
2972.29216187,0.02233393
2974.22096924,0.02247609
2976.14977661,0.02247059
2978.07858398,0.02238604
2980.00739136,0.02244004
2981.93619873,0.02242509
2983.86500610,0.02239997
2985.79381348,0.02240453
2987.72262085,0.02244950
2989.65142822,0.02246235
2991.58023560,0.02241573
2993.50904297,0.02242415
2995.43785034,0.02230413
2997.36665771,0.02224650
2999.29546509,0.02226758
3001.22427246,0.02226954
3003.15307983,0.02221473
3005.08188721,0.02209507
3007.01069458,0.02215268
3008.93950195,0.02208453
3010.86830933,0.02193879
3012.79711670,0.02187442
3014.72592407,0.02184735
3016.65473145,0.02196663
3018.58353882,0.02197795
3020.51234619,0.02193860
3022.44115356,0.02191748
3024.36996094,0.02184049
3026.29876831,0.02184895
3028.22757568,0.02177465
3030.15638306,0.02157072
3032.08519043,0.02154738
3034.01399780,0.02159821
3035.94280518,0.02162925
3037.87161255,0.02158939
3039.80041992,0.02143351
3041.72922729,0.02151150
3043.65803467,0.02151155
3045.58684204,0.02136112
3047.51564941,0.02130936
3049.44445679,0.02123930
3051.37326416,0.02132638
3053.30207153,0.02134529
3055.23087891,0.02121754
3057.15968628,0.02116217
3059.08849365,0.02117002
3061.01730103,0.02115013
3062.94610840,0.02110081
3064.87491577,0.02107022
3066.80372314,0.02099998
3068.73253052,0.02096569
3070.66133789,0.02093301
3072.59014526,0.02102709
3074.51895264,0.02102279
3076.44776001,0.02085685
3078.37656738,0.02081833
3080.30537476,0.02074198
3082.23418213,0.02077485
3084.16298950,0.02074350
3086.09179687,0.02063470
3088.02060425,0.02063857
3089.94941162,0.02067665
3091.87821899,0.02074707
3093.80702637,0.02065587
3095.73583374,0.02056707
3097.66464111,0.02051534
3099.59344849,0.02046187
3101.52225586,0.02040721
3103.45106323,0.02039267
3105.37987061,0.02038932
3107.30867798,0.02024909
3109.23748535,0.02025861
3111.16629272,0.02025526
3113.09510010,0.02011988
3115.02390747,0.02006745
3116.95271484,0.02004571
3118.88152222,0.01999415
3120.81032959,0.02003970
3122.73913696,0.01999430
3124.66794434,0.01986211
3126.59675171,0.01998239
3128.52555908,0.01989968
3130.45436645,0.01979546
3132.38317383,0.01979182
3134.31198120,0.01972633
3136.24078857,0.01973158
3138.16959595,0.01959694
3140.09840332,0.01962589
3142.02721069,0.01960517
3143.95601807,0.01952506
3145.88482544,0.01950561
3147.81363281,0.01945305
3149.74244019,0.01939910
3151.67124756,0.01928026
3153.60005493,0.01941752
3155.52886230,0.01928054
3157.45766968,0.01910995
3159.38647705,0.01922842
3161.31528442,0.01918842
3163.24409180,0.01905419
3165.17289917,0.01895515
3167.10170654,0.01912874
3169.03051392,0.01908831
3170.95932129,0.01895175
3172.88812866,0.01889478
3174.81693604,0.01885433
3176.74574341,0.01884151
3178.67455078,0.01869037
3180.60335815,0.01875835
3182.53216553,0.01864198
3184.46097290,0.01854689
3186.38978027,0.01860578
3188.31858765,0.01862831
3190.24739502,0.01852963
3192.17620239,0.01834881
3194.10500977,0.01848649
3196.03381714,0.01831451
3197.96262451,0.01829616
3199.89143188,0.01829776
3201.82023926,0.01816982
3203.74904663,0.01832238
3205.67785400,0.01819997
3207.60666138,0.01819317
3209.53546875,0.01807015
3211.46427612,0.01810185
3213.39308350,0.01817962
3215.32189087,0.01798379
3217.25069824,0.01800227
3219.17950562,0.01792376
3221.10831299,0.01798180
3223.03712036,0.01793387
3224.96592773,0.01788953
3226.89473511,0.01784484
3228.82354248,0.01778230
3230.75234985,0.01798062
3232.68115723,0.01785815
3234.60996460,0.01774509
3236.53877197,0.01777331
3238.46757935,0.01772205
3240.39638672,0.01761798
3242.32519409,0.01772732
3244.25400146,0.01768421
3246.18280884,0.01749165
3248.11161621,0.01765254
3250.04042358,0.01760325
3251.96923096,0.01768496
3253.89803833,0.01761638
3255.82684570,0.01751335
3257.75565308,0.01762133
3259.68446045,0.01752304
3261.61326782,0.01761165
3263.54207520,0.01739569
3265.47088257,0.01733667
3267.39968994,0.01746230
3269.32849731,0.01743533
3271.25730469,0.01744257
3273.18611206,0.01731637
3275.11491943,0.01741402
3277.04372681,0.01735018
3278.97253418,0.01733627
3280.90134155,0.01734901
3282.83014893,0.01729366
3284.75895630,0.01731911
3286.68776367,0.01715015
3288.61657104,0.01723898
3290.54537842,0.01722232
3292.47418579,0.01714746
3294.40299316,0.01721331
3296.33180054,0.01719790
3298.26060791,0.01720142
3300.18941528,0.01709695
3302.11822266,0.01710546
3304.04703003,0.01716048
3305.97583740,0.01710965
3307.90464478,0.01701413
3309.83345215,0.01704641
3311.76225952,0.01713071
3313.69106689,0.01706139
3315.61987427,0.01703832
3317.54868164,0.01707096
3319.47748901,0.01703499
3321.40629639,0.01696014
3323.33510376,0.01692048
3325.26391113,0.01685825
3327.19271851,0.01690406
3329.12152588,0.01685303
3331.05033325,0.01673058
3332.97914062,0.01685473
3334.90794800,0.01687282
3336.83675537,0.01677689
3338.76556274,0.01673283
3340.69437012,0.01676944
3342.62317749,0.01674983
3344.55198486,0.01667034
3346.48079224,0.01656089
3348.40959961,0.01650334
3350.33840698,0.01661656
3352.26721436,0.01664983
3354.19602173,0.01666687
3356.12482910,0.01639835
3358.05363647,0.01632862
3359.98244385,0.01657826
3361.91125122,0.01639236
3363.84005859,0.01637869
3365.76886597,0.01644722
3367.69767334,0.01631325
3369.62648071,0.01630846
3371.55528809,0.01631539
3373.48409546,0.01627285
3375.41290283,0.01632994
3377.34171020,0.01635190
3379.27051758,0.01618634
3381.19932495,0.01611259
3383.12813232,0.01612368
3385.05693970,0.01611668
3386.98574707,0.01603650
3388.91455444,0.01618370
3390.84336182,0.01619559
3392.77216919,0.01591929
3394.70097656,0.01602476
3396.62978394,0.01598743
3398.55859131,0.01594331
3400.48739868,0.01596171
3402.41620605,0.01582893
3404.34501343,0.01584435
3406.27382080,0.01581805
3408.20262817,0.01578727
3410.13143555,0.01580564
3412.06024292,0.01586125
3413.98905029,0.01575098
3415.91785767,0.01574056
3417.84666504,0.01567287
3419.77547241,0.01552273
3421.70427979,0.01558525
3423.63308716,0.01556090
3425.56189453,0.01574910
3427.49070190,0.01565252
3429.41950928,0.01558064
3431.34831665,0.01559146
3433.27712402,0.01535743
3435.20593140,0.01551076
3437.13473877,0.01546694
3439.06354614,0.01547873
3440.99235352,0.01540839
3442.92116089,0.01522555
3444.84996826,0.01528440
3446.77877563,0.01512130
3448.70758301,0.01521636
3450.63639038,0.01534087
3452.56519775,0.01530461
3454.49400513,0.01526207
3456.42281250,0.01514232
3458.35161987,0.01516979
3460.28042725,0.01525424
3462.20923462,0.01515020
3464.13804199,0.01512127
3466.06684937,0.01520155
3467.99565674,0.01505203
3469.92446411,0.01512810
3471.85327148,0.01513843
3473.78207886,0.01500763
3475.71088623,0.01507101
3477.63969360,0.01511320
3479.56850098,0.01503675
3481.49730835,0.01489842
3483.42611572,0.01502986
3485.35492310,0.01495574
3487.28373047,0.01491555
3489.21253784,0.01497416
3491.14134521,0.01498334
3493.07015259,0.01504496
3494.99895996,0.01485283
3496.92776733,0.01496678
3498.85657471,0.01491151
3500.78538208,0.01482204
3502.71418945,0.01471796
3504.64299683,0.01468754
3506.57180420,0.01504631
3508.50061157,0.01474628
3510.42941895,0.01472398
3512.35822632,0.01490044
3514.28703369,0.01490513
3516.21584106,0.01500487
3518.14464844,0.01488883
3520.07345581,0.01496013
3522.00226318,0.01473688
3523.93107056,0.01460138
3525.85987793,0.01463237
3527.78868530,0.01462126
3529.71749268,0.01477421
3531.64630005,0.01480897
3533.57510742,0.01493985
3535.50391479,0.01479555
3537.43272217,0.01465842
3539.36152954,0.01487562
3541.29033691,0.01487771
3543.21914429,0.01471251
3545.14795166,0.01441201
3547.07675903,0.01425579
3549.00556641,0.01474229
3550.93437378,0.01478099
3552.86318115,0.01439947
3554.79198853,0.01465169
3556.72079590,0.01474198
3558.64960327,0.01463518
3560.57841064,0.01450300
3562.50721802,0.01462884
3564.43602539,0.01462781
3566.36483276,0.01365984
3568.29364014,0.01339670
3570.22244751,0.01432161
3572.15125488,0.01477724
3574.08006226,0.01455797
3576.00886963,0.01478227
3577.93767700,0.01470964
3579.86648437,0.01444550
3581.79529175,0.01464050
3583.72409912,0.01462055
3585.65290649,0.01430031
3587.58171387,0.01326162
3589.51052124,0.01364786
3591.43932861,0.01465509
3593.36813599,0.01419736
3595.29694336,0.01412809
3597.22575073,0.01428658
3599.15455811,0.01444488
3601.08336548,0.01433432
3603.01217285,0.01441674
3604.94098022,0.01472178
3606.86978760,0.01417667
3608.79859497,0.01336709
3610.72740234,0.01361230
3612.65620972,0.01397916
3614.58501709,0.01356628
3616.51382446,0.01440241
3618.44263184,0.01341627
3620.37143921,0.01303820
3622.30024658,0.01461221
3624.22905395,0.01418383
3626.15786133,0.01491278
3628.08666870,0.01273643
3630.01547607,0.01161758
3631.94428345,0.01447527
3633.87309082,0.01408337
3635.80189819,0.01429317
3637.73070557,0.01454252
3639.65951294,0.01442949
3641.58832031,0.01457104
3643.51712769,0.01425691
3645.44593506,0.01440378
3647.37474243,0.01305299
3649.30354980,0.01205594
3651.23235718,0.01227616
3653.16116455,0.01441571
3655.08997192,0.01413083
3657.01877930,0.01274612
3658.94758667,0.01459098
3660.87639404,0.01432815
3662.80520142,0.01441016
3664.73400879,0.01431442
3666.66281616,0.01436667
3668.59162354,0.01387564
3670.52043091,0.01148468
3672.44923828,0.01383395
3674.37804565,0.01304737
3676.30685303,0.01096703
3678.23566040,0.01368789
3680.16446777,0.01401690
3682.09327515,0.01406441
3684.02208252,0.01439093
3685.95088989,0.01413093
3687.87969727,0.01289053
3689.80850464,0.01191271
3691.73731201,0.01335735
3693.66611938,0.01371665
3695.59492676,0.01398563
3697.52373413,0.01403153
3699.45254150,0.01395886
3701.38134888,0.01350864
3703.31015625,0.01308744
3705.23896362,0.01444016
3707.16777100,0.01373520
3709.09657837,0.01335729
3711.02538574,0.01260888
3712.95419312,0.01187605
3714.88300049,0.01376992
3716.81180786,0.01358967
3718.74061523,0.01371755
3720.66942261,0.01343061
3722.59822998,0.01299115
3724.52703735,0.01339410
3726.45584473,0.01247730
3728.38465210,0.01349506
3730.31345947,0.01329747
3732.24226685,0.01233532
3734.17107422,0.01206910
3736.09988159,0.01142881
3738.02868896,0.01211494
3739.95749634,0.01315104
3741.88630371,0.01368213
3743.81511108,0.01069069
3745.74391846,0.01020308
3747.67272583,0.01307700
3749.60153320,0.01134781
3751.53034058,0.01047192
3753.45914795,0.01187317
3755.38795532,0.01287745
3757.31676270,0.01328661
3759.24557007,0.01222946
3761.17437744,0.01279000
3763.10318481,0.01349424
3765.03199219,0.01259576
3766.96079956,0.01288413
3768.88960693,0.01266870
3770.81841431,0.01216793
3772.74722168,0.01314512
3774.67602905,0.01310954
3776.60483643,0.01319357
3778.53364380,0.01290563
3780.46245117,0.01239114
3782.39125854,0.01311967
3784.32006592,0.01282125
3786.24887329,0.01270835
3788.17768066,0.01295062
3790.10648804,0.01302387
3792.03529541,0.01292781
3793.96410278,0.01308906
3795.89291016,0.01239723
3797.82171753,0.01213325
3799.75052490,0.01271735
3801.67933228,0.01024341
3803.60813965,0.01196908
3805.53694702,0.01292298
3807.46575439,0.01060233
3809.39456177,0.01281156
3811.32336914,0.01255582
3813.25217651,0.01293538
3815.18098389,0.01176529
3817.10979126,0.01040683
3819.03859863,0.01291141
3820.96740601,0.01051566
3822.89621338,0.01115733
3824.82502075,0.01280714
3826.75382812,0.01156754
3828.68263550,0.01248571
3830.61144287,0.01191026
3832.54025024,0.01160945
3834.46905762,0.01197263
3836.39786499,0.01142832
3838.32667236,0.01034946
3840.25547974,0.01106555
3842.18428711,0.01196044
3844.11309448,0.01142717
3846.04190186,0.01222195
3847.97070923,0.01201827
3849.89951660,0.01208280
3851.82832397,0.01094863
3853.75713135,0.00831734
3855.68593872,0.00992307
3857.61474609,0.01217786
3859.54355347,0.01175609
3861.47236084,0.01181118
3863.40116821,0.01146835
3865.32997559,0.01067113
3867.25878296,0.01189991
3869.18759033,0.01080777
3871.11639770,0.01012576
3873.04520508,0.01194077
3874.97401245,0.01098347
3876.90281982,0.01183518
3878.83162720,0.01206213
3880.76043457,0.01035771
3882.68924194,0.01178424
3884.61804932,0.01118580
3886.54685669,0.01027494
3888.47566406,0.01184057
3890.40447144,0.01130557
3892.33327881,0.01063411
3894.26208618,0.01156118
3896.19089355,0.01174915
3898.11970093,0.01128480
3900.04850830,0.01068520
3901.97731567,0.01049223
3903.90612305,0.01039908
3905.83493042,0.01060056
3907.76373779,0.01160600
3909.69254517,0.01153559
3911.62135254,0.01139016
3913.55015991,0.01160664
3915.47896728,0.01124451
3917.40777466,0.01103202
3919.33658203,0.01097104
3921.26538940,0.01128029
3923.19419678,0.01125478
3925.12300415,0.01104293
3927.05181152,0.01112683
3928.98061890,0.01131992
3930.90942627,0.01110375
3932.83823364,0.01071103
3934.76704102,0.01121842
3936.69584839,0.01122676
3938.62465576,0.01122744
3940.55346313,0.01139102
3942.48227051,0.01084791
3944.41107788,0.01088280
3946.33988525,0.01105158
3948.26869263,0.01091779
3950.19750000,0.01088111
3952.12630737,0.01100958
3954.05511475,0.01104216
3955.98392212,0.01094044
3957.91272949,0.01096025
3959.84153687,0.01095926
3961.77034424,0.01082687
3963.69915161,0.01078190
3965.62795898,0.01095686
3967.55676636,0.01084650
3969.48557373,0.01087013
3971.41438110,0.01084376
3973.34318848,0.01070354
3975.27199585,0.01082897
3977.20080322,0.01068833
3979.12961060,0.01071144
3981.05841797,0.01068321
3982.98722534,0.01063870
3984.91603271,0.01068868
3986.84484009,0.01065766
3988.77364746,0.01072187
3990.70245483,0.01059915
3992.63126221,0.01062506
3994.56006958,0.01055727
3996.48887695,0.01048422
3998.41768433,0.01051745
4000.34649170,0.01047114
4002.27529907,0.01051188
4004.20410645,0.01045034
4006.13291382,0.01050447
4008.06172119,0.01046039
4009.99052856,0.01041427
4011.91933594,0.01047144
4013.84814331,0.01041395
4015.77695068,0.01037827
4017.70575806,0.01035723
4019.63456543,0.01035599
4021.56337280,0.01027717
4023.49218018,0.01025300
4025.42098755,0.01021082
4027.34979492,0.01022221
4029.27860229,0.01023243
4031.20740967,0.01008535
4033.13621704,0.01005597
4035.06502441,0.01013632
4036.99383179,0.01016970
4038.92263916,0.01003971
4040.85144653,0.01010008
4042.78025391,0.01012443
4044.70906128,0.00999977
4046.63786865,0.01001104
4048.56667603,0.00995395
4050.49548340,0.01004352
4052.42429077,0.01007227
4054.35309814,0.00998133
4056.28190552,0.00993606
4058.21071289,0.00986560
4060.13952026,0.00987219
4062.06832764,0.00986670
4063.99713501,0.00981983
4065.92594238,0.00979883
4067.85474976,0.00982977
4069.78355713,0.00981562
4071.71236450,0.00977303
4073.64117187,0.00966150
4075.56997925,0.00971751
4077.49878662,0.00977679
4079.42759399,0.00962148
4081.35640137,0.00967548
4083.28520874,0.00962596
4085.21401611,0.00964986
4087.14282349,0.00967816
4089.07163086,0.00955003
4091.00043823,0.00965427
4092.92924561,0.00956993
4094.85805298,0.00952521
4096.78686035,0.00956747
4098.71566772,0.00949635
4100.64447510,0.00951422
4102.57328247,0.00947853
4104.50208984,0.00941901
4106.43089722,0.00935067
4108.35970459,0.00938497
4110.28851196,0.00943745
4112.21731934,0.00937454
4114.14612671,0.00935380
4116.07493408,0.00928454
4118.00374145,0.00929204
4119.93254883,0.00936114
4121.86135620,0.00922296
4123.79016357,0.00923015
4125.71897095,0.00923844
4127.64777832,0.00910286
4129.57658569,0.00919187
4131.50539307,0.00917009
4133.43420044,0.00912764
4135.36300781,0.00910531
4137.29181519,0.00906848
4139.22062256,0.00916222
4141.14942993,0.00911158
4143.07823730,0.00911330
4145.00704468,0.00906406
4146.93585205,0.00900904
4148.86465942,0.00905384
4150.79346680,0.00901894
4152.72227417,0.00897481
4154.65108154,0.00885909
4156.57988892,0.00890465
4158.50869629,0.00897219
4160.43750366,0.00887013
4162.36631103,0.00886396
4164.29511841,0.00892745
4166.22392578,0.00878440
4168.15273315,0.00872595
4170.08154053,0.00887005
4172.01034790,0.00877167
4173.93915527,0.00874685
4175.86796265,0.00877700
4177.79677002,0.00877338
4179.72557739,0.00870024
4181.65438477,0.00856831
4183.58319214,0.00873847
4185.51199951,0.00871903
4187.44080688,0.00859634
4189.36961426,0.00859693
4191.29842163,0.00860157
4193.22722900,0.00862823
4195.15603638,0.00854587
4197.08484375,0.00849202
4199.01365112,0.00846549
4200.94245850,0.00850717
4202.87126587,0.00849100
4204.80007324,0.00843905
4206.72888062,0.00840219
4208.65768799,0.00836119
4210.58649536,0.00841224
4212.51530273,0.00837546
4214.44411011,0.00838019
4216.37291748,0.00837896
4218.30172485,0.00833105
4220.23053223,0.00829504
4222.15933960,0.00826823
4224.08814697,0.00826166
4226.01695435,0.00820739
4227.94576172,0.00826021
4229.87456909,0.00826013
4231.80337646,0.00818923
4233.73218384,0.00819701
4235.66099121,0.00816530
4237.58979858,0.00809228
4239.51860596,0.00812085
4241.44741333,0.00810159
4243.37622070,0.00806774
4245.30502808,0.00811197
4247.23383545,0.00798119
4249.16264282,0.00801578
4251.09145020,0.00803455
4253.02025757,0.00798332
4254.94906494,0.00802650
4256.87787231,0.00791451
4258.80667969,0.00798369
4260.73548706,0.00794666
4262.66429443,0.00790744
4264.59310181,0.00797325
4266.52190918,0.00785617
4268.45071655,0.00787099
4270.37952393,0.00788973
4272.30833130,0.00785031
4274.23713867,0.00776960
4276.16594604,0.00776284
4278.09475342,0.00784693
4280.02356079,0.00779005
4281.95236816,0.00770600
4283.88117554,0.00778264
4285.80998291,0.00779871
4287.73879028,0.00771710
4289.66759766,0.00774118
4291.59640503,0.00763553
4293.52521240,0.00762324
4295.45401978,0.00756164
4297.38282715,0.00751863
4299.31163452,0.00765585
4301.24044189,0.00757556
4303.16924927,0.00759289
4305.09805664,0.00754189
4307.02686401,0.00755371
4308.95567139,0.00753723
4310.88447876,0.00740639
4312.81328613,0.00744158
4314.74209351,0.00735383
4316.67090088,0.00743620
4318.59970825,0.00739221
4320.52851562,0.00735190
4322.45732300,0.00740550
4324.38613037,0.00736724
4326.31493774,0.00746360
4328.24374512,0.00736244
4330.17255249,0.00733346
4332.10135986,0.00727519
4334.03016724,0.00725311
4335.95897461,0.00729884
4337.88778198,0.00723803
4339.81658936,0.00725333
4341.74539673,0.00717399
4343.67420410,0.00718813
4345.60301147,0.00716408
4347.53181885,0.00717530
4349.46062622,0.00712265
4351.38943359,0.00711362
4353.31824097,0.00722726
4355.24704834,0.00707022
4357.17585571,0.00710268
4359.10466309,0.00703005
4361.03347046,0.00697059
4362.96227783,0.00707016
4364.89108520,0.00699796
4366.81989258,0.00701730
4368.74869995,0.00699781
4370.67750732,0.00700455
4372.60631470,0.00695456
4374.53512207,0.00692945
4376.46392944,0.00693533
4378.39273682,0.00687550
4380.32154419,0.00689051
4382.25035156,0.00690545
4384.17915894,0.00696131
4386.10796631,0.00689757
4388.03677368,0.00683392
4389.96558105,0.00678170
4391.89438843,0.00680214
4393.82319580,0.00687528
4395.75200317,0.00675984
4397.68081055,0.00675967
4399.60961792,0.00678697
4401.53842529,0.00672500
4403.46723267,0.00669150
4405.39604004,0.00669191
4407.32484741,0.00669320
4409.25365478,0.00670987
4411.18246216,0.00666880
4413.11126953,0.00664238
4415.04007690,0.00667998
4416.96888428,0.00660917
4418.89769165,0.00665526
4420.82649902,0.00655343
4422.75530640,0.00647663
4424.68411377,0.00654211
4426.61292114,0.00645911
4428.54172852,0.00657747
4430.47053589,0.00648217
4432.39934326,0.00636436
4434.32815063,0.00647383
4436.25695801,0.00647914
4438.18576538,0.00653720
4440.11457275,0.00647308
4442.04338013,0.00640369
4443.97218750,0.00646171
4445.90099487,0.00640423
4447.82980225,0.00629853
4449.75860962,0.00642609
4451.68741699,0.00643882
4453.61622437,0.00628929
4455.54503174,0.00635184
4457.47383911,0.00633577
4459.40264648,0.00630208
4461.33145386,0.00624484
4463.26026123,0.00621406
4465.18906860,0.00625806
4467.11787598,0.00617277
4469.04668335,0.00618485
4470.97549072,0.00622572
4472.90429810,0.00620781
4474.83310547,0.00613362
4476.76191284,0.00609619
4478.69072021,0.00615228
4480.61952759,0.00612226
4482.54833496,0.00608908
4484.47714233,0.00611564
4486.40594971,0.00608418
4488.33475708,0.00604830
4490.26356445,0.00607378
4492.19237183,0.00601709
4494.12117920,0.00605619
4496.04998657,0.00608829
4497.97879395,0.00600277
4499.90760132,0.00599995
4501.83640869,0.00595602
4503.76521606,0.00596811
4505.69402344,0.00592582
4507.62283081,0.00590832
4509.55163818,0.00597971
4511.48044556,0.00592197
4513.40925293,0.00595273
4515.33806030,0.00595115
4517.26686768,0.00585641
4519.19567505,0.00584375
4521.12448242,0.00586875
4523.05328979,0.00585787
4524.98209717,0.00582908
4526.91090454,0.00577444
4528.83971191,0.00570609
4530.76851929,0.00572746
4532.69732666,0.00574623
4534.62613403,0.00567479
4536.55494141,0.00561277
4538.48374878,0.00572733
4540.41255615,0.00574006
4542.34136353,0.00564956
4544.27017090,0.00568084
4546.19897827,0.00560375
4548.12778564,0.00556328
4550.05659302,0.00559122
4551.98540039,0.00564817
4553.91420776,0.00564175
4555.84301514,0.00553915
4557.77182251,0.00555396
4559.70062988,0.00555979
4561.62943726,0.00556292
4563.55824463,0.00557035
4565.48705200,0.00559784
4567.41585937,0.00552419
4569.34466675,0.00540615
4571.27347412,0.00544312
4573.20228149,0.00546770
4575.13108887,0.00546490
4577.05989624,0.00538966
4578.98870361,0.00536130
4580.91751099,0.00538162
4582.84631836,0.00540617
4584.77512573,0.00537329
4586.70393311,0.00532018
4588.63274048,0.00541819
4590.56154785,0.00533323
4592.49035522,0.00530052
4594.41916260,0.00534019
4596.34796997,0.00526350
4598.27677734,0.00533335
4600.20558472,0.00533330
4602.13439209,0.00521193
4604.06319946,0.00517848
4605.99200684,0.00523472
4607.92081421,0.00523864
4609.84962158,0.00529269
4611.77842895,0.00522646
4613.70723633,0.00511310
4615.63604370,0.00520389
4617.56485107,0.00515122
4619.49365845,0.00514454
4621.42246582,0.00508487
4623.35127319,0.00502797
4625.28008057,0.00510348
4627.20888794,0.00505721
4629.13769531,0.00510935
4631.06650269,0.00503370
4632.99531006,0.00504053
4634.92411743,0.00510734
4636.85292480,0.00496088
4638.78173218,0.00499404
4640.71053955,0.00499591
4642.63934692,0.00497101
4644.56815430,0.00497994
4646.49696167,0.00491684
4648.42576904,0.00496307
4650.35457642,0.00497593
4652.28338379,0.00493866
4654.21219116,0.00498461
4656.14099853,0.00493990
4658.06980591,0.00483146
4659.99861328,0.00483955
4661.92742065,0.00485234
4663.85622803,0.00485492
4665.78503540,0.00488571
4667.71384277,0.00488924
4669.64265015,0.00479235
4671.57145752,0.00474534
4673.50026489,0.00482585
4675.42907227,0.00478645
4677.35787964,0.00479648
4679.28668701,0.00481512
4681.21549438,0.00474759
4683.14430176,0.00481295
4685.07310913,0.00476319
4687.00191650,0.00463668
4688.93072388,0.00466641
4690.85953125,0.00466245
4692.78833862,0.00468714
4694.71714600,0.00470800
4696.64595337,0.00461299
4698.57476074,0.00470415
4700.50356812,0.00469179
4702.43237549,0.00458094
4704.36118286,0.00468236
4706.28999023,0.00462336
4708.21879761,0.00463665
4710.14760498,0.00465611
4712.07641235,0.00452320
4714.00521973,0.00454840
4715.93402710,0.00457218
4717.86283447,0.00456813
4719.79164185,0.00449799
4721.72044922,0.00445732
4723.64925659,0.00444833
4725.57806396,0.00445288
4727.50687134,0.00452320
4729.43567871,0.00448739
4731.36448608,0.00445285
4733.29329346,0.00437224
4735.22210083,0.00443688
4737.15090820,0.00454050
4739.07971558,0.00443181
4741.00852295,0.00442496
4742.93733032,0.00439408
4744.86613770,0.00436007
4746.79494507,0.00435083
4748.72375244,0.00430745
4750.65255981,0.00432348
4752.58136719,0.00433767
4754.51017456,0.00434562
4756.43898193,0.00429974
4758.36778931,0.00430214
4760.29659668,0.00427330
4762.22540405,0.00425179
4764.15421143,0.00431399
4766.08301880,0.00430591
4768.01182617,0.00430975
4769.94063354,0.00423788
4771.86944092,0.00425824
4773.79824829,0.00430531
4775.72705566,0.00416247
4777.65586304,0.00415951
4779.58467041,0.00413448
4781.51347778,0.00408324
4783.44228516,0.00422040
4785.37109253,0.00424019
4787.29989990,0.00410518
4789.22870728,0.00409449
4791.15751465,0.00418545
4793.08632202,0.00415071
4795.01512939,0.00408060
4796.94393677,0.00409692
4798.87274414,0.00412837
4800.80155151,0.00409252
4802.73035889,0.00403249
4804.65916626,0.00408682
4806.58797363,0.00407188
4808.51678101,0.00399840
4810.44558838,0.00403697
4812.37439575,0.00402934
4814.30320312,0.00400651
4816.23201050,0.00400549
4818.16081787,0.00395445
4820.08962524,0.00394896
4822.01843262,0.00398856
4823.94723999,0.00398025
4825.87604736,0.00398347
4827.80485474,0.00396890
4829.73366211,0.00387223
4831.66246948,0.00388520
4833.59127686,0.00393306
4835.52008423,0.00392746
4837.44889160,0.00396348
4839.37769897,0.00386297
4841.30650635,0.00384470
4843.23531372,0.00392431
4845.16412109,0.00375980
4847.09292847,0.00379045
4849.02173584,0.00390569
4850.95054321,0.00378231
4852.87935059,0.00382927
4854.80815796,0.00386052
4856.73696533,0.00375745
4858.66577270,0.00369718
4860.59458008,0.00371795
4862.52338745,0.00378958
4864.45219482,0.00371977
4866.38100220,0.00372493
4868.30980957,0.00376327
4870.23861694,0.00368755
4872.16742432,0.00364962
4874.09623169,0.00366397
4876.02503906,0.00368683
4877.95384644,0.00363773
4879.88265381,0.00366379
4881.81146118,0.00367668
4883.74026855,0.00368401
4885.66907593,0.00372378
4887.59788330,0.00363761
4889.52669067,0.00363656
4891.45549805,0.00364901
4893.38430542,0.00362062
4895.31311279,0.00357651
4897.24192017,0.00354283
4899.17072754,0.00355656
4901.09953491,0.00357197
4903.02834228,0.00356175
4904.95714966,0.00345059
4906.88595703,0.00352170
4908.81476440,0.00353426
4910.74357178,0.00349469
4912.67237915,0.00357187
4914.60118652,0.00346311
4916.52999390,0.00346904
4918.45880127,0.00346207
4920.38760864,0.00346029
4922.31641602,0.00351183
4924.24522339,0.00343242
4926.17403076,0.00342776
4928.10283813,0.00340405
4930.03164551,0.00344094
4931.96045288,0.00341220
4933.88926025,0.00332544
4935.81806763,0.00339402
4937.74687500,0.00344837
4939.67568237,0.00338809
4941.60448975,0.00333736
4943.53329712,0.00335041
4945.46210449,0.00330886
4947.39091187,0.00338834
4949.31971924,0.00335440
4951.24852661,0.00328645
4953.17733398,0.00332136
4955.10614136,0.00323466
4957.03494873,0.00329348
4958.96375610,0.00327319
4960.89256348,0.00327774
4962.82137085,0.00327874
4964.75017822,0.00321043
4966.67898560,0.00328328
4968.60779297,0.00323877
4970.53660034,0.00322654
4972.46540771,0.00315418
4974.39421509,0.00326275
4976.32302246,0.00331797
4978.25182983,0.00310534
4980.18063721,0.00319090
4982.10944458,0.00315593
4984.03825195,0.00315575
4985.96705933,0.00315585
4987.89586670,0.00305395
4989.82467407,0.00317049
4991.75348145,0.00313754
4993.68228882,0.00316321
4995.61109619,0.00314041
4997.53990356,0.00303259
4999.46871094,0.00314260
5001.39751831,0.00310106
5003.32632568,0.00301737
5005.25513306,0.00308411
5007.18394043,0.00304456
5009.11274780,0.00301383
5011.04155518,0.00307501
5012.97036255,0.00301215
5014.89916992,0.00299266
5016.82797729,0.00304849
5018.75678467,0.00302543
5020.68559204,0.00298285
5022.61439941,0.00296297
5024.54320679,0.00301082
5026.47201416,0.00301330
5028.40082153,0.00296922
5030.32962891,0.00297988
5032.25843628,0.00300417
5034.18724365,0.00294253
5036.11605103,0.00286621
5038.04485840,0.00290664
5039.97366577,0.00296506
5041.90247314,0.00297346
5043.83128052,0.00293269
5045.76008789,0.00292992
5047.68889526,0.00295457
5049.61770264,0.00297008
5051.54651001,0.00293143
5053.47531738,0.00289661
5055.40412476,0.00293499
5057.33293213,0.00283287
5059.26173950,0.00284502
5061.19054687,0.00289611
5063.11935425,0.00277203
5065.04816162,0.00278232
5066.97696899,0.00284698
5068.90577637,0.00288645
5070.83458374,0.00281920
5072.76339111,0.00278199
5074.69219849,0.00282084
5076.62100586,0.00274922
5078.54981323,0.00276958
5080.47862061,0.00278890
5082.40742798,0.00277355
5084.33623535,0.00276922
5086.26504272,0.00276592
5088.19385010,0.00279116
5090.12265747,0.00269473
5092.05146484,0.00266829
5093.98027222,0.00271009
5095.90907959,0.00268287
5097.83788696,0.00271347
5099.76669434,0.00273988
5101.69550171,0.00272362
5103.62430908,0.00265357
5105.55311645,0.00261941
5107.48192383,0.00268933
5109.41073120,0.00265605
5111.33953857,0.00262305
5113.26834595,0.00267281
5115.19715332,0.00262384
5117.12596069,0.00260495
5119.05476807,0.00265872
5120.98357544,0.00266845
5122.91238281,0.00266285
5124.84119019,0.00265056
5126.76999756,0.00261377
5128.69880493,0.00259260
5130.62761230,0.00256827
5132.55641968,0.00249911
5134.48522705,0.00252356
5136.41403442,0.00255838
5138.34284180,0.00252319
5140.27164917,0.00256696
5142.20045654,0.00256273
5144.12926392,0.00251317
5146.05807129,0.00252373
5147.98687866,0.00250917
5149.91568603,0.00251010
5151.84449341,0.00251441
5153.77330078,0.00251018
5155.70210815,0.00254765
5157.63091553,0.00246331
5159.55972290,0.00243221
5161.48853027,0.00256006
5163.41733765,0.00247339
5165.34614502,0.00243029
5167.27495239,0.00250895
5169.20375977,0.00244645
5171.13256714,0.00244950
5173.06137451,0.00239694
5174.99018188,0.00233798
5176.91898926,0.00245465
5178.84779663,0.00248085
5180.77660400,0.00241334
5182.70541138,0.00241183
5184.63421875,0.00238429
5186.56302612,0.00230808
5188.49183350,0.00231373
5190.42064087,0.00234524
5192.34944824,0.00236554
5194.27825562,0.00235345
5196.20706299,0.00231481
5198.13587036,0.00236636
5200.06467773,0.00237804
5201.99348511,0.00233277
5203.92229248,0.00233408
5205.85109985,0.00226045
5207.77990723,0.00221292
5209.70871460,0.00231943
5211.63752197,0.00231800
5213.56632935,0.00224980
5215.49513672,0.00226110
5217.42394409,0.00227188
5219.35275146,0.00230055
5221.28155884,0.00223893
5223.21036621,0.00222940
5225.13917358,0.00225537
5227.06798096,0.00218903
5228.99678833,0.00221209
5230.92559570,0.00225297
5232.85440308,0.00228987
5234.78321045,0.00222093
5236.71201782,0.00218771
5238.64082520,0.00220394
5240.56963257,0.00214549
5242.49843994,0.00222432
5244.42724731,0.00210559
5246.35605469,0.00203731
5248.28486206,0.00211211
5250.21366943,0.00203711
5252.14247681,0.00211068
5254.07128418,0.00207407
5256.00009155,0.00209554
5257.92889893,0.00219601
5259.85770630,0.00215273
5261.78651367,0.00220766
5263.71532104,0.00211803
5265.64412842,0.00206528
5267.57293579,0.00208626
5269.50174316,0.00203874
5271.43055054,0.00209527
5273.35935791,0.00207829
5275.28816528,0.00204255
5277.21697266,0.00206994
5279.14578003,0.00211415
5281.07458740,0.00213456
5283.00339478,0.00210406
5284.93220215,0.00204731
5286.86100952,0.00204535
5288.78981689,0.00211404
5290.71862427,0.00202494
5292.64743164,0.00197015
5294.57623901,0.00203980
5296.50504639,0.00206932
5298.43385376,0.00206300
5300.36266113,0.00196911
5302.29146851,0.00195497
5304.22027588,0.00200448
5306.14908325,0.00200650
5308.07789062,0.00199371
5310.00669800,0.00200839
5311.93550537,0.00200890
5313.86431274,0.00196207
5315.79312012,0.00198061
5317.72192749,0.00196320
5319.65073486,0.00199667
5321.57954224,0.00197407
5323.50834961,0.00188956
5325.43715698,0.00195366
5327.36596436,0.00192521
5329.29477173,0.00197151
5331.22357910,0.00198992
5333.15238647,0.00188430
5335.08119385,0.00191684
5337.01000122,0.00191587
5338.93880859,0.00185453
5340.86761597,0.00185760
5342.79642334,0.00189628
5344.72523071,0.00178234
5346.65403809,0.00180819
5348.58284546,0.00189342
5350.51165283,0.00183474
5352.44046020,0.00191408
5354.36926758,0.00180767
5356.29807495,0.00178592
5358.22688232,0.00181610
5360.15568970,0.00175795
5362.08449707,0.00189510
5364.01330444,0.00181294
5365.94211182,0.00181621
5367.87091919,0.00184712
5369.79972656,0.00174352
5371.72853394,0.00181962
5373.65734131,0.00184282
5375.58614868,0.00180291
5377.51495605,0.00171103
5379.44376343,0.00173859
5381.37257080,0.00182661
5383.30137817,0.00178652
5385.23018555,0.00174222
5387.15899292,0.00173177
5389.08780029,0.00175223
5391.01660767,0.00173744
5392.94541504,0.00178524
5394.87422241,0.00175836
5396.80302978,0.00172201
5398.73183716,0.00175115
5400.66064453,0.00171263
5402.58945190,0.00174148
5404.51825928,0.00171186
5406.44706665,0.00169014
5408.37587402,0.00168830
5410.30468140,0.00170919
5412.23348877,0.00172432
5414.16229614,0.00163518
5416.09110352,0.00167689
5418.01991089,0.00164751
5419.94871826,0.00167846
5421.87752563,0.00177261
5423.80633301,0.00162713
5425.73514038,0.00171479
5427.66394775,0.00181430
5429.59275513,0.00163669
5431.52156250,0.00168779
5433.45036987,0.00172656
5435.37917725,0.00160328
5437.30798462,0.00165601
5439.23679199,0.00163407
5441.16559936,0.00158316
5443.09440674,0.00167974
5445.02321411,0.00168201
5446.95202148,0.00158942
5448.88082886,0.00156931
5450.80963623,0.00161426
5452.73844360,0.00158490
5454.66725098,0.00157638
5456.59605835,0.00160316
5458.52486572,0.00167412
5460.45367310,0.00167031
5462.38248047,0.00151508
5464.31128784,0.00155547
5466.24009521,0.00157595
5468.16890259,0.00150693
5470.09770996,0.00151545
5472.02651733,0.00157652
5473.95532471,0.00158724
5475.88413208,0.00147000
5477.81293945,0.00152717
5479.74174683,0.00153548
5481.67055420,0.00153440
5483.59936157,0.00157416
5485.52816895,0.00151039
5487.45697632,0.00155056
5489.38578369,0.00152036
5491.31459106,0.00156348
5493.24339844,0.00149263
5495.17220581,0.00142040
5497.10101318,0.00153723
5499.02982056,0.00146988
5500.95862793,0.00150492
5502.88743530,0.00149530
5504.81624268,0.00150301
5506.74505005,0.00151752
5508.67385742,0.00143278
5510.60266479,0.00149586
5512.53147217,0.00142221
5514.46027954,0.00146799
5516.38908691,0.00144488
5518.31789429,0.00133924
5520.24670166,0.00147798
5522.17550903,0.00145603
5524.10431641,0.00145127
5526.03312378,0.00144112
5527.96193115,0.00143710
5529.89073853,0.00147107
5531.81954590,0.00141942
5533.74835327,0.00148721
5535.67716064,0.00137578
5537.60596802,0.00129175
5539.53477539,0.00144689
5541.46358276,0.00149675
5543.39239014,0.00143929
5545.32119751,0.00135710
5547.25000488,0.00143098
5549.17881226,0.00143345
5551.10761963,0.00132808
5553.03642700,0.00139323
5554.96523437,0.00136192
5556.89404175,0.00132631
5558.82284912,0.00135760
5560.75165649,0.00132485
5562.68046387,0.00136347
5564.60927124,0.00134991
5566.53807861,0.00130920
5568.46688599,0.00133540
5570.39569336,0.00132535
5572.32450073,0.00130424
5574.25330811,0.00129539
5576.18211548,0.00128429
5578.11092285,0.00130757
5580.03973022,0.00131464
5581.96853760,0.00130736
5583.89734497,0.00134867
5585.82615234,0.00126984
5587.75495972,0.00124845
5589.68376709,0.00134991
5591.61257446,0.00132649
5593.54138184,0.00132639
5595.47018921,0.00130344
5597.39899658,0.00131404
5599.32780395,0.00129974
5601.25661133,0.00121211
5603.18541870,0.00128871
5605.11422607,0.00124930
5607.04303345,0.00119933
5608.97184082,0.00128043
5610.90064819,0.00126780
5612.82945557,0.00123796
5614.75826294,0.00127345
5616.68707031,0.00130465
5618.61587769,0.00128593
5620.54468506,0.00128859
5622.47349243,0.00119930
5624.40229980,0.00118999
5626.33110718,0.00127535
5628.25991455,0.00126049
5630.18872192,0.00126685
5632.11752930,0.00115833
5634.04633667,0.00112675
5635.97514404,0.00119059
5637.90395142,0.00120888
5639.83275879,0.00125541
5641.76156616,0.00120378
5643.69037353,0.00120210
5645.61918091,0.00119925
5647.54798828,0.00120986
5649.47679565,0.00124964
5651.40560303,0.00118085
5653.33441040,0.00117378
5655.26321777,0.00120316
5657.19202515,0.00120432
5659.12083252,0.00115017
5661.04963989,0.00112578
5662.97844727,0.00119197
5664.90725464,0.00119165
5666.83606201,0.00115794
5668.76486938,0.00115572
5670.69367676,0.00111129
5672.62248413,0.00110661
5674.55129150,0.00120135
5676.48009888,0.00118114
5678.40890625,0.00110847
5680.33771362,0.00108254
5682.26652100,0.00107559
5684.19532837,0.00111562
5686.12413574,0.00113163
5688.05294311,0.00116017
5689.98175049,0.00112156
5691.91055786,0.00104237
5693.83936523,0.00102471
5695.76817261,0.00105040
5697.69697998,0.00110486
5699.62578735,0.00110715
5701.55459473,0.00110658
5703.48340210,0.00109490
5705.41220947,0.00105293
5707.34101685,0.00103180
5709.26982422,0.00105464
5711.19863159,0.00102392
5713.12743896,0.00099411
5715.05624634,0.00105186
5716.98505371,0.00104550
5718.91386108,0.00104172
5720.84266846,0.00099175
5722.77147583,0.00101180
5724.70028320,0.00109234
5726.62909058,0.00107061
5728.55789795,0.00107020
5730.48670532,0.00097075
5732.41551270,0.00099487
5734.34432007,0.00104933
5736.27312744,0.00101773
5738.20193481,0.00104598
5740.13074219,0.00097354
5742.05954956,0.00100670
5743.98835693,0.00102101
5745.91716431,0.00104145
5747.84597168,0.00106460
5749.77477905,0.00094003
5751.70358643,0.00095832
5753.63239380,0.00102180
5755.56120117,0.00108160
5757.49000854,0.00100271
5759.41881592,0.00090161
5761.34762329,0.00096743
5763.27643066,0.00094807
5765.20523804,0.00094609
5767.13404541,0.00095506
5769.06285278,0.00097690
5770.99166016,0.00099341
5772.92046753,0.00094137
5774.84927490,0.00094369
5776.77808228,0.00093490
5778.70688965,0.00093548
5780.63569702,0.00096544
5782.56450439,0.00096013
5784.49331177,0.00092595
5786.42211914,0.00094625
5788.35092651,0.00095897
5790.27973389,0.00089282
5792.20854126,0.00091974
5794.13734863,0.00094716
5796.06615601,0.00090074
5797.99496338,0.00090029
5799.92377075,0.00088300
5801.85257812,0.00089670
5803.78138550,0.00090442
5805.71019287,0.00092416
5807.63900024,0.00103030
5809.56780762,0.00091325
5811.49661499,0.00084839
5813.42542236,0.00095233
5815.35422974,0.00090295
5817.28303711,0.00093765
5819.21184448,0.00090344
5821.14065186,0.00086786
5823.06945923,0.00092068
5824.99826660,0.00091769
5826.92707397,0.00097928
5828.85588135,0.00087453
5830.78468872,0.00084392
5832.71349609,0.00089103
5834.64230347,0.00086403
5836.57111084,0.00085257
5838.49991821,0.00079280
5840.42872559,0.00090061
5842.35753296,0.00085683
5844.28634033,0.00083024
5846.21514770,0.00091675
5848.14395508,0.00082130
5850.07276245,0.00093051
5852.00156982,0.00092456
5853.93037720,0.00083939
5855.85918457,0.00089505
5857.78799194,0.00080526
5859.71679932,0.00082648
5861.64560669,0.00087760
5863.57441406,0.00082368
5865.50322144,0.00083598
5867.43202881,0.00083505
5869.36083618,0.00081654
5871.28964355,0.00083085
5873.21845093,0.00076998
5875.14725830,0.00076837
5877.07606567,0.00087209
5879.00487305,0.00081273
5880.93368042,0.00075063
5882.86248779,0.00081806
5884.79129517,0.00083302
5886.72010254,0.00078861
5888.64890991,0.00076144
5890.57771728,0.00074855
5892.50652466,0.00075620
5894.43533203,0.00078191
5896.36413940,0.00076256
5898.29294678,0.00079283
5900.22175415,0.00082151
5902.15056152,0.00078059
5904.07936890,0.00077993
5906.00817627,0.00076272
5907.93698364,0.00077116
5909.86579102,0.00078564
5911.79459839,0.00073774
5913.72340576,0.00071885
5915.65221313,0.00072327
5917.58102051,0.00075021
5919.50982788,0.00078673
5921.43863525,0.00077697
5923.36744263,0.00071967
5925.29625000,0.00068883
5927.22505737,0.00069176
5929.15386475,0.00071309
5931.08267212,0.00078524
5933.01147949,0.00074874
5934.94028686,0.00069577
5936.86909424,0.00073616
5938.79790161,0.00068624
5940.72670898,0.00068219
5942.65551636,0.00073215
5944.58432373,0.00073009
5946.51313110,0.00070421
5948.44193848,0.00068203
5950.37074585,0.00071903
5952.29955322,0.00069262
5954.22836060,0.00068221
5956.15716797,0.00068093
5958.08597534,0.00067466
5960.01478271,0.00072799
5961.94359009,0.00068609
5963.87239746,0.00070897
5965.80120483,0.00070963
5967.73001221,0.00062810
5969.65881958,0.00069971
5971.58762695,0.00074663
5973.51643433,0.00062524
5975.44524170,0.00058378
5977.37404907,0.00071623
5979.30285645,0.00068884
5981.23166382,0.00064928
5983.16047119,0.00071565
5985.08927856,0.00067768
5987.01808594,0.00064256
5988.94689331,0.00064380
5990.87570068,0.00066083
5992.80450806,0.00062006
5994.73331543,0.00068704
5996.66212280,0.00070763
5998.59093018,0.00062228
6000.51973755,0.00071063
