399.26312622,0.00054134
401.19193359,0.00044009
403.12074097,0.00013745
405.04954834,0.00017744
406.97835571,0.00014646
408.90716309,0.00067067
410.83597046,0.00058695
412.76477783,0.00072630
414.69358521,0.00074827
416.62239258,0.00052717
418.55119995,0.00068505
420.48000732,0.00044016
422.40881470,0.00062790
424.33762207,0.00054493
426.26642944,0.00051067
428.19523682,0.00064585
430.12404419,0.00051433
432.05285156,0.00050441
433.98165894,0.00025875
435.91046631,0.00081138
437.83927368,0.00096194
439.76808105,0.00061265
441.69688843,0.00046496
443.62569580,0.00032332
445.55450317,0.00095140
447.48331055,0.00069989
449.41211792,0.00058562
451.34092529,0.00110150
453.26973267,0.00059528
455.19854004,0.00028053
457.12734741,0.00046800
459.05615479,0.00036239
460.98496216,0.00029305
462.91376953,0.00050194
464.84257690,0.00023261
466.77138428,0.00017214
468.70019165,0.00018408
470.62899902,0.00001710
472.55780640,0.00041737
474.48661377,0.00041715
476.41542114,0.00002638
478.34422852,-0.00006471
480.27303589,0.00048994
482.20184326,0.00058228
484.13065063,0.00012778
486.05945801,0.00013999
487.98826538,0.00017516
489.91707275,-0.00002797
491.84588013,-0.00006958
493.77468750,0.00036789
495.70349487,0.00030809
497.63230225,-0.00004912
499.56110962,0.00046878
501.48991699,0.00054954
503.41872437,0.00002349
505.34753174,0.00019895
507.27633911,0.00029427
509.20514648,0.00027047
511.13395386,0.00050831
513.06276123,0.00037183
514.99156860,-0.00008908
516.92037598,0.00014120
518.84918335,0.00066543
520.77799072,0.00034684
522.70679810,0.00015195
524.63560547,0.00038287
526.56441284,0.00024532
528.49322021,-0.00007881
530.42202759,0.00011875
532.35083496,0.00037935
534.27964233,-0.00002600
536.20844971,-0.00010163
538.13725708,0.00009656
540.06606445,0.00014547
541.99487183,0.00002718
543.92367920,-0.00015040
545.85248657,0.00024016
547.78129395,0.00043135
549.71010132,0.00046778
551.63890869,0.00043410
553.56771606,-0.00000046
555.49652344,0.00002877
557.42533081,0.00010386
559.35413818,-0.00004904
561.28294556,-0.00022862
563.21175293,-0.00016300
565.14056030,0.00013522
567.06936768,-0.00006894
568.99817505,0.00033303
570.92698242,0.00048247
572.85578979,0.00008423
574.78459717,0.00044427
576.71340454,0.00051743
578.64221191,0.00036589
580.57101929,0.00013272
582.49982666,0.00001484
584.42863403,0.00013677
586.35744141,0.00036477
588.28624878,0.00027930
590.21505615,-0.00023594
592.14386353,-0.00010828
594.07267090,0.00012272
596.00147827,0.00023241
597.93028564,0.00022234
599.85909302,0.00014315
601.78790039,0.00035910
603.71670776,0.00031116
605.64551514,0.00016558
607.57432251,0.00035493
609.50312988,0.00036262
611.43193726,0.00020447
613.36074463,0.00028389
615.28955200,-0.00007783
617.21835938,0.00019190
619.14716675,0.00029685
621.07597412,-0.00018303
623.00478149,-0.00000888
624.93358887,-0.00000515
626.86239624,0.00040920
628.79120361,0.00007171
630.72001099,0.00022650
632.64881836,0.00020520
634.57762573,0.00018432
636.50643311,0.00055848
638.43524048,0.00067133
640.36404785,0.00033063
642.29285522,0.00032993
644.22166260,0.00067676
646.15046997,0.00047337
648.07927734,0.00080911
650.00808472,0.00104008
651.93689209,0.00081053
653.86569946,0.00088531
655.79450684,0.00091575
657.72331421,0.00109677
659.65212158,0.00108606
661.58092896,0.00087051
663.50973633,0.00077711
665.43854370,0.00119590
667.36735107,0.00115823
669.29615845,0.00083622
671.22496582,0.00127200
673.15377319,0.00122823
675.08258057,0.00101027
677.01138794,0.00099075
678.94019531,0.00116998
680.86900269,0.00141260
682.79781006,0.00129439
684.72661743,0.00119421
686.65542480,0.00132424
688.58423218,0.00137855
690.51303955,0.00115212
692.44184692,0.00164344
694.37065430,0.00157816
696.29946167,0.00135967
698.22826904,0.00228053
700.15707642,0.00229810
702.08588379,0.00209909
704.01469116,0.00195088
705.94349854,0.00165123
707.87230591,0.00171141
709.80111328,0.00117660
711.72992065,0.00064135
713.65872803,0.00044664
715.58753540,0.00014269
717.51634277,0.00004773
719.44515015,0.00016727
721.37395752,0.00030776
723.30276489,0.00028728
725.23157227,-0.00017195
727.16037964,-0.00006502
729.08918701,0.00015359
731.01799438,0.00000559
732.94680176,0.00013300
734.87560913,-0.00010926
736.80441650,-0.00001782
738.73322388,0.00012507
740.66203125,0.00020556
742.59083862,0.00036712
744.51964600,0.00043341
746.44845337,0.00044333
748.37726074,0.00014496
750.30606812,0.00034122
752.23487549,0.00017813
754.16368286,-0.00011949
756.09249023,0.00014892
758.02129761,0.00032221
759.95010498,0.00035334
761.87891235,0.00018069
763.80771973,-0.00001625
765.73652710,0.00005730
767.66533447,0.00013706
769.59414185,0.00027941
771.52294922,0.00014939
773.45175659,0.00014173
775.38056396,0.00045385
777.30937134,0.00011720
779.23817871,0.00009233
781.16698608,0.00029503
783.09579346,0.00012823
785.02460083,-0.00001933
786.95340820,0.00016418
788.88221558,0.00026586
790.81102295,0.00011124
792.73983032,0.00034135
794.66863770,0.00030085
796.59744507,0.00009922
798.52625244,0.00009795
800.45505981,0.00031491
802.38386719,0.00025352
804.31267456,-0.00007595
806.24148193,0.00011224
808.17028931,0.00024644
810.09909668,0.00019102
812.02790405,0.00042725
813.95671143,0.00045663
815.88551880,0.00011967
817.81432617,0.00030250
819.74313354,0.00034285
821.67194092,0.00012475
823.60074829,0.00021127
825.52955566,0.00006279
827.45836304,0.00023091
829.38717041,0.00012170
831.31597778,0.00009466
833.24478516,0.00060263
835.17359253,0.00047377
837.10239990,0.00056898
839.03120728,0.00063648
840.96001465,0.00054962
842.88882202,0.00056317
844.81762939,0.00036242
846.74643677,0.00025661
848.67524414,0.00024262
850.60405151,0.00047370
852.53285889,0.00024277
854.46166626,0.00035053
856.39047363,0.00056305
858.31928101,0.00002172
860.24808838,0.00022774
862.17689575,0.00050065
864.10570313,0.00032326
866.03451050,0.00018697
867.96331787,0.00025788
869.89212524,0.00042122
871.82093262,0.00049655
873.74973999,0.00050099
875.67854736,0.00015040
877.60735474,0.00036688
879.53616211,0.00038456
881.46496948,0.00005983
883.39377686,0.00039166
885.32258423,0.00014363
887.25139160,0.00017539
889.18019897,0.00049745
891.10900635,0.00040346
893.03781372,0.00052242
894.96662109,0.00017149
896.89542847,0.00023470
898.82423584,0.00054082
900.75304321,0.00033877
902.68185059,0.00050264
904.61065796,0.00056242
906.53946533,0.00045743
908.46827271,0.00030028
910.39708008,0.00029418
912.32588745,0.00054555
914.25469482,0.00047800
916.18350220,0.00028721
918.11230957,0.00025373
920.04111694,0.00054665
921.96992432,0.00078768
923.89873169,0.00064957
925.82753906,0.00069101
927.75634644,0.00080374
929.68515381,0.00060760
931.61396118,0.00062945
933.54276855,0.00077378
935.47157593,0.00072639
937.40038330,0.00069339
939.32919067,0.00075294
941.25799805,0.00094663
943.18680542,0.00082027
945.11561279,0.00087404
947.04442017,0.00112187
948.97322754,0.00087376
950.90203491,0.00082212
952.83084229,0.00076366
954.75964966,0.00062202
956.68845703,0.00068656
958.61726440,0.00075130
960.54607178,0.00077105
962.47487915,0.00076312
964.40368652,0.00089635
966.33249390,0.00081384
968.26130127,0.00089547
970.19010864,0.00100712
972.11891602,0.00081689
974.04772339,0.00098000
975.97653076,0.00108008
977.90533813,0.00125597
979.83414551,0.00150020
981.76295288,0.00144612
983.69176025,0.00165305
985.62056763,0.00193012
987.54937500,0.00213393
989.47818237,0.00225666
991.40698975,0.00228786
993.33579712,0.00250196
995.26460449,0.00273186
997.19341187,0.00298672
999.12221924,0.00324411
1001.05102661,0.00339631
1002.97983398,0.00355574
1004.90864136,0.00375920
1006.83744873,0.00407243
1008.76625610,0.00426146
1010.69506348,0.00440438
1012.62387085,0.00492784
1014.55267822,0.00531337
1016.48148560,0.00526905
1018.41029297,0.00560696
1020.33910034,0.00598381
1022.26790771,0.00603571
1024.19671509,0.00642729
1026.12552246,0.00650286
1028.05432983,0.00661942
1029.98313721,0.00713912
1031.91194458,0.00716030
1033.84075195,0.00746255
1035.76955933,0.00768435
1037.69836670,0.00745505
1039.62717407,0.00756724
1041.55598145,0.00760442
1043.48478882,0.00760888
1045.41359619,0.00766682
1047.34240356,0.00745236
1049.27121094,0.00721641
1051.20001831,0.00708332
1053.12882568,0.00678649
1055.05763306,0.00686109
1056.98644043,0.00686180
1058.91524780,0.00642495
1060.84405518,0.00642880
1062.77286255,0.00597267
1064.70166992,0.00572142
1066.63047729,0.00590052
1068.55928467,0.00541993
1070.48809204,0.00521336
1072.41689941,0.00512722
1074.34570679,0.00497264
1076.27451416,0.00470819
1078.20332153,0.00450462
1080.13212891,0.00433985
1082.06093628,0.00401903
1083.98974365,0.00398490
1085.91855103,0.00357087
1087.84735840,0.00335460
1089.77616577,0.00344584
1091.70497314,0.00341716
1093.63378052,0.00324539
1095.56258789,0.00290434
1097.49139526,0.00316155
1099.42020264,0.00306074
1101.34901001,0.00284299
1103.27781738,0.00298147
1105.20662476,0.00271581
1107.13543213,0.00276895
1109.06423950,0.00293899
1110.99304687,0.00270592
1112.92185425,0.00268296
1114.85066162,0.00276385
1116.77946899,0.00255499
1118.70827637,0.00258149
1120.63708374,0.00265166
1122.56589111,0.00275053
1124.49469849,0.00286685
1126.42350586,0.00253551
1128.35231323,0.00248172
1130.28112061,0.00269194
1132.20992798,0.00294775
1134.13873535,0.00304377
1136.06754272,0.00313085
1137.99635010,0.00333260
1139.92515747,0.00334513
1141.85396484,0.00359056
1143.78277222,0.00374502
1145.71157959,0.00411785
1147.64038696,0.00440801
1149.56919434,0.00454802
1151.49800171,0.00495272
1153.42680908,0.00504392
1155.35561646,0.00531805
1157.28442383,0.00537710
1159.21323120,0.00559109
1161.14203857,0.00609677
1163.07084595,0.00620292
1164.99965332,0.00636602
1166.92846069,0.00651148
1168.85726807,0.00690701
1170.78607544,0.00717121
1172.71488281,0.00740078
1174.64369019,0.00779076
1176.57249756,0.00799646
1178.50130493,0.00829727
1180.43011230,0.00852341
1182.35891968,0.00899264
1184.28772705,0.00947702
1186.21653442,0.00977208
1188.14534180,0.01018097
1190.07414917,0.01065708
1192.00295654,0.01120156
1193.93176392,0.01167010
1195.86057129,0.01216843
1197.78937866,0.01282061
1199.71818604,0.01340522
1201.64699341,0.01377477
1203.57580078,0.01440165
1205.50460815,0.01505482
1207.43341553,0.01571641
1209.36222290,0.01625035
1211.29103027,0.01638531
1213.21983765,0.01705440
1215.14864502,0.01765350
1217.07745239,0.01804980
1219.00625977,0.01822333
1220.93506714,0.01826511
1222.86387451,0.01884285
1224.79268188,0.01883357
1226.72148926,0.01894040
1228.65029663,0.01927927
1230.57910400,0.01904115
1232.50791138,0.01916065
1234.43671875,0.01945801
1236.36552612,0.01942563
1238.29433350,0.01930107
1240.22314087,0.01931536
1242.15194824,0.01934091
1244.08075562,0.01935356
1246.00956299,0.01906706
1247.93837036,0.01885157
1249.86717773,0.01889686
1251.79598511,0.01861977
1253.72479248,0.01856589
1255.65359985,0.01841426
1257.58240723,0.01824803
1259.51121460,0.01806290
1261.44002197,0.01748195
1263.36882935,0.01740698
1265.29763672,0.01719679
1267.22644409,0.01691891
1269.15525146,0.01691167
1271.08405884,0.01642485
1273.01286621,0.01613581
1274.94167358,0.01601441
1276.87048096,0.01557820
1278.79928833,0.01539494
1280.72809570,0.01525603
1282.65690308,0.01477136
1284.58571045,0.01447799
1286.51451782,0.01433092
1288.44332520,0.01411457
1290.37213257,0.01398350
1292.30093994,0.01386468
1294.22974731,0.01378785
1296.15855469,0.01358049
1298.08736206,0.01359643
1300.01616943,0.01384172
1301.94497681,0.01374688
1303.87378418,0.01381785
1305.80259155,0.01396265
1307.73139893,0.01416506
1309.66020630,0.01475066
1311.58901367,0.01490888
1313.51782104,0.01494046
1315.44662842,0.01533252
1317.37543579,0.01565402
1319.30424316,0.01612254
1321.23305054,0.01667615
1323.16185791,0.01714527
1325.09066528,0.01774406
1327.01947266,0.01830963
1328.94828003,0.01866719
1330.87708740,0.01905521
1332.80589478,0.01949132
1334.73470215,0.01983957
1336.66350952,0.02005182
1338.59231689,0.01992849
1340.52112427,0.02020115
1342.44993164,0.02095229
1344.37873901,0.02116225
1346.30754639,0.02111355
1348.23635376,0.02102303
1350.16516113,0.02094110
1352.09396851,0.02090048
1354.02277588,0.02059079
1355.95158325,0.02049237
1357.88039062,0.02058352
1359.80919800,0.02025870
1361.73800537,0.01928253
1363.66681274,0.01906926
1365.59562012,0.01983394
1367.52442749,0.01952288
1369.45323486,0.01957613
1371.38204224,0.01973971
1373.31084961,0.01870674
1375.23965698,0.01886267
1377.16846436,0.01934320
1379.09727173,0.01931065
1381.02607910,0.01920766
1382.95488647,0.01929397
1384.88369385,0.01963285
1386.81250122,0.01855727
1388.74130859,0.01851911
1390.67011597,0.02016252
1392.59892334,0.01965398
1394.52773071,0.01843132
1396.45653809,0.01932384
1398.38534546,0.01943851
1400.31415283,0.01934747
1402.24296021,0.02065717
1404.17176758,0.01979361
1406.10057495,0.02002238
1408.02938232,0.02075281
1409.95818970,0.01990049
1411.88699707,0.02037707
1413.81580444,0.01971837
1415.74461182,0.01973635
1417.67341919,0.01816133
1419.60222656,0.01631683
1421.53103394,0.01844395
1423.45984131,0.01802195
1425.38864868,0.01743416
1427.31745605,0.01777891
1429.24626343,0.01663913
1431.17507080,0.01594162
1433.10387817,0.01600979
1435.03268555,0.01497719
1436.96149292,0.01268927
1438.89030029,0.01422508
1440.81910767,0.01476784
1442.74791504,0.01371473
1444.67672241,0.01452618
1446.60552979,0.01315517
1448.53433716,0.01328105
1450.46314453,0.01391865
1452.39195190,0.01421277
1454.32075928,0.01479468
1456.24956665,0.01216454
1458.17837402,0.01284099
1460.10718140,0.01696179
1462.03598877,0.01787485
1463.96479614,0.01777912
1465.89360352,0.01864435
1467.82241089,0.02119013
1469.75121826,0.02257511
1471.68002563,0.02037433
1473.60883301,0.02152087
1475.53764038,0.02437450
1477.46644775,0.02617176
1479.39525513,0.02871387
1481.32406250,0.02908599
1483.25286987,0.03088648
1485.18167725,0.03204871
1487.11048462,0.03138311
1489.03929199,0.03126039
1490.96809937,0.03149115
1492.89690674,0.03654965
1494.82571411,0.03598941
1496.75452148,0.03218431
1498.68332886,0.03620073
1500.61213623,0.03749578
1502.54094360,0.04023149
1504.46975098,0.03833587
1506.39855835,0.02809735
1508.32736572,0.03381152
1510.25617310,0.03964809
1512.18498047,0.03836175
1514.11378784,0.04169594
1516.04259521,0.03774229
1517.97140259,0.03922799
1519.90020996,0.03826308
1521.82901733,0.03309604
1523.75782471,0.04032429
1525.68663208,0.03981071
1527.61543945,0.03930268
1529.54424683,0.04334267
1531.47305420,0.04191335
1533.40186157,0.03882568
1535.33066895,0.04088900
1537.25947632,0.04392907
1539.18828369,0.03212919
1541.11709106,0.03311577
1543.04589844,0.03950478
1544.97470581,0.03775294
1546.90351318,0.04461911
1548.83232056,0.04169788
1550.76112793,0.04295038
1552.68993530,0.04308739
1554.61874268,0.03899680
1556.54755005,0.04205786
1558.47635742,0.03025458
1560.40516479,0.03189943
1562.33397217,0.04497502
1564.26277954,0.04278547
1566.19158691,0.04386604
1568.12039429,0.04358473
1570.04920166,0.03892310
1571.97800903,0.04451729
1573.90681641,0.04542645
1575.83562378,0.03621794
1577.76443115,0.04064585
1579.69323853,0.04599442
1581.62204590,0.04368035
1583.55085327,0.04499865
1585.47966064,0.04428481
1587.40846802,0.04457636
1589.33727539,0.04450726
1591.26608276,0.04429961
1593.19489014,0.04453377
1595.12369751,0.04410746
1597.05250488,0.04469368
1598.98131226,0.04449740
1600.91011963,0.04489338
1602.83892700,0.04407526
1604.76773437,0.04480671
1606.69654175,0.04426489
1608.62534912,0.04386879
1610.55415649,0.04399075
1612.48296387,0.04445647
1614.41177124,0.04512957
1616.34057861,0.03716136
1618.26938599,0.04007519
1620.19819336,0.04667128
1622.12700073,0.04151630
1624.05580811,0.04165957
1625.98461548,0.04354502
1627.91342285,0.04343294
1629.84223022,0.04329059
1631.77103760,0.04600346
1633.69984497,0.04294851
1635.62865234,0.03560745
1637.55745972,0.04093613
1639.48626709,0.04517251
1641.41507446,0.04400744
1643.34388184,0.04520398
1645.27268921,0.04110814
1647.20149658,0.03620990
1649.13030396,0.04464381
1651.05911133,0.04268547
1652.98791870,0.02782251
1654.91672607,0.03700529
1656.84553345,0.04655637
1658.77434082,0.04452851
1660.70314819,0.04576641
1662.63195557,0.04207690
1664.56076294,0.04403248
1666.48957031,0.04724970
1668.41837769,0.04159277
1670.34718506,0.04013612
1672.27599243,0.04556802
1674.20479980,0.04233459
1676.13360718,0.04033952
1678.06241455,0.04644611
1679.99122192,0.04483784
1681.92002930,0.04438521
1683.84883667,0.03651093
1685.77764404,0.03578021
1687.70645142,0.04881839
1689.63525879,0.04264695
1691.56406616,0.04649073
1693.49287354,0.04784267
1695.42168091,0.03513582
1697.35048828,0.04291441
1699.27929565,0.03833808
1701.20810303,0.03421099
1703.13691040,0.04634974
1705.06571777,0.04288977
1706.99452515,0.04289739
1708.92333252,0.04670641
1710.85213989,0.04485732
1712.78094727,0.04558535
1714.70975464,0.04251535
1716.63856201,0.03829157
1718.56736938,0.03765959
1720.49617676,0.04433448
1722.42498413,0.04619554
1724.35379150,0.04300962
1726.28259888,0.04673683
1728.21140625,0.04334719
1730.14021362,0.04364411
1732.06902100,0.04276383
1733.99782837,0.03267551
1735.92663574,0.04021142
1737.85544312,0.04461982
1739.78425049,0.03973912
1741.71305786,0.04321512
1743.64186523,0.04388434
1745.57067261,0.04391047
1747.49947998,0.04432297
1749.42828735,0.04254165
1751.35709473,0.04068042
1753.28590210,0.04485089
1755.21470947,0.04715738
1757.14351685,0.04301859
1759.07232422,0.04712659
1761.00113159,0.04466978
1762.92993896,0.04283626
1764.85874634,0.04882658
1766.78755371,0.04420164
1768.71636108,0.04454292
1770.64516846,0.04459986
1772.57397583,0.04017620
1774.50278320,0.04447842
1776.43159058,0.04707851
1778.36039795,0.04649834
1780.28920532,0.04586003
1782.21801270,0.04629166
1784.14682007,0.04632360
1786.07562744,0.04535441
1788.00443481,0.04768453
1789.93324219,0.04662899
1791.86204956,0.04231189
1793.79085693,0.04385710
1795.71966431,0.04707462
1797.64847168,0.04674987
1799.57727905,0.04600043
1801.50608643,0.04518150
1803.43489380,0.04656273
1805.36370117,0.04771518
1807.29250854,0.04706908
1809.22131592,0.04714292
1811.15012329,0.04604245
1813.07893066,0.04746452
1815.00773804,0.04775351
1816.93654541,0.04706774
1818.86535278,0.04769222
1820.79416016,0.04757986
1822.72296753,0.04804841
1824.65177490,0.04509527
1826.58058228,0.04659151
1828.50938965,0.04695524
1830.43819702,0.04402614
1832.36700439,0.04774730
1834.29581177,0.04763732
1836.22461914,0.04734813
1838.15342651,0.04748457
1840.08223389,0.04773877
1842.01104126,0.04785866
1843.93984863,0.04272902
1845.86865601,0.04512122
1847.79746338,0.04769754
1849.72627075,0.04676861
1851.65507812,0.04820160
1853.58388550,0.04711809
1855.51269287,0.04748295
1857.44150024,0.04741675
1859.37030762,0.04703107
1861.29911499,0.04752200
1863.22792236,0.04712947
1865.15672974,0.04755368
1867.08553711,0.04612280
1869.01434448,0.04423393
1870.94315186,0.04587045
1872.87195923,0.04769344
1874.80076660,0.04699207
1876.72957397,0.04723498
1878.65838135,0.04710210
1880.58718872,0.04670776
1882.51599609,0.04704971
1884.44480347,0.04647331
1886.37361084,0.04725427
1888.30241821,0.04610882
1890.23122559,0.04526767
1892.16003296,0.04705957
1894.08884033,0.04633906
1896.01764771,0.04611287
1897.94645508,0.04669037
1899.87526245,0.04665855
1901.80406982,0.04674455
1903.73287720,0.04627804
1905.66168457,0.04667868
1907.59049194,0.04640689
1909.51929932,0.04593693
1911.44810669,0.04619753
1913.37691406,0.04632159
1915.30572144,0.04670568
1917.23452881,0.04486813
1919.16333618,0.04486213
1921.09214355,0.04657402
1923.02095093,0.04515209
1924.94975830,0.04593547
1926.87856567,0.04654065
1928.80737305,0.04592031
1930.73618042,0.04655262
1932.66498779,0.04596370
1934.59379517,0.04635342
1936.52260254,0.04601649
1938.45140991,0.04612458
1940.38021729,0.04629489
1942.30902466,0.04482689
1944.23783203,0.04580638
1946.16663940,0.04622988
1948.09544678,0.04600015
1950.02425415,0.04629058
1951.95306152,0.04608516
1953.88186890,0.04618063
1955.81067627,0.04601532
1957.73948364,0.04615823
1959.66829102,0.04610975
1961.59709839,0.04611705
1963.52590576,0.04611076
1965.45471313,0.04587876
1967.38352051,0.04569463
1969.31232788,0.04586894
1971.24113525,0.04627346
1973.16994263,0.04598335
1975.09875000,0.04614674
1977.02755737,0.04596442
1978.95636475,0.04594965
1980.88517212,0.04614593
1982.81397949,0.04584838
1984.74278687,0.04605843
1986.67159424,0.04569812
1988.60040161,0.04585288
1990.52920898,0.04560354
1992.45801636,0.04501805
1994.38682373,0.04570592
1996.31563110,0.04563488
1998.24443848,0.04548411
2000.17324585,0.04563131
2002.10205322,0.04543603
2004.03086060,0.04543642
2005.95966797,0.04543176
2007.88847534,0.04531965
2009.81728271,0.04531442
2011.74609009,0.04518325
2013.67489746,0.04509217
2015.60370483,0.04500720
2017.53251221,0.04466138
2019.46131958,0.04495526
2021.39012695,0.04499539
2023.31893433,0.04473410
2025.24774170,0.04476229
2027.17654907,0.04464497
2029.10535645,0.04473129
2031.03416382,0.04446959
2032.96297119,0.04447680
2034.89177856,0.04459332
2036.82058594,0.04447237
2038.74939331,0.04450338
2040.67820068,0.04428249
2042.60700806,0.04426659
2044.53581543,0.04413702
2046.46462280,0.04401239
2048.39343018,0.04400199
2050.32223755,0.04405879
2052.25104492,0.04401468
2054.17985229,0.04371069
2056.10865967,0.04384507
2058.03746704,0.04373334
2059.96627441,0.04361396
2061.89508179,0.04370883
2063.82388916,0.04350390
2065.75269653,0.04336479
2067.68150391,0.04342636
2069.61031128,0.04353326
2071.53911865,0.04329906
2073.46792603,0.04317962
2075.39673340,0.04328437
2077.32554077,0.04323938
2079.25434814,0.04311890
2081.18315552,0.04308704
2083.11196289,0.04311303
2085.04077026,0.04298639
2086.96957764,0.04296848
2088.89838501,0.04290358
2090.82719238,0.04280325
2092.75599976,0.04280485
2094.68480713,0.04281346
2096.61361450,0.04274028
2098.54242187,0.04265133
2100.47122925,0.04272991
2102.40003662,0.04255724
2104.32884399,0.04249762
2106.25765137,0.04258534
2108.18645874,0.04242238
2110.11526611,0.04235634
2112.04407349,0.04238331
2113.97288086,0.04233788
2115.90168823,0.04218458
2117.83049561,0.04224589
2119.75930298,0.04232397
2121.68811035,0.04220220
2123.61691772,0.04207430
2125.54572510,0.04201940
2127.47453247,0.04216168
2129.40333984,0.04210190
2131.33214722,0.04197688
2133.26095459,0.04197432
2135.18976196,0.04193044
2137.11856934,0.04191858
2139.04737671,0.04187816
2140.97618408,0.04186027
2142.90499146,0.04184660
2144.83379883,0.04189246
2146.76260620,0.04178913
2148.69141357,0.04166873
2150.62022095,0.04170846
2152.54902832,0.04164144
2154.47783569,0.04167340
2156.40664307,0.04157398
2158.33545044,0.04155619
2160.26425781,0.04167867
2162.19306519,0.04150312
2164.12187256,0.04146028
2166.05067993,0.04143384
2167.97948730,0.04146232
2169.90829468,0.04146080
2171.83710205,0.04130857
2173.76590942,0.04142381
2175.69471680,0.04138433
2177.62352417,0.04129542
2179.55233154,0.04132449
2181.48113892,0.04134946
2183.40994629,0.04137526
2185.33875366,0.04123928
2187.26756104,0.04121282
2189.19636841,0.04129688
2191.12517578,0.04130218
2193.05398315,0.04108670
2194.98279053,0.04114633
2196.91159790,0.04130285
2198.84040527,0.04109858
2200.76921265,0.04111689
2202.69802002,0.04095741
2204.62682739,0.04091326
2206.55563477,0.04095855
2208.48444214,0.04079725
2210.41324951,0.04097844
2212.34205688,0.04091360
2214.27086426,0.04088619
2216.19967163,0.04090035
2218.12847900,0.04080005
2220.05728638,0.04087898
2221.98609375,0.04077097
2223.91490112,0.04069781
2225.84370850,0.04057316
2227.77251587,0.04053109
2229.70132324,0.04063440
2231.63013062,0.04061029
2233.55893799,0.04050678
2235.48774536,0.04043638
2237.41655273,0.04047388
2239.34536011,0.04037585
2241.27416748,0.04036128
2243.20297485,0.04031976
2245.13178223,0.04024521
2247.06058960,0.04029836
2248.98939697,0.04018265
2250.91820435,0.04012910
2252.84701172,0.04019590
2254.77581909,0.04013517
2256.70462646,0.03998538
2258.63343384,0.03999468
2260.56224121,0.03997918
2262.49104858,0.03986363
2264.41985596,0.03987184
2266.34866333,0.03995095
2268.27747070,0.03992973
2270.20627808,0.03986518
2272.13508545,0.03988665
2274.06389282,0.03964514
2275.99270020,0.03966379
2277.92150757,0.03984658
2279.85031494,0.03970649
2281.77912231,0.03976736
2283.70792969,0.03974560
2285.63673706,0.03965898
2287.56554443,0.03954332
2289.49435181,0.03945257
2291.42315918,0.03940298
2293.35196655,0.03926384
2295.28077393,0.03923174
2297.20958130,0.03910357
2299.13838867,0.03912879
2301.06719604,0.03899693
2302.99600342,0.03876852
2304.92481079,0.03863143
2306.85361816,0.03832755
2308.78242554,0.03817376
2310.71123291,0.03786694
2312.64004028,0.03759039
2314.56884766,0.03728975
2316.49765503,0.03683597
2318.42646240,0.03647071
2320.35526978,0.03605141
2322.28407715,0.03564596
2324.21288452,0.03517956
2326.14169189,0.03485898
2328.07049927,0.03444784
2329.99930664,0.03393939
2331.92811401,0.03373322
2333.85692139,0.03360210
2335.78572876,0.03346863
2337.71453613,0.03351610
2339.64334351,0.03356384
2341.57215088,0.03358509
2343.50095825,0.03412347
2345.42976562,0.03479309
2347.35857300,0.03602060
2349.28738037,0.03712182
2351.21618774,0.03605099
2353.14499512,0.03436462
2355.07380249,0.03324061
2357.00260986,0.03226855
2358.93141724,0.03168353
2360.86022461,0.03141053
2362.78903198,0.03133532
2364.71783936,0.03142406
2366.64664673,0.03175795
2368.57545410,0.03238640
2370.50426147,0.03333096
2372.43306885,0.03418218
2374.36187622,0.03497749
2376.29068359,0.03581077
2378.21949097,0.03659266
2380.14829834,0.03734644
2382.07710571,0.03768272
2384.00591309,0.03794699
2385.93472046,0.03802341
2387.86352783,0.03797536
2389.79233521,0.03804389
2391.72114258,0.03796054
2393.64994995,0.03805947
2395.57875732,0.03808739
2397.50756470,0.03795586
2399.43637207,0.03793693
2401.36517944,0.03810226
2403.29398682,0.03798269
2405.22279419,0.03767359
2407.15160156,0.03786854
2409.08040894,0.03789724
2411.00921631,0.03779297
2412.93802368,0.03780680
2414.86683105,0.03769973
2416.79563843,0.03767237
2418.72444580,0.03757291
2420.65325317,0.03754466
2422.58206055,0.03769854
2424.51086792,0.03759332
2426.43967529,0.03746165
2428.36848267,0.03759275
2430.29729004,0.03751731
2432.22609741,0.03748585
2434.15490479,0.03748026
2436.08371216,0.03744435
2438.01251953,0.03739620
2439.94132690,0.03706749
2441.87013428,0.03726842
2443.79894165,0.03738125
2445.72774902,0.03720853
2447.65655640,0.03733261
2449.58536377,0.03726492
2451.51417114,0.03720999
2453.44297852,0.03706339
2455.37178589,0.03712310
2457.30059326,0.03714319
2459.22940063,0.03702294
2461.15820801,0.03711416
2463.08701538,0.03688042
2465.01582275,0.03697369
2466.94463013,0.03707071
2468.87343750,0.03682999
2470.80224487,0.03676868
2472.73105225,0.03675926
2474.65985962,0.03692760
2476.58866699,0.03689419
2478.51747437,0.03673255
2480.44628174,0.03669162
2482.37508911,0.03669836
2484.30389648,0.03666002
2486.23270386,0.03655752
2488.16151123,0.03663117
2490.09031860,0.03658515
2492.01912598,0.03657813
2493.94793335,0.03655983
2495.87674072,0.03643019
2497.80554810,0.03654514
2499.73435547,0.03650663
2501.66316284,0.03639936
2503.59197021,0.03636559
2505.52077759,0.03626937
2507.44958496,0.03624608
2509.37839233,0.03623230
2511.30719971,0.03629544
2513.23600708,0.03618820
2515.16481445,0.03608288
2517.09362183,0.03625021
2519.02242920,0.03622449
2520.95123657,0.03616785
2522.88004395,0.03609647
2524.80885132,0.03596932
2526.73765869,0.03603772
2528.66646606,0.03600997
2530.59527344,0.03591158
2532.52408081,0.03596827
2534.45288818,0.03594771
2536.38169556,0.03574836
2538.31050293,0.03578171
2540.23931030,0.03580853
2542.16811768,0.03569457
2544.09692505,0.03573686
2546.02573242,0.03562671
2547.95453979,0.03561511
2549.88334717,0.03563443
2551.81215454,0.03564826
2553.74096191,0.03568744
2555.66976929,0.03550985
2557.59857666,0.03564796
2559.52738403,0.03567092
2561.45619141,0.03544641
2563.38499878,0.03536323
2565.31380615,0.03538556
2567.24261353,0.03546288
2569.17142090,0.03536519
2571.10022827,0.03545536
2573.02903564,0.03534875
2574.95784302,0.03510621
2576.88665039,0.03524319
2578.81545776,0.03523775
2580.74426514,0.03514194
2582.67307251,0.03511618
2584.60187988,0.03516926
2586.53068726,0.03515975
2588.45949463,0.03508262
2590.38830200,0.03510305
2592.31710937,0.03503819
2594.24591675,0.03495713
2596.17472412,0.03495161
2598.10353149,0.03497311
2600.03233887,0.03494368
2601.96114624,0.03492749
2603.88995361,0.03489098
2605.81876099,0.03479934
2607.74756836,0.03474763
2609.67637573,0.03470328
2611.60518311,0.03467244
2613.53399048,0.03467616
2615.46279785,0.03470097
2617.39160522,0.03461018
2619.32041260,0.03452780
2621.24921997,0.03446627
2623.17802734,0.03446562
2625.10683472,0.03452500
2627.03564209,0.03447446
2628.96444946,0.03449565
2630.89325684,0.03442291
2632.82206421,0.03438778
2634.75087158,0.03427709
2636.67967895,0.03421190
2638.60848633,0.03444007
2640.53729370,0.03426117
2642.46610107,0.03417680
2644.39490845,0.03427975
2646.32371582,0.03418935
2648.25252319,0.03414533
2650.18133057,0.03401817
2652.11013794,0.03399555
2654.03894531,0.03403560
2655.96775269,0.03408664
2657.89656006,0.03407827
2659.82536743,0.03397995
2661.75417480,0.03391236
2663.68298218,0.03390004
2665.61178955,0.03391724
2667.54059692,0.03381332
2669.46940430,0.03387035
2671.39821167,0.03384772
2673.32701904,0.03374283
2675.25582642,0.03374738
2677.18463379,0.03363560
2679.11344116,0.03366223
2681.04224854,0.03366148
2682.97105591,0.03361031
2684.89986328,0.03356172
2686.82867065,0.03353271
2688.75747803,0.03355497
2690.68628540,0.03346164
2692.61509277,0.03347877
2694.54390015,0.03340020
2696.47270752,0.03330546
2698.40151489,0.03331578
2700.33032227,0.03326949
2702.25912964,0.03331701
2704.18793701,0.03319915
2706.11674438,0.03310528
2708.04555176,0.03319020
2709.97435913,0.03313033
2711.90316650,0.03308256
2713.83197388,0.03308913
2715.76078125,0.03309619
2717.68958862,0.03308799
2719.61839600,0.03292995
2721.54720337,0.03284535
2723.47601074,0.03291723
2725.40481812,0.03289663
2727.33362549,0.03275621
2729.26243286,0.03266427
2731.19124023,0.03278200
2733.12004761,0.03281298
2735.04885498,0.03272586
2736.97766235,0.03275726
2738.90646973,0.03262743
2740.83527710,0.03257465
2742.76408447,0.03270873
2744.69289185,0.03257932
2746.62169922,0.03241549
2748.55050659,0.03249016
2750.47931396,0.03253037
2752.40812134,0.03244236
2754.33692871,0.03240727
2756.26573608,0.03234445
2758.19454346,0.03224120
2760.12335083,0.03221380
2762.05215820,0.03213693
2763.98096558,0.03208787
2765.90977295,0.03210520
2767.83858032,0.03202544
2769.76738770,0.03201689
2771.69619507,0.03204326
2773.62500244,0.03196982
2775.55380981,0.03198653
2777.48261719,0.03195558
2779.41142456,0.03184342
2781.34023193,0.03177183
2783.26903931,0.03176583
2785.19784668,0.03185558
2787.12665405,0.03170922
2789.05546143,0.03155229
2790.98426880,0.03166890
2792.91307617,0.03163698
2794.84188354,0.03156637
2796.77069092,0.03157911
2798.69949829,0.03150427
2800.62830566,0.03145906
2802.55711304,0.03135849
2804.48592041,0.03129927
2806.41472778,0.03135525
2808.34353516,0.03128289
2810.27234253,0.03126926
2812.20114990,0.03121149
2814.12995728,0.03107384
2816.05876465,0.03110932
2817.98757202,0.03109188
2819.91637939,0.03106754
2821.84518677,0.03104160
2823.77399414,0.03099605
2825.70280151,0.03093274
2827.63160889,0.03080259
2829.56041626,0.03076353
2831.48922363,0.03067544
2833.41803101,0.03065857
2835.34683838,0.03060248
2837.27564575,0.03051151
2839.20445312,0.03059486
2841.13326050,0.03041739
2843.06206787,0.03026684
2844.99087524,0.03030560
2846.91968262,0.03017678
2848.84848999,0.02995897
2850.77729736,0.02980278
2852.70610474,0.02986538
2854.63491211,0.02988770
2856.56371948,0.02981465
2858.49252686,0.02987849
2860.42133423,0.02981751
2862.35014160,0.02965385
2864.27894897,0.02966657
2866.20775635,0.02968794
2868.13656372,0.02964358
2870.06537109,0.02966747
2871.99417847,0.02964349
2873.92298584,0.02956627
2875.85179321,0.02958709
2877.78060059,0.02957754
2879.70940796,0.02949302
2881.63821533,0.02950840
2883.56702270,0.02947804
2885.49583008,0.02943033
2887.42463745,0.02941890
2889.35344482,0.02922504
2891.28225220,0.02916541
2893.21105957,0.02923323
2895.13986694,0.02912790
2897.06867432,0.02905351
2898.99748169,0.02903086
2900.92628906,0.02897279
2902.85509644,0.02892032
2904.78390381,0.02883664
2906.71271118,0.02873689
2908.64151855,0.02873034
2910.57032593,0.02867288
2912.49913330,0.02851927
2914.42794067,0.02844313
2916.35674805,0.02836269
2918.28555542,0.02825918
2920.21436279,0.02824128
2922.14317017,0.02826218
2924.07197754,0.02822617
2926.00078491,0.02816987
2927.92959229,0.02806729
2929.85839966,0.02803554
2931.78720703,0.02804560
2933.71601440,0.02801133
2935.64482178,0.02813405
2937.57362915,0.02808317
2939.50243652,0.02803688
2941.43124390,0.02812575
2943.36005127,0.02802206
2945.28885864,0.02806396
2947.21766602,0.02808133
2949.14647339,0.02807133
2951.07528076,0.02806605
2953.00408813,0.02787512
2954.93289551,0.02782171
2956.86170288,0.02776563
2958.79051025,0.02766205
2960.71931763,0.02765645
2962.64812500,0.02762345
2964.57693237,0.02752318
2966.50573975,0.02745772
2968.43454712,0.02750593
2970.36335449,0.02757900
2972.29216187,0.02761532
2974.22096924,0.02762862
2976.14977661,0.02766209
2978.07858398,0.02768626
2980.00739136,0.02765645
2981.93619873,0.02759612
2983.86500610,0.02761792
2985.79381348,0.02762902
2987.72262085,0.02761140
2989.65142822,0.02758422
2991.58023560,0.02744340
2993.50904297,0.02747710
2995.43785034,0.02746371
2997.36665771,0.02738014
2999.29546509,0.02742621
3001.22427246,0.02737032
3003.15307983,0.02743349
3005.08188721,0.02735676
3007.01069458,0.02718914
3008.93950195,0.02727942
3010.86830933,0.02722920
3012.79711670,0.02712884
3014.72592407,0.02712306
3016.65473145,0.02703475
3018.58353882,0.02701769
3020.51234619,0.02699474
3022.44115356,0.02684760
3024.36996094,0.02687212
3026.29876831,0.02691232
3028.22757568,0.02684610
3030.15638306,0.02672172
3032.08519043,0.02661685
3034.01399780,0.02668294
3035.94280518,0.02662111
3037.87161255,0.02654692
3039.80041992,0.02646968
3041.72922729,0.02646872
3043.65803467,0.02656458
3045.58684204,0.02646324
3047.51564941,0.02641506
3049.44445679,0.02629602
3051.37326416,0.02624767
3053.30207153,0.02624484
3055.23087891,0.02617767
3057.15968628,0.02619055
3059.08849365,0.02615675
3061.01730103,0.02618293
3062.94610840,0.02604387
3064.87491577,0.02601666
3066.80372314,0.02598400
3068.73253052,0.02588924
3070.66133789,0.02595747
3072.59014526,0.02580928
3074.51895264,0.02591614
3076.44776001,0.02590809
3078.37656738,0.02570507
3080.30537476,0.02573985
3082.23418213,0.02567644
3084.16298950,0.02564397
3086.09179687,0.02555564
3088.02060425,0.02554118
3089.94941162,0.02554451
3091.87821899,0.02545441
3093.80702637,0.02540670
3095.73583374,0.02533846
3097.66464111,0.02531736
3099.59344849,0.02526331
3101.52225586,0.02525837
3103.45106323,0.02520897
3105.37987061,0.02515394
3107.30867798,0.02513200
3109.23748535,0.02507046
3111.16629272,0.02511219
3113.09510010,0.02509810
3115.02390747,0.02497941
3116.95271484,0.02486778
3118.88152222,0.02486535
3120.81032959,0.02480666
3122.73913696,0.02472221
3124.66794434,0.02470696
3126.59675171,0.02464187
3128.52555908,0.02461167
3130.45436645,0.02449670
3132.38317383,0.02444042
3134.31198120,0.02443021
3136.24078857,0.02436031
3138.16959595,0.02435501
3140.09840332,0.02424289
3142.02721069,0.02415368
3143.95601807,0.02417153
3145.88482544,0.02418402
3147.81363281,0.02419743
3149.74244019,0.02406290
3151.67124756,0.02395261
3153.60005493,0.02402848
3155.52886230,0.02390165
3157.45766968,0.02373150
3159.38647705,0.02373475
3161.31528442,0.02374995
3163.24409180,0.02369807
3165.17289917,0.02355079
3167.10170654,0.02359788
3169.03051392,0.02352502
3170.95932129,0.02344145
3172.88812866,0.02344376
3174.81693604,0.02324983
3176.74574341,0.02332418
3178.67455078,0.02319302
3180.60335815,0.02308081
3182.53216553,0.02321691
3184.46097290,0.02302744
3186.38978027,0.02301483
3188.31858765,0.02308347
3190.24739502,0.02301784
3192.17620239,0.02293283
3194.10500977,0.02291208
3196.03381714,0.02289296
3197.96262451,0.02271210
3199.89143188,0.02271369
3201.82023926,0.02275612
3203.74904663,0.02264627
3205.67785400,0.02265199
3207.60666138,0.02267621
3209.53546875,0.02256049
3211.46427612,0.02252498
3213.39308350,0.02247867
3215.32189087,0.02245122
3217.25069824,0.02244375
3219.17950562,0.02232489
3221.10831299,0.02235245
3223.03712036,0.02226891
3224.96592773,0.02225336
3226.89473511,0.02229711
3228.82354248,0.02217754
3230.75234985,0.02220117
3232.68115723,0.02214916
3234.60996460,0.02214485
3236.53877197,0.02216867
3238.46757935,0.02210692
3240.39638672,0.02203953
3242.32519409,0.02202528
3244.25400146,0.02201950
3246.18280884,0.02192745
3248.11161621,0.02201820
3250.04042358,0.02199541
3251.96923096,0.02190039
3253.89803833,0.02186261
3255.82684570,0.02186974
3257.75565308,0.02188984
3259.68446045,0.02178255
3261.61326782,0.02186127
3263.54207520,0.02183110
3265.47088257,0.02186093
3267.39968994,0.02184509
3269.32849731,0.02164337
3271.25730469,0.02176046
3273.18611206,0.02168645
3275.11491943,0.02159961
3277.04372681,0.02170853
3278.97253418,0.02166113
3280.90134155,0.02163468
3282.83014893,0.02164182
3284.75895630,0.02158034
3286.68776367,0.02157917
3288.61657104,0.02163813
3290.54537842,0.02152892
3292.47418579,0.02147445
3294.40299316,0.02159649
3296.33180054,0.02161790
3298.26060791,0.02149946
3300.18941528,0.02144295
3302.11822266,0.02143105
3304.04703003,0.02143659
3305.97583740,0.02139166
3307.90464478,0.02132903
3309.83345215,0.02144261
3311.76225952,0.02130513
3313.69106689,0.02127928
3315.61987427,0.02139046
3317.54868164,0.02130169
3319.47748901,0.02141919
3321.40629639,0.02127399
3323.33510376,0.02116229
3325.26391113,0.02123305
3327.19271851,0.02114821
3329.12152588,0.02117389
3331.05033325,0.02112605
3332.97914062,0.02108608
3334.90794800,0.02106373
3336.83675537,0.02100134
3338.76556274,0.02097701
3340.69437012,0.02100925
3342.62317749,0.02100357
3344.55198486,0.02096134
3346.48079224,0.02099497
3348.40959961,0.02089430
3350.33840698,0.02075847
3352.26721436,0.02083405
3354.19602173,0.02089608
3356.12482910,0.02065174
3358.05363647,0.02061358
3359.98244385,0.02071249
3361.91125122,0.02061314
3363.84005859,0.02063212
3365.76886597,0.02061777
3367.69767334,0.02062956
3369.62648071,0.02061658
3371.55528809,0.02061003
3373.48409546,0.02056052
3375.41290283,0.02052399
3377.34171020,0.02052691
3379.27051758,0.02034043
3381.19932495,0.02039602
3383.12813232,0.02029250
3385.05693970,0.02016617
3386.98574707,0.02026253
3388.91455444,0.02027119
3390.84336182,0.02025204
3392.77216919,0.02014571
3394.70097656,0.02020107
3396.62978394,0.02007870
3398.55859131,0.02004880
3400.48739868,0.02010860
3402.41620605,0.02001729
3404.34501343,0.02000618
3406.27382080,0.01995086
3408.20262817,0.02008695
3410.13143555,0.02000344
3412.06024292,0.01994910
3413.98905029,0.01986999
3415.91785767,0.01975474
3417.84666504,0.01988202
3419.77547241,0.01969681
3421.70427979,0.01966685
3423.63308716,0.01968445
3425.56189453,0.01970956
3427.49070190,0.01972189
3429.41950928,0.01961070
3431.34831665,0.01959521
3433.27712402,0.01959487
3435.20593140,0.01959096
3437.13473877,0.01937862
3439.06354614,0.01950735
3440.99235352,0.01948326
3442.92116089,0.01935946
3444.84996826,0.01943740
3446.77877563,0.01920248
3448.70758301,0.01931080
3450.63639038,0.01935356
3452.56519775,0.01933110
3454.49400513,0.01937114
3456.42281250,0.01933312
3458.35161987,0.01934029
3460.28042725,0.01912894
3462.20923462,0.01909784
3464.13804199,0.01914589
3466.06684937,0.01916385
3467.99565674,0.01915011
3469.92446411,0.01917328
3471.85327148,0.01918303
3473.78207886,0.01915104
3475.71088623,0.01911959
3477.63969360,0.01905519
3479.56850098,0.01912969
3481.49730835,0.01886542
3483.42611572,0.01883037
3485.35492310,0.01905575
3487.28373047,0.01903925
3489.21253784,0.01899074
3491.14134521,0.01896190
3493.07015259,0.01913929
3494.99895996,0.01898397
3496.92776733,0.01887812
3498.85657471,0.01897306
3500.78538208,0.01889341
3502.71418945,0.01876305
3504.64299683,0.01873370
3506.57180420,0.01892415
3508.50061157,0.01879370
3510.42941895,0.01878432
3512.35822632,0.01895357
3514.28703369,0.01896943
3516.21584106,0.01889538
3518.14464844,0.01887457
3520.07345581,0.01901585
3522.00226318,0.01881130
3523.93107056,0.01857820
3525.85987793,0.01857903
3527.78868530,0.01874220
3529.71749268,0.01872211
3531.64630005,0.01882590
3533.57510742,0.01906375
3535.50391479,0.01878652
3537.43272217,0.01879637
3539.36152954,0.01898187
3541.29033691,0.01895159
3543.21914429,0.01874817
3545.14795166,0.01837125
3547.07675903,0.01817080
3549.00556641,0.01863078
3550.93437378,0.01887201
3552.86318115,0.01835635
3554.79198853,0.01866525
3556.72079590,0.01890275
3558.64960327,0.01874796
3560.57841064,0.01860420
3562.50721802,0.01850782
3564.43602539,0.01870104
3566.36483276,0.01752250
3568.29364014,0.01711819
3570.22244751,0.01850161
3572.15125488,0.01891781
3574.08006226,0.01876280
3576.00886963,0.01878175
3577.93767700,0.01863595
3579.86648437,0.01863461
3581.79529175,0.01862572
3583.72409912,0.01868881
3585.65290649,0.01832611
3587.58171387,0.01691249
3589.51052124,0.01738790
3591.43932861,0.01882984
3593.36813599,0.01835854
3595.29694336,0.01800381
3597.22575073,0.01832280
3599.15455811,0.01855512
3601.08336548,0.01836058
3603.01217285,0.01848865
3604.94098022,0.01886706
3606.86978760,0.01824658
3608.79859497,0.01713530
3610.72740234,0.01752989
3612.65620972,0.01797402
3614.58501709,0.01739104
3616.51382446,0.01858614
3618.44263184,0.01733977
3620.37143921,0.01677377
3622.30024658,0.01877457
3624.22905395,0.01829505
3626.15786133,0.01914279
3628.08666870,0.01638224
3630.01547607,0.01496100
3631.94428345,0.01854110
3633.87309082,0.01812718
3635.80189819,0.01849338
3637.73070557,0.01881417
3639.65951294,0.01857775
3641.58832031,0.01877259
3643.51712769,0.01849018
3645.44593506,0.01872714
3647.37474243,0.01687799
3649.30354980,0.01547374
3651.23235718,0.01564687
3653.16116455,0.01850608
3655.08997192,0.01832879
3657.01877930,0.01642929
3658.94758667,0.01888705
3660.87639404,0.01851113
3662.80520142,0.01864223
3664.73400879,0.01864065
3666.66281616,0.01847640
3668.59162354,0.01798798
3670.52043091,0.01483759
3672.44923828,0.01773667
3674.37804565,0.01694845
3676.30685303,0.01419685
3678.23566040,0.01765442
3680.16446777,0.01806606
3682.09327515,0.01804686
3684.02208252,0.01845467
3685.95088989,0.01828571
3687.87969727,0.01664455
3689.80850464,0.01525147
3691.73731201,0.01730064
3693.66611938,0.01777644
3695.59492676,0.01817406
3697.52373413,0.01819681
3699.45254150,0.01803215
3701.38134888,0.01762208
3703.31015625,0.01692019
3705.23896362,0.01849489
3707.16777100,0.01768764
3709.09657837,0.01737566
3711.02538574,0.01639575
3712.95419312,0.01530787
3714.88300049,0.01786768
3716.81180786,0.01760975
3718.74061523,0.01769079
3720.66942261,0.01743529
3722.59822998,0.01683348
3724.52703735,0.01739579
3726.45584473,0.01631688
3728.38465210,0.01757208
3730.31345947,0.01736350
3732.24226685,0.01607797
3734.17107422,0.01562124
3736.09988159,0.01493384
3738.02868896,0.01575494
3739.95749634,0.01695694
3741.88630371,0.01786079
3743.81511108,0.01396649
3745.74391846,0.01312631
3747.67272583,0.01689297
3749.60153320,0.01468952
3751.53034058,0.01362987
3753.45914795,0.01548396
3755.38795532,0.01665420
3757.31676270,0.01730151
3759.24557007,0.01601944
3761.17437744,0.01654256
3763.10318481,0.01756000
3765.03199219,0.01650888
3766.96079956,0.01674387
3768.88960693,0.01653093
3770.81841431,0.01588689
3772.74722168,0.01717236
3774.67602905,0.01714977
3776.60483643,0.01716277
3778.53364380,0.01677020
3780.46245117,0.01604045
3782.39125854,0.01719158
3784.32006592,0.01686097
3786.24887329,0.01664633
3788.17768066,0.01704984
3790.10648804,0.01689215
3792.03529541,0.01677365
3793.96410278,0.01707103
3795.89291016,0.01613192
3797.82171753,0.01589867
3799.75052490,0.01668772
3801.67933228,0.01346111
3803.60813965,0.01554775
3805.53694702,0.01686208
3807.46575439,0.01394149
3809.39456177,0.01676477
3811.32336914,0.01643024
3813.25217651,0.01683322
3815.18098389,0.01533625
3817.10979126,0.01352092
3819.03859863,0.01698793
3820.96740601,0.01394555
3822.89621338,0.01453677
3824.82502075,0.01692027
3826.75382812,0.01530254
3828.68263550,0.01639041
3830.61144287,0.01578525
3832.54025024,0.01529145
3834.46905762,0.01565445
3836.39786499,0.01485543
3838.32667236,0.01354353
3840.25547974,0.01461455
3842.18428711,0.01562760
3844.11309448,0.01502546
3846.04190186,0.01621746
3847.97070923,0.01590234
3849.89951660,0.01601963
3851.82832397,0.01446937
3853.75713135,0.01092655
3855.68593872,0.01290417
3857.61474609,0.01600998
3859.54355347,0.01563047
3861.47236084,0.01544515
3863.40116821,0.01510686
3865.32997559,0.01406418
3867.25878296,0.01563003
3869.18759033,0.01437281
3871.11639770,0.01323512
3873.04520508,0.01571442
3874.97401245,0.01456932
3876.90281982,0.01554690
3878.83162720,0.01590471
3880.76043457,0.01374843
3882.68924194,0.01570596
3884.61804932,0.01477302
3886.54685669,0.01356020
3888.47566406,0.01570712
3890.40447144,0.01499093
3892.33327881,0.01412898
3894.26208618,0.01528946
3896.19089355,0.01547668
3898.11970093,0.01478324
3900.04850830,0.01407320
3901.97731567,0.01391577
3903.90612305,0.01380315
3905.83493042,0.01405112
3907.76373779,0.01535905
3909.69254517,0.01535411
3911.62135254,0.01511788
3913.55015991,0.01543224
3915.47896728,0.01493357
3917.40777466,0.01450208
3919.33658203,0.01442777
3921.26538940,0.01496855
3923.19419678,0.01503230
3925.12300415,0.01464354
3927.05181152,0.01477711
3928.98061890,0.01503114
3930.90942627,0.01472419
3932.83823364,0.01424611
3934.76704102,0.01485108
3936.69584839,0.01495870
3938.62465576,0.01480081
3940.55346313,0.01491047
3942.48227051,0.01437623
3944.41107788,0.01449619
3946.33988525,0.01482452
3948.26869263,0.01451351
3950.19750000,0.01439342
3952.12630737,0.01470259
3954.05511475,0.01474073
3955.98392212,0.01460010
3957.91272949,0.01462048
3959.84153687,0.01459861
3961.77034424,0.01446985
3963.69915161,0.01448901
3965.62795898,0.01467421
3967.55676636,0.01447135
3969.48557373,0.01449500
3971.41438110,0.01455300
3973.34318848,0.01436763
3975.27199585,0.01429671
3977.20080322,0.01426970
3979.12961060,0.01444529
3981.05841797,0.01430253
3982.98722534,0.01429010
3984.91603271,0.01432452
3986.84484009,0.01428780
3988.77364746,0.01426345
3990.70245483,0.01406738
3992.63126221,0.01425136
3994.56006958,0.01411442
3996.48887695,0.01406218
3998.41768433,0.01417551
4000.34649170,0.01407354
4002.27529907,0.01410177
4004.20410645,0.01398606
4006.13291382,0.01401345
4008.06172119,0.01391913
4009.99052856,0.01383432
4011.91933594,0.01395441
4013.84814331,0.01398445
4015.77695068,0.01391846
4017.70575806,0.01391436
4019.63456543,0.01393447
4021.56337280,0.01378011
4023.49218018,0.01380724
4025.42098755,0.01380975
4027.34979492,0.01379593
4029.27860229,0.01371575
4031.20740967,0.01369759
4033.13621704,0.01373227
4035.06502441,0.01357606
4036.99383179,0.01367687
4038.92263916,0.01354872
4040.85144653,0.01349610
4042.78025391,0.01358798
4044.70906128,0.01350538
4046.63786865,0.01356161
4048.56667603,0.01353488
4050.49548340,0.01353564
4052.42429077,0.01344160
4054.35309814,0.01338959
4056.28190552,0.01341335
4058.21071289,0.01339130
4060.13952026,0.01332182
4062.06832764,0.01327527
4063.99713501,0.01332970
4065.92594238,0.01328613
4067.85474976,0.01330067
4069.78355713,0.01318211
4071.71236450,0.01322855
4073.64117187,0.01325517
4075.56997925,0.01313879
4077.49878662,0.01324648
4079.42759399,0.01315756
4081.35640137,0.01316512
4083.28520874,0.01317645
4085.21401611,0.01308410
4087.14282349,0.01301831
4089.07163086,0.01298043
4091.00043823,0.01297546
4092.92924561,0.01296666
4094.85805298,0.01301338
4096.78686035,0.01289796
4098.71566772,0.01293667
4100.64447510,0.01288083
4102.57328247,0.01284025
4104.50208984,0.01283499
4106.43089722,0.01271469
4108.35970459,0.01287524
4110.28851196,0.01272206
4112.21731934,0.01262763
4114.14612671,0.01273523
4116.07493408,0.01273126
4118.00374145,0.01267661
4119.93254883,0.01259762
4121.86135620,0.01264339
4123.79016357,0.01257705
4125.71897095,0.01263177
4127.64777832,0.01257021
4129.57658569,0.01252766
4131.50539307,0.01252601
4133.43420044,0.01243934
4135.36300781,0.01253253
4137.29181519,0.01241175
4139.22062256,0.01240494
4141.14942993,0.01242177
4143.07823730,0.01241260
4145.00704468,0.01234683
4146.93585205,0.01222704
4148.86465942,0.01233950
4150.79346680,0.01225052
4152.72227417,0.01229195
4154.65108154,0.01228326
4156.57988892,0.01211280
4158.50869629,0.01210915
4160.43750366,0.01212836
4162.36631103,0.01217430
4164.29511841,0.01205493
4166.22392578,0.01203024
4168.15273315,0.01215357
4170.08154053,0.01212401
4172.01034790,0.01199075
4173.93915527,0.01199378
4175.86796265,0.01200240
4177.79677002,0.01195368
4179.72557739,0.01198438
4181.65438477,0.01194214
4183.58319214,0.01194954
4185.51199951,0.01188795
4187.44080688,0.01184718
4189.36961426,0.01179690
4191.29842163,0.01170017
4193.22722900,0.01178327
4195.15603638,0.01175218
4197.08484375,0.01174878
4199.01365112,0.01175846
4200.94245850,0.01167036
4202.87126587,0.01165147
4204.80007324,0.01167914
4206.72888062,0.01168390
4208.65768799,0.01170107
4210.58649536,0.01168981
4212.51530273,0.01159056
4214.44411011,0.01154982
4216.37291748,0.01143184
4218.30172485,0.01147444
4220.23053223,0.01148579
4222.15933960,0.01139226
4224.08814697,0.01148348
4226.01695435,0.01140295
4227.94576172,0.01148746
4229.87456909,0.01147215
4231.80337646,0.01132918
4233.73218384,0.01140250
4235.66099121,0.01130247
4237.58979858,0.01127695
4239.51860596,0.01127234
4241.44741333,0.01123034
4243.37622070,0.01126190
4245.30502808,0.01125469
4247.23383545,0.01115698
4249.16264282,0.01110273
4251.09145020,0.01121589
4253.02025757,0.01120614
4254.94906494,0.01109895
4256.87787231,0.01104150
4258.80667969,0.01105989
4260.73548706,0.01103223
4262.66429443,0.01104568
4264.59310181,0.01109311
4266.52190918,0.01098043
4268.45071655,0.01095477
4270.37952393,0.01090470
4272.30833130,0.01094501
4274.23713867,0.01104214
4276.16594604,0.01090792
4278.09475342,0.01088350
4280.02356079,0.01091018
4281.95236816,0.01087895
4283.88117554,0.01083209
4285.80998291,0.01076599
4287.73879028,0.01082414
4289.66759766,0.01076506
4291.59640503,0.01069177
4293.52521240,0.01076229
4295.45401978,0.01067569
4297.38282715,0.01068544
4299.31163452,0.01066097
4301.24044189,0.01054853
4303.16924927,0.01061575
4305.09805664,0.01054245
4307.02686401,0.01053106
4308.95567139,0.01057594
4310.88447876,0.01060854
4312.81328613,0.01059082
4314.74209351,0.01048346
4316.67090088,0.01052660
4318.59970825,0.01041214
4320.52851562,0.01041035
4322.45732300,0.01046678
4324.38613037,0.01043176
4326.31493774,0.01047058
4328.24374512,0.01029371
4330.17255249,0.01025796
4332.10135986,0.01035753
4334.03016724,0.01030998
4335.95897461,0.01021955
4337.88778198,0.01024939
4339.81658936,0.01027288
4341.74539673,0.01019699
4343.67420410,0.01019799
4345.60301147,0.01016615
4347.53181885,0.01018821
4349.46062622,0.01017709
4351.38943359,0.01018827
4353.31824097,0.01014544
4355.24704834,0.00999591
4357.17585571,0.01001106
4359.10466309,0.00998300
4361.03347046,0.01000804
4362.96227783,0.01001565
4364.89108520,0.00996615
4366.81989258,0.00989457
4368.74869995,0.00985260
4370.67750732,0.00989050
4372.60631470,0.00976235
4374.53512207,0.00982392
4376.46392944,0.00992543
4378.39273682,0.00982595
4380.32154419,0.00975326
4382.25035156,0.00975557
4384.17915894,0.00981689
4386.10796631,0.00981993
4388.03677368,0.00979616
4389.96558105,0.00974838
4391.89438843,0.00972630
4393.82319580,0.00966671
4395.75200317,0.00966380
4397.68081055,0.00965792
4399.60961792,0.00958203
4401.53842529,0.00961364
4403.46723267,0.00959147
4405.39604004,0.00956346
4407.32484741,0.00953908
4409.25365478,0.00961270
4411.18246216,0.00956516
4413.11126953,0.00943149
4415.04007690,0.00950321
4416.96888428,0.00948501
4418.89769165,0.00949986
4420.82649902,0.00940207
4422.75530640,0.00932363
4424.68411377,0.00939462
4426.61292114,0.00937067
4428.54172852,0.00934557
4430.47053589,0.00933220
4432.39934326,0.00935582
4434.32815063,0.00922015
4436.25695801,0.00923008
4438.18576538,0.00926560
4440.11457275,0.00916203
4442.04338013,0.00923367
4443.97218750,0.00919934
4445.90099487,0.00916207
4447.82980225,0.00910108
4449.75860962,0.00907820
4451.68741699,0.00911502
4453.61622437,0.00907883
4455.54503174,0.00907097
4457.47383911,0.00899846
4459.40264648,0.00899399
4461.33145386,0.00902396
4463.26026123,0.00904597
4465.18906860,0.00897150
4467.11787598,0.00890571
4469.04668335,0.00894054
4470.97549072,0.00893766
4472.90429810,0.00898813
4474.83310547,0.00894528
4476.76191284,0.00891027
4478.69072021,0.00887381
4480.61952759,0.00882384
4482.54833496,0.00890365
4484.47714233,0.00887592
4486.40594971,0.00873881
4488.33475708,0.00875313
4490.26356445,0.00879192
4492.19237183,0.00873633
4494.12117920,0.00881397
4496.04998657,0.00876218
4497.97879395,0.00870904
4499.90760132,0.00872762
4501.83640869,0.00864412
4503.76521606,0.00869001
4505.69402344,0.00866937
4507.62283081,0.00869028
4509.55163818,0.00862272
4511.48044556,0.00855977
4513.40925293,0.00859488
4515.33806030,0.00847271
4517.26686768,0.00855107
4519.19567505,0.00854191
4521.12448242,0.00845609
4523.05328979,0.00849518
4524.98209717,0.00849312
4526.91090454,0.00844125
4528.83971191,0.00835682
4530.76851929,0.00836865
4532.69732666,0.00835553
4534.62613403,0.00843872
4536.55494141,0.00843562
4538.48374878,0.00831503
4540.41255615,0.00835239
4542.34136353,0.00834551
4544.27017090,0.00831624
4546.19897827,0.00823813
4548.12778564,0.00813073
4550.05659302,0.00819879
4551.98540039,0.00828878
4553.91420776,0.00815654
4555.84301514,0.00812288
4557.77182251,0.00817857
4559.70062988,0.00811248
4561.62943726,0.00811254
4563.55824463,0.00809077
4565.48705200,0.00808465
4567.41585937,0.00802302
4569.34466675,0.00801068
4571.27347412,0.00802041
4573.20228149,0.00802320
4575.13108887,0.00811454
4577.05989624,0.00794895
4578.98870361,0.00791401
4580.91751099,0.00793025
4582.84631836,0.00787915
4584.77512573,0.00800566
4586.70393311,0.00794710
4588.63274048,0.00783131
4590.56154785,0.00779590
4592.49035522,0.00777766
4594.41916260,0.00776527
4596.34796997,0.00785475
4598.27677734,0.00785202
4600.20558472,0.00771382
4602.13439209,0.00771831
4604.06319946,0.00772950
4605.99200684,0.00781156
4607.92081421,0.00780601
4609.84962158,0.00771480
4611.77842895,0.00770229
4613.70723633,0.00772869
4615.63604370,0.00773839
4617.56485107,0.00766901
4619.49365845,0.00765015
4621.42246582,0.00756071
4623.35127319,0.00753945
4625.28008057,0.00750789
4627.20888794,0.00752176
4629.13769531,0.00761212
4631.06650269,0.00750554
4632.99531006,0.00755674
4634.92411743,0.00753663
4636.85292480,0.00750791
4638.78173218,0.00756247
4640.71053955,0.00747173
4642.63934692,0.00749051
4644.56815430,0.00745735
4646.49696167,0.00741661
4648.42576904,0.00742636
4650.35457642,0.00744247
4652.28338379,0.00737410
4654.21219116,0.00725634
4656.14099853,0.00730783
4658.06980591,0.00732539
4659.99861328,0.00728260
4661.92742065,0.00722257
4663.85622803,0.00724952
4665.78503540,0.00726786
4667.71384277,0.00722446
4669.64265015,0.00728850
4671.57145752,0.00726572
4673.50026489,0.00721724
4675.42907227,0.00721176
4677.35787964,0.00715864
4679.28668701,0.00712043
4681.21549438,0.00717191
4683.14430176,0.00718886
4685.07310913,0.00713267
4687.00191650,0.00714107
4688.93072388,0.00712874
4690.85953125,0.00711508
4692.78833862,0.00703682
4694.71714600,0.00695627
4696.64595337,0.00700079
4698.57476074,0.00700295
4700.50356812,0.00698475
4702.43237549,0.00696967
4704.36118286,0.00697579
4706.28999023,0.00694298
4708.21879761,0.00689994
4710.14760498,0.00696949
4712.07641235,0.00694579
4714.00521973,0.00689207
4715.93402710,0.00687130
4717.86283447,0.00679617
4719.79164185,0.00682888
4721.72044922,0.00683541
4723.64925659,0.00681290
4725.57806396,0.00683106
4727.50687134,0.00679195
4729.43567871,0.00683116
4731.36448608,0.00673470
4733.29329346,0.00665660
4735.22210083,0.00674933
4737.15090820,0.00672764
4739.07971558,0.00676495
4741.00852295,0.00668777
4742.93733032,0.00663587
4744.86613770,0.00668317
4746.79494507,0.00663180
4748.72375244,0.00676732
4750.65255981,0.00668873
4752.58136719,0.00656375
4754.51017456,0.00666686
4756.43898193,0.00659197
4758.36778931,0.00654090
4760.29659668,0.00653007
4762.22540405,0.00655621
4764.15421143,0.00655741
4766.08301880,0.00649937
4768.01182617,0.00658732
4769.94063354,0.00652420
4771.86944092,0.00641597
4773.79824829,0.00647543
4775.72705566,0.00650693
4777.65586304,0.00651008
4779.58467041,0.00646125
4781.51347778,0.00640703
4783.44228516,0.00642692
4785.37109253,0.00642811
4787.29989990,0.00634098
4789.22870728,0.00634624
4791.15751465,0.00639157
4793.08632202,0.00630986
4795.01512939,0.00634038
4796.94393677,0.00628754
4798.87274414,0.00622043
4800.80155151,0.00632172
4802.73035889,0.00624965
4804.65916626,0.00628051
4806.58797363,0.00628912
4808.51678101,0.00616244
4810.44558838,0.00619834
4812.37439575,0.00616905
4814.30320312,0.00616892
4816.23201050,0.00614319
4818.16081787,0.00613000
4820.08962524,0.00622211
4822.01843262,0.00611799
4823.94723999,0.00610558
4825.87604736,0.00616577
4827.80485474,0.00607990
4829.73366211,0.00609354
4831.66246948,0.00604287
4833.59127686,0.00596398
4835.52008423,0.00606767
4837.44889160,0.00603741
4839.37769897,0.00596663
4841.30650635,0.00606561
4843.23531372,0.00609433
4845.16412109,0.00600915
4847.09292847,0.00595940
4849.02173584,0.00598600
4850.95054321,0.00592849
4852.87935059,0.00588595
4854.80815796,0.00593174
4856.73696533,0.00588553
4858.66577270,0.00587099
4860.59458008,0.00588354
4862.52338745,0.00584996
4864.45219482,0.00587987
4866.38100220,0.00586664
4868.30980957,0.00578699
4870.23861694,0.00583486
4872.16742432,0.00580074
4874.09623169,0.00574461
4876.02503906,0.00578762
4877.95384644,0.00565914
4879.88265381,0.00568679
4881.81146118,0.00573981
4883.74026855,0.00570086
4885.66907593,0.00572345
4887.59788330,0.00566492
4889.52669067,0.00576282
4891.45549805,0.00574563
4893.38430542,0.00571352
4895.31311279,0.00572355
4897.24192017,0.00560108
4899.17072754,0.00565008
4901.09953491,0.00562018
4903.02834228,0.00561943
4904.95714966,0.00558986
4906.88595703,0.00543641
4908.81476440,0.00548598
4910.74357178,0.00562365
4912.67237915,0.00564944
4914.60118652,0.00554391
4916.52999390,0.00551241
4918.45880127,0.00544253
4920.38760864,0.00544582
4922.31641602,0.00552489
4924.24522339,0.00545230
4926.17403076,0.00542076
4928.10283813,0.00539844
4930.03164551,0.00543013
4931.96045288,0.00543008
4933.88926025,0.00540199
4935.81806763,0.00541377
4937.74687500,0.00541204
4939.67568237,0.00541010
4941.60448975,0.00535255
4943.53329712,0.00537337
4945.46210449,0.00530727
4947.39091187,0.00528358
4949.31971924,0.00537834
4951.24852661,0.00534790
4953.17733398,0.00534343
4955.10614136,0.00531401
4957.03494873,0.00525155
4958.96375610,0.00524872
4960.89256348,0.00527222
4962.82137085,0.00520541
4964.75017822,0.00519240
4966.67898560,0.00526115
4968.60779297,0.00523046
4970.53660034,0.00525734
4972.46540771,0.00521494
4974.39421509,0.00512278
4976.32302246,0.00514051
4978.25182983,0.00516692
4980.18063721,0.00511116
4982.10944458,0.00512261
4984.03825195,0.00520687
4985.96705933,0.00507850
4987.89586670,0.00502451
4989.82467407,0.00505739
4991.75348145,0.00504350
4993.68228882,0.00501838
4995.61109619,0.00493036
4997.53990356,0.00498727
4999.46871094,0.00499620
5001.39751831,0.00498031
5003.32632568,0.00500742
5005.25513306,0.00494494
5007.18394043,0.00496850
5009.11274780,0.00498985
5011.04155518,0.00496219
5012.97036255,0.00494216
5014.89916992,0.00491362
5016.82797729,0.00494473
5018.75678467,0.00496396
5020.68559204,0.00488077
5022.61439941,0.00487250
5024.54320679,0.00492666
5026.47201416,0.00490990
5028.40082153,0.00490347
5030.32962891,0.00485516
5032.25843628,0.00476301
5034.18724365,0.00476051
5036.11605103,0.00488252
5038.04485840,0.00482176
5039.97366577,0.00468175
5041.90247314,0.00478081
5043.83128052,0.00474734
5045.76008789,0.00465816
5047.68889526,0.00469886
5049.61770264,0.00473059
5051.54651001,0.00474980
5053.47531738,0.00471261
5055.40412476,0.00470650
5057.33293213,0.00471513
5059.26173950,0.00468640
5061.19054687,0.00465031
5063.11935425,0.00467572
5065.04816162,0.00466925
5066.97696899,0.00463123
5068.90577637,0.00469175
5070.83458374,0.00463536
5072.76339111,0.00460297
5074.69219849,0.00464873
5076.62100586,0.00458009
5078.54981323,0.00457324
5080.47862061,0.00458477
5082.40742798,0.00458960
5084.33623535,0.00460890
5086.26504272,0.00450339
5088.19385010,0.00447282
5090.12265747,0.00454615
5092.05146484,0.00448762
5093.98027222,0.00445980
5095.90907959,0.00452779
5097.83788696,0.00453465
5099.76669434,0.00446320
5101.69550171,0.00443269
5103.62430908,0.00447571
5105.55311645,0.00443259
5107.48192383,0.00441803
5109.41073120,0.00446931
5111.33953857,0.00444078
5113.26834595,0.00436016
5115.19715332,0.00435199
5117.12596069,0.00440221
5119.05476807,0.00434279
5120.98357544,0.00433071
5122.91238281,0.00434434
5124.84119019,0.00431083
5126.76999756,0.00433407
5128.69880493,0.00433917
5130.62761230,0.00435439
5132.55641968,0.00431684
5134.48522705,0.00426257
5136.41403442,0.00425858
5138.34284180,0.00427685
5140.27164917,0.00425591
5142.20045654,0.00422977
5144.12926392,0.00427193
5146.05807129,0.00422745
5147.98687866,0.00428235
5149.91568603,0.00425915
5151.84449341,0.00415408
5153.77330078,0.00423934
5155.70210815,0.00414067
5157.63091553,0.00413397
5159.55972290,0.00417598
5161.48853027,0.00411493
5163.41733765,0.00418839
5165.34614502,0.00411394
5167.27495239,0.00412571
5169.20375977,0.00408686
5171.13256714,0.00398433
5173.06137451,0.00413934
5174.99018188,0.00409372
5176.91898926,0.00401706
5178.84779663,0.00406327
5180.77660400,0.00408349
5182.70541138,0.00408074
5184.63421875,0.00398057
5186.56302612,0.00403235
5188.49183350,0.00406525
5190.42064087,0.00398045
5192.34944824,0.00400161
5194.27825562,0.00398949
5196.20706299,0.00395737
5198.13587036,0.00395004
5200.06467773,0.00390050
5201.99348511,0.00393855
5203.92229248,0.00402137
5205.85109985,0.00393322
5207.77990723,0.00389205
5209.70871460,0.00393187
5211.63752197,0.00392883
5213.56632935,0.00397298
5215.49513672,0.00390209
5217.42394409,0.00385360
5219.35275146,0.00388689
5221.28155884,0.00387342
5223.21036621,0.00380899
5225.13917358,0.00372087
5227.06798096,0.00380477
5228.99678833,0.00391530
5230.92559570,0.00396110
5232.85440308,0.00384646
5234.78321045,0.00373778
5236.71201782,0.00382134
5238.64082520,0.00375391
5240.56963257,0.00376568
5242.49843994,0.00379041
5244.42724731,0.00374146
5246.35605469,0.00378659
5248.28486206,0.00363080
5250.21366943,0.00364541
5252.14247681,0.00382536
5254.07128418,0.00371011
5256.00009155,0.00368488
5257.92889893,0.00375442
5259.85770630,0.00371162
5261.78651367,0.00372830
5263.71532104,0.00359172
5265.64412842,0.00356996
5267.57293579,0.00370679
5269.50174316,0.00363090
5271.43055054,0.00374142
5273.35935791,0.00370349
5275.28816528,0.00356410
5277.21697266,0.00367521
5279.14578003,0.00357725
5281.07458740,0.00355494
5283.00339478,0.00361532
5284.93220215,0.00359782
5286.86100952,0.00358595
5288.78981689,0.00354774
5290.71862427,0.00355791
5292.64743164,0.00353393
5294.57623901,0.00355784
5296.50504639,0.00355085
5298.43385376,0.00355287
5300.36266113,0.00357334
5302.29146851,0.00353296
5304.22027588,0.00356994
5306.14908325,0.00353883
5308.07789062,0.00342245
5310.00669800,0.00341584
5311.93550537,0.00351271
5313.86431274,0.00348852
5315.79312012,0.00346418
5317.72192749,0.00345854
5319.65073486,0.00344044
5321.57954224,0.00350478
5323.50834961,0.00343590
5325.43715698,0.00344467
5327.36596436,0.00340997
5329.29477173,0.00336585
5331.22357910,0.00340620
5333.15238647,0.00330932
5335.08119385,0.00344977
5337.01000122,0.00338419
5338.93880859,0.00319604
5340.86761597,0.00335365
5342.79642334,0.00334227
5344.72523071,0.00326583
5346.65403809,0.00327481
5348.58284546,0.00331903
5350.51165283,0.00330136
5352.44046020,0.00321634
5354.36926758,0.00324656
5356.29807495,0.00326179
5358.22688232,0.00334158
5360.15568970,0.00337317
5362.08449707,0.00325433
5364.01330444,0.00323659
5365.94211182,0.00321767
5367.87091919,0.00323856
5369.79972656,0.00330819
5371.72853394,0.00324249
5373.65734131,0.00326110
5375.58614868,0.00325888
5377.51495605,0.00313751
5379.44376343,0.00314294
5381.37257080,0.00321597
5383.30137817,0.00326416
5385.23018555,0.00315096
5387.15899292,0.00309521
5389.08780029,0.00321097
5391.01660767,0.00318148
5392.94541504,0.00309983
5394.87422241,0.00304322
5396.80302978,0.00307486
5398.73183716,0.00313945
5400.66064453,0.00314685
5402.58945190,0.00315980
5404.51825928,0.00309219
5406.44706665,0.00308739
5408.37587402,0.00310740
5410.30468140,0.00303471
5412.23348877,0.00297155
5414.16229614,0.00296458
5416.09110352,0.00303012
5418.01991089,0.00303580
5419.94871826,0.00301513
5421.87752563,0.00303147
5423.80633301,0.00301672
5425.73514038,0.00304338
5427.66394775,0.00302680
5429.59275513,0.00294260
5431.52156250,0.00300392
5433.45036987,0.00302582
5435.37917725,0.00291675
5437.30798462,0.00299569
5439.23679199,0.00308864
5441.16559936,0.00299727
5443.09440674,0.00295602
5445.02321411,0.00291366
5446.95202148,0.00283026
5448.88082886,0.00288212
5450.80963623,0.00289079
5452.73844360,0.00289727
5454.66725098,0.00299135
5456.59605835,0.00293180
5458.52486572,0.00290793
5460.45367310,0.00292601
5462.38248047,0.00292526
5464.31128784,0.00295188
5466.24009521,0.00291254
5468.16890259,0.00292221
5470.09770996,0.00283559
5472.02651733,0.00282934
5473.95532471,0.00284976
5475.88413208,0.00269618
5477.81293945,0.00283317
5479.74174683,0.00293523
5481.67055420,0.00280927
5483.59936157,0.00282433
5485.52816895,0.00283781
5487.45697632,0.00280611
5489.38578369,0.00282119
5491.31459106,0.00277209
5493.24339844,0.00272640
5495.17220581,0.00280881
5497.10101318,0.00276886
5499.02982056,0.00269156
5500.95862793,0.00273449
5502.88743530,0.00275913
5504.81624268,0.00276133
5506.74505005,0.00271132
5508.67385742,0.00274200
5510.60266479,0.00280918
5512.53147217,0.00280645
5514.46027954,0.00273092
5516.38908691,0.00266402
5518.31789429,0.00274570
5520.24670166,0.00270340
5522.17550903,0.00262712
5524.10431641,0.00267939
5526.03312378,0.00268766
5527.96193115,0.00269995
5529.89073853,0.00270610
5531.81954590,0.00265445
5533.74835327,0.00264472
5535.67716064,0.00267603
5537.60596802,0.00260571
5539.53477539,0.00261586
5541.46358276,0.00267501
5543.39239014,0.00267272
5545.32119751,0.00271405
5547.25000488,0.00261888
5549.17881226,0.00257805
5551.10761963,0.00259234
5553.03642700,0.00260484
5554.96523437,0.00268531
5556.89404175,0.00255336
5558.82284912,0.00254865
5560.75165649,0.00265332
5562.68046387,0.00253051
5564.60927124,0.00252954
5566.53807861,0.00258529
5568.46688599,0.00252363
5570.39569336,0.00257024
5572.32450073,0.00258143
5574.25330811,0.00256170
5576.18211548,0.00260491
5578.11092285,0.00246146
5580.03973022,0.00249782
5581.96853760,0.00265141
5583.89734497,0.00256004
5585.82615234,0.00251856
5587.75495972,0.00246731
5589.68376709,0.00246390
5591.61257446,0.00248358
5593.54138184,0.00249480
5595.47018921,0.00252977
5597.39899658,0.00243170
5599.32780395,0.00246501
5601.25661133,0.00246404
5603.18541870,0.00237105
5605.11422607,0.00240440
5607.04303345,0.00245915
5608.97184082,0.00247221
5610.90064819,0.00239326
5612.82945557,0.00238465
5614.75826294,0.00240611
5616.68707031,0.00241859
5618.61587769,0.00245805
5620.54468506,0.00247211
5622.47349243,0.00246022
5624.40229980,0.00236836
5626.33110718,0.00237251
5628.25991455,0.00240283
5630.18872192,0.00237852
5632.11752930,0.00238703
5634.04633667,0.00235734
5635.97514404,0.00234462
5637.90395142,0.00239257
5639.83275879,0.00241219
5641.76156616,0.00238501
5643.69037353,0.00242439
5645.61918091,0.00238312
5647.54798828,0.00234747
5649.47679565,0.00241236
5651.40560303,0.00233829
5653.33441040,0.00233940
5655.26321777,0.00234695
5657.19202515,0.00226773
5659.12083252,0.00232882
5661.04963989,0.00233551
5662.97844727,0.00227010
5664.90725464,0.00226728
5666.83606201,0.00222730
5668.76486938,0.00222648
5670.69367676,0.00226576
5672.62248413,0.00223368
5674.55129150,0.00228016
5676.48009888,0.00227196
5678.40890625,0.00218537
5680.33771362,0.00227684
5682.26652100,0.00230961
5684.19532837,0.00219237
5686.12413574,0.00214310
5688.05294311,0.00214190
5689.98175049,0.00213203
5691.91055786,0.00214994
5693.83936523,0.00217506
5695.76817261,0.00223162
5697.69697998,0.00219713
5699.62578735,0.00209321
5701.55459473,0.00214072
5703.48340210,0.00216547
5705.41220947,0.00220605
5707.34101685,0.00220993
5709.26982422,0.00213629
5711.19863159,0.00213261
5713.12743896,0.00208932
5715.05624634,0.00215149
5716.98505371,0.00215496
5718.91386108,0.00209487
5720.84266846,0.00211514
5722.77147583,0.00210247
5724.70028320,0.00211560
5726.62909058,0.00205590
5728.55789795,0.00205442
5730.48670532,0.00209289
5732.41551270,0.00208035
5734.34432007,0.00206545
5736.27312744,0.00206221
5738.20193481,0.00209048
5740.13074219,0.00201498
5742.05954956,0.00200943
5743.98835693,0.00207108
5745.91716431,0.00205246
5747.84597168,0.00200696
5749.77477905,0.00204634
5751.70358643,0.00207629
5753.63239380,0.00201477
5755.56120117,0.00201489
5757.49000854,0.00196580
5759.41881592,0.00202177
5761.34762329,0.00208162
5763.27643066,0.00202172
5765.20523804,0.00202182
5767.13404541,0.00203347
5769.06285278,0.00205484
5770.99166016,0.00197101
5772.92046753,0.00198699
5774.84927490,0.00199848
5776.77808228,0.00194856
5778.70688965,0.00195874
5780.63569702,0.00192729
5782.56450439,0.00199726
5784.49331177,0.00197059
5786.42211914,0.00196361
5788.35092651,0.00190913
5790.27973389,0.00186795
5792.20854126,0.00194380
5794.13734863,0.00185666
5796.06615601,0.00195226
5797.99496338,0.00196814
5799.92377075,0.00187536
5801.85257812,0.00186675
5803.78138550,0.00185491
5805.71019287,0.00192904
5807.63900024,0.00190656
5809.56780762,0.00191274
5811.49661499,0.00186726
5813.42542236,0.00183468
5815.35422974,0.00186704
5817.28303711,0.00188115
5819.21184448,0.00190120
5821.14065186,0.00182241
5823.06945923,0.00187150
5824.99826660,0.00186211
5826.92707397,0.00180186
5828.85588135,0.00185532
5830.78468872,0.00185710
5832.71349609,0.00181567
5834.64230347,0.00181641
5836.57111084,0.00185525
5838.49991821,0.00176853
5840.42872559,0.00178596
5842.35753296,0.00181313
5844.28634033,0.00173905
5846.21514770,0.00178883
5848.14395508,0.00181814
5850.07276245,0.00180340
5852.00156982,0.00178407
5853.93037720,0.00180404
5855.85918457,0.00181504
5857.78799194,0.00177469
5859.71679932,0.00173216
5861.64560669,0.00178105
5863.57441406,0.00180795
5865.50322144,0.00176828
5867.43202881,0.00182944
5869.36083618,0.00176028
5871.28964355,0.00171821
5873.21845093,0.00171546
5875.14725830,0.00170713
5877.07606567,0.00175929
5879.00487305,0.00167873
5880.93368042,0.00175017
5882.86248779,0.00176578
5884.79129517,0.00166530
5886.72010254,0.00170461
5888.64890991,0.00171742
5890.57771728,0.00169394
5892.50652466,0.00167318
5894.43533203,0.00164493
5896.36413940,0.00161051
5898.29294678,0.00171112
5900.22175415,0.00168875
5902.15056152,0.00159137
5904.07936890,0.00167328
5906.00817627,0.00170938
5907.93698364,0.00171263
5909.86579102,0.00164373
5911.79459839,0.00165350
5913.72340576,0.00167787
5915.65221313,0.00160443
5917.58102051,0.00162915
5919.50982788,0.00161553
5921.43863525,0.00157780
5923.36744263,0.00161713
5925.29625000,0.00164604
5927.22505737,0.00160063
5929.15386475,0.00163054
5931.08267212,0.00163008
5933.01147949,0.00158428
5934.94028686,0.00160038
5936.86909424,0.00158204
5938.79790161,0.00162421
5940.72670898,0.00154946
5942.65551636,0.00153005
5944.58432373,0.00157008
5946.51313110,0.00151295
5948.44193848,0.00160416
5950.37074585,0.00159018
5952.29955322,0.00154219
5954.22836060,0.00156485
5956.15716797,0.00155024
5958.08597534,0.00154129
5960.01478271,0.00153002
5961.94359009,0.00153693
5963.87239746,0.00150065
5965.80120483,0.00151852
5967.73001221,0.00151534
5969.65881958,0.00147656
5971.58762695,0.00150178
5973.51643433,0.00150832
5975.44524170,0.00150826
5977.37404907,0.00153120
5979.30285645,0.00155278
5981.23166382,0.00153400
5983.16047119,0.00153169
5985.08927856,0.00149730
5987.01808594,0.00146847
5988.94689331,0.00149237
5990.87570068,0.00146739
5992.80450806,0.00144445
5994.73331543,0.00149381
5996.66212280,0.00152355
5998.59093018,0.00148211
6000.51973755,0.00151667
