399.26312622,0.00046972
401.19193359,0.00047261
403.12074097,0.00083374
405.04954834,0.00049921
406.97835571,0.00020346
408.90716309,0.00037210
410.83597046,0.00044804
412.76477783,0.00045827
414.69358521,0.00070252
416.62239258,0.00033075
418.55119995,0.00002105
420.48000732,0.00053352
422.40881470,0.00021952
424.33762207,0.00035303
426.26642944,0.00077839
428.19523682,0.00027500
430.12404419,0.00022072
432.05285156,0.00050531
433.98165894,0.00067207
435.91046631,0.00037637
437.83927368,0.00040651
439.76808105,0.00036532
441.69688843,0.00014310
443.62569580,0.00035377
445.55450317,-0.00015052
447.48331055,0.00032701
449.41211792,0.00070658
451.34092529,-0.00010142
453.26973267,0.00016318
455.19854004,0.00034845
457.12734741,0.00015746
459.05615479,-0.00002722
460.98496216,-0.00018600
462.91376953,0.00012010
464.84257690,0.00032498
466.77138428,0.00039141
468.70019165,-0.00001676
470.62899902,-0.00015599
472.55780640,0.00035897
474.48661377,0.00019766
476.41542114,-0.00006936
478.34422852,0.00039314
480.27303589,0.00062060
482.20184326,0.00037644
484.13065063,0.00007952
486.05945801,-0.00010069
487.98826538,0.00031155
489.91707275,0.00050286
491.84588013,0.00015250
493.77468750,0.00014989
495.70349487,0.00030498
497.63230225,0.00016826
499.56110962,-0.00001588
501.48991699,0.00014527
503.41872437,0.00035408
505.34753174,0.00030193
507.27633911,0.00001062
509.20514648,0.00006821
511.13395386,0.00019446
513.06276123,0.00005043
514.99156860,0.00031429
516.92037598,0.00004210
518.84918335,0.00000233
520.77799072,0.00051000
522.70679810,0.00029195
524.63560547,0.00028899
526.56441284,0.00010970
528.49322021,0.00019519
530.42202759,0.00083580
532.35083496,0.00064090
534.27964233,0.00030101
536.20844971,0.00025957
538.13725708,0.00022798
540.06606445,0.00008330
541.99487183,0.00016403
543.92367920,0.00042002
545.85248657,0.00017384
547.78129395,0.00011025
549.71010132,0.00033022
551.63890869,0.00015962
553.56771606,0.00022856
555.49652344,0.00029119
557.42533081,-0.00013237
559.35413818,0.00024768
561.28294556,0.00034378
563.21175293,-0.00007689
565.14056030,0.00007461
567.06936768,0.00006579
568.99817505,0.00019401
570.92698242,0.00034528
572.85578979,0.00041216
574.78459717,0.00036635
576.71340454,0.00034949
578.64221191,0.00024342
580.57101929,0.00007527
582.49982666,0.00041295
584.42863403,0.00036744
586.35744141,0.00048335
588.28624878,0.00030821
590.21505615,0.00017376
592.14386353,0.00055910
594.07267090,0.00017142
596.00147827,0.00016488
597.93028564,0.00019055
599.85909302,0.00023388
601.78790039,0.00022722
603.71670776,-0.00007729
605.64551514,0.00016043
607.57432251,0.00026395
609.50312988,0.00044506
611.43193726,0.00023848
613.36074463,0.00023505
615.28955200,0.00055363
617.21835938,0.00032324
619.14716675,0.00038635
621.07597412,0.00038397
623.00478149,0.00038417
624.93358887,0.00030517
626.86239624,0.00021338
628.79120361,0.00038784
630.72001099,0.00040911
632.64881836,0.00014639
634.57762573,0.00030284
636.50643311,0.00066812
638.43524048,0.00022833
640.36404785,0.00039650
642.29285522,0.00051844
644.22166260,0.00025607
646.15046997,0.00049210
648.07927734,0.00055910
650.00808472,0.00063063
651.93689209,0.00028581
653.86569946,0.00044535
655.79450684,0.00073397
657.72331421,0.00047133
659.65212158,0.00081141
661.58092896,0.00070872
663.50973633,0.00068968
665.43854370,0.00079097
667.36735107,0.00051798
669.29615845,0.00075162
671.22496582,0.00069428
673.15377319,0.00057822
675.08258057,0.00081129
677.01138794,0.00093167
678.94019531,0.00078705
680.86900269,0.00081181
682.79781006,0.00089480
684.72661743,0.00058862
686.65542480,0.00080836
688.58423218,0.00090621
690.51303955,0.00082021
692.44184692,0.00091629
694.37065430,0.00066271
696.29946167,0.00107266
698.22826904,0.00122748
700.15707642,0.00107143
702.08588379,0.00137575
704.01469116,0.00123718
705.94349854,0.00116601
707.87230591,0.00077237
709.80111328,0.00037079
711.72992065,0.00056456
713.65872803,0.00041071
715.58753540,0.00025151
717.51634277,0.00020637
719.44515015,0.00019813
721.37395752,0.00030475
723.30276489,-0.00021356
725.23157227,-0.00001432
727.16037964,0.00036147
729.08918701,0.00019844
731.01799438,0.00022043
732.94680176,0.00022864
734.87560913,0.00024708
736.80441650,0.00004752
738.73322388,0.00030767
740.66203125,0.00009690
742.59083862,-0.00018721
744.51964600,0.00011352
746.44845337,0.00025350
748.37726074,0.00044217
750.30606812,0.00004439
752.23487549,0.00013699
754.16368286,0.00043679
756.09249023,0.00031393
758.02129761,0.00018693
759.95010498,0.00022466
761.87891235,0.00076761
763.80771973,0.00021234
765.73652710,0.00013490
767.66533447,0.00065660
769.59414185,0.00022274
771.52294922,0.00042911
773.45175659,0.00052957
775.38056396,0.00013329
777.30937134,0.00015590
779.23817871,0.00030691
781.16698608,0.00046109
783.09579346,0.00051058
785.02460083,0.00029545
786.95340820,0.00039324
788.88221558,0.00038473
790.81102295,0.00016352
792.73983032,0.00030861
794.66863770,-0.00002312
796.59744507,-0.00001459
798.52625244,0.00032698
800.45505981,0.00024659
802.38386719,0.00026016
804.31267456,0.00012288
806.24148193,0.00008731
808.17028931,0.00015998
810.09909668,0.00029161
812.02790405,0.00021219
813.95671143,0.00020269
815.88551880,0.00044018
817.81432617,0.00026790
819.74313354,0.00020279
821.67194092,0.00031915
823.60074829,0.00032391
825.52955566,0.00024737
827.45836304,0.00040439
829.38717041,0.00029202
831.31597778,0.00011703
833.24478516,0.00023666
835.17359253,0.00008739
837.10239990,0.00024821
839.03120728,0.00037781
840.96001465,0.00052589
842.88882202,0.00032292
844.81762939,0.00014129
846.74643677,0.00029328
848.67524414,0.00005665
850.60405151,0.00051869
852.53285889,0.00044467
854.46166626,0.00009772
856.39047363,0.00018297
858.31928101,0.00013020
860.24808838,0.00037125
862.17689575,0.00030441
864.10570313,0.00051044
866.03451050,0.00044132
867.96331787,0.00025541
869.89212524,0.00032926
871.82093262,0.00037088
873.74973999,0.00046791
875.67854736,0.00027496
877.60735474,0.00063264
879.53616211,0.00036366
881.46496948,0.00021876
883.39377686,0.00032748
885.32258423,-0.00009851
887.25139160,0.00052287
889.18019897,0.00057776
891.10900635,0.00035817
893.03781372,0.00047189
894.96662109,0.00046584
896.89542847,0.00048311
898.82423584,0.00018142
900.75304321,0.00039490
902.68185059,0.00036730
904.61065796,0.00024365
906.53946533,0.00032108
908.46827271,0.00029335
910.39708008,0.00042617
912.32588745,0.00043164
914.25469482,0.00034203
916.18350220,0.00018125
918.11230957,0.00034021
920.04111694,0.00051165
921.96992432,0.00053455
923.89873169,0.00041631
925.82753906,0.00048263
927.75634644,0.00064561
929.68515381,0.00040814
931.61396118,0.00044958
933.54276855,0.00042673
935.47157593,0.00067411
937.40038330,0.00087572
939.32919067,0.00064089
941.25799805,0.00062995
943.18680542,0.00065062
945.11561279,0.00089914
947.04442017,0.00076814
948.97322754,0.00049454
950.90203491,0.00051028
952.83084229,0.00069199
954.75964966,0.00074714
956.68845703,0.00042110
958.61726440,0.00055839
960.54607178,0.00074616
962.47487915,0.00083131
964.40368652,0.00070169
966.33249390,0.00044553
968.26130127,0.00068322
970.19010864,0.00086285
972.11891602,0.00079218
974.04772339,0.00072062
975.97653076,0.00076322
977.90533813,0.00077223
979.83414551,0.00088163
981.76295288,0.00089492
983.69176025,0.00106993
985.62056763,0.00135191
987.54937500,0.00125484
989.47818237,0.00149453
991.40698975,0.00157327
993.33579712,0.00148452
995.26460449,0.00165354
997.19341187,0.00187047
999.12221924,0.00201749
1001.05102661,0.00196962
1002.97983398,0.00211537
1004.90864136,0.00227207
1006.83744873,0.00245163
1008.76625610,0.00261378
1010.69506348,0.00284257
1012.62387085,0.00290891
1014.55267822,0.00295374
1016.48148560,0.00330877
1018.41029297,0.00329200
1020.33910034,0.00363507
1022.26790771,0.00378125
1024.19671509,0.00372894
1026.12552246,0.00407773
1028.05432983,0.00393686
1029.98313721,0.00411189
1031.91194458,0.00435416
1033.84075195,0.00449478
1035.76955933,0.00462042
1037.69836670,0.00454419
1039.62717407,0.00464311
1041.55598145,0.00441756
1043.48478882,0.00440452
1045.41359619,0.00444532
1047.34240356,0.00432173
1049.27121094,0.00435667
1051.20001831,0.00415979
1053.12882568,0.00428658
1055.05763306,0.00438243
1056.98644043,0.00404425
1058.91524780,0.00407130
1060.84405518,0.00393624
1062.77286255,0.00363371
1064.70166992,0.00388615
1066.63047729,0.00377830
1068.55928467,0.00355238
1070.48809204,0.00348452
1072.41689941,0.00306595
1074.34570679,0.00292339
1076.27451416,0.00293783
1078.20332153,0.00283533
1080.13212891,0.00266436
1082.06093628,0.00262434
1083.98974365,0.00245313
1085.91855103,0.00233896
1087.84735840,0.00240082
1089.77616577,0.00207583
1091.70497314,0.00216429
1093.63378052,0.00202905
1095.56258789,0.00188382
1097.49139526,0.00212378
1099.42020264,0.00189930
1101.34901001,0.00188346
1103.27781738,0.00179898
1105.20662476,0.00193105
1107.13543213,0.00191122
1109.06423950,0.00157268
1110.99304687,0.00174396
1112.92185425,0.00177901
1114.85066162,0.00182900
1116.77946899,0.00191029
1118.70827637,0.00197095
1120.63708374,0.00183188
1122.56589111,0.00186479
1124.49469849,0.00199807
1126.42350586,0.00166473
1128.35231323,0.00185527
1130.28112061,0.00195565
1132.20992798,0.00194988
1134.13873535,0.00208535
1136.06754272,0.00203883
1137.99635010,0.00221476
1139.92515747,0.00241100
1141.85396484,0.00263015
1143.78277222,0.00248850
1145.71157959,0.00273345
1147.64038696,0.00301914
1149.56919434,0.00281416
1151.49800171,0.00316913
1153.42680908,0.00324623
1155.35561646,0.00327637
1157.28442383,0.00341638
1159.21323120,0.00348680
1161.14203857,0.00377465
1163.07084595,0.00379823
1164.99965332,0.00400697
1166.92846069,0.00408946
1168.85726807,0.00418346
1170.78607544,0.00452417
1172.71488281,0.00459699
1174.64369019,0.00483394
1176.57249756,0.00506376
1178.50130493,0.00517870
1180.43011230,0.00528945
1182.35891968,0.00538435
1184.28772705,0.00570394
1186.21653442,0.00610215
1188.14534180,0.00638411
1190.07414917,0.00654804
1192.00295654,0.00686424
1193.93176392,0.00713181
1195.86057129,0.00735484
1197.78937866,0.00794420
1199.71818604,0.00826787
1201.64699341,0.00850669
1203.57580078,0.00898980
1205.50460815,0.00918194
1207.43341553,0.00954753
1209.36222290,0.00991939
1211.29103027,0.01011426
1213.21983765,0.01049092
1215.14864502,0.01072379
1217.07745239,0.01103178
1219.00625977,0.01120555
1220.93506714,0.01128236
1222.86387451,0.01164986
1224.79268188,0.01164758
1226.72148926,0.01152190
1228.65029663,0.01166758
1230.57910400,0.01190279
1232.50791138,0.01195630
1234.43671875,0.01165836
1236.36552612,0.01168945
1238.29433350,0.01176951
1240.22314087,0.01186835
1242.15194824,0.01203642
1244.08075562,0.01164951
1246.00956299,0.01170000
1247.93837036,0.01169160
1249.86717773,0.01145671
1251.79598511,0.01175714
1253.72479248,0.01159188
1255.65359985,0.01136410
1257.58240723,0.01119410
1259.51121460,0.01103799
1261.44002197,0.01085901
1263.36882935,0.01060242
1265.29763672,0.01072291
1267.22644409,0.01047534
1269.15525146,0.01037017
1271.08405884,0.01028736
1273.01286621,0.01021359
1274.94167358,0.01016829
1276.87048096,0.00960571
1278.79928833,0.00942971
1280.72809570,0.00919424
1282.65690308,0.00923337
1284.58571045,0.00908528
1286.51451782,0.00870802
1288.44332520,0.00887989
1290.37213257,0.00868465
1292.30093994,0.00894525
1294.22974731,0.00875322
1296.15855469,0.00839134
1298.08736206,0.00877430
1300.01616943,0.00863708
1301.94497681,0.00864390
1303.87378418,0.00862750
1305.80259155,0.00865328
1307.73139893,0.00901597
1309.66020630,0.00922224
1311.58901367,0.00924256
1313.51782104,0.00946994
1315.44662842,0.00993277
1317.37543579,0.00996349
1319.30424316,0.01020987
1321.23305054,0.01054547
1323.16185791,0.01074821
1325.09066528,0.01112991
1327.01947266,0.01150089
1328.94828003,0.01182322
1330.87708740,0.01197717
1332.80589478,0.01237556
1334.73470215,0.01260503
1336.66350952,0.01256479
1338.59231689,0.01255516
1340.52112427,0.01277921
1342.44993164,0.01326574
1344.37873901,0.01336635
1346.30754639,0.01337435
1348.23635376,0.01323752
1350.16516113,0.01330493
1352.09396851,0.01327846
1354.02277588,0.01285077
1355.95158325,0.01302843
1357.88039062,0.01296324
1359.80919800,0.01257529
1361.73800537,0.01216689
1363.66681274,0.01206578
1365.59562012,0.01265017
1367.52442749,0.01241581
1369.45323486,0.01211632
1371.38204224,0.01237755
1373.31084961,0.01208368
1375.23965698,0.01183420
1377.16846436,0.01205256
1379.09727173,0.01224680
1381.02607910,0.01205093
1382.95488647,0.01221288
1384.88369385,0.01224402
1386.81250122,0.01146638
1388.74130859,0.01192601
1390.67011597,0.01287084
1392.59892334,0.01240842
1394.52773071,0.01188577
1396.45653809,0.01222654
1398.38534546,0.01223327
1400.31415283,0.01241265
1402.24296021,0.01307490
1404.17176758,0.01240112
1406.10057495,0.01253853
1408.02938232,0.01305129
1409.95818970,0.01261199
1411.88699707,0.01288818
1413.81580444,0.01253422
1415.74461182,0.01242811
1417.67341919,0.01139956
1419.60222656,0.01048225
1421.53103394,0.01175353
1423.45984131,0.01141032
1425.38864868,0.01112290
1427.31745605,0.01135724
1429.24626343,0.01063167
1431.17507080,0.01026246
1433.10387817,0.01045156
1435.03268555,0.00970092
1436.96149292,0.00837202
1438.89030029,0.00942132
1440.81910767,0.00947438
1442.74791504,0.00892553
1444.67672241,0.00936363
1446.60552979,0.00839311
1448.53433716,0.00869286
1450.46314453,0.00906150
1452.39195190,0.00927918
1454.32075928,0.00954591
1456.24956665,0.00791971
1458.17837402,0.00855724
1460.10718140,0.01093951
1462.03598877,0.01150916
1463.96479614,0.01160409
1465.89360352,0.01205686
1467.82241089,0.01372663
1469.75121826,0.01445110
1471.68002563,0.01277174
1473.60883301,0.01365016
1475.53764038,0.01544208
1477.46644775,0.01663637
1479.39525513,0.01833005
1481.32406250,0.01840597
1483.25286987,0.01958477
1485.18167725,0.02009141
1487.11048462,0.01972995
1489.03929199,0.01984871
1490.96809937,0.02000057
1492.89690674,0.02304519
1494.82571411,0.02227427
1496.75452148,0.02033093
1498.68332886,0.02292921
1500.61213623,0.02351657
1502.54094360,0.02528078
1504.46975098,0.02373433
1506.39855835,0.01790869
1508.32736572,0.02152798
1510.25617310,0.02479531
1512.18498047,0.02429575
1514.11378784,0.02605911
1516.04259521,0.02377001
1517.97140259,0.02485444
1519.90020996,0.02409208
1521.82901733,0.02125385
1523.75782471,0.02547662
1525.68663208,0.02487637
1527.61543945,0.02481839
1529.54424683,0.02739796
1531.47305420,0.02641641
1533.40186157,0.02445249
1535.33066895,0.02585892
1537.25947632,0.02744533
1539.18828369,0.01998152
1541.11709106,0.02099311
1543.04589844,0.02494537
1544.97470581,0.02393444
1546.90351318,0.02828258
1548.83232056,0.02638275
1550.76112793,0.02709628
1552.68993530,0.02702220
1554.61874268,0.02463973
1556.54755005,0.02632946
1558.47635742,0.01895417
1560.40516479,0.02075061
1562.33397217,0.02878145
1564.26277954,0.02687506
1566.19158691,0.02781715
1568.12039429,0.02759198
1570.04920166,0.02456314
1571.97800903,0.02813746
1573.90681641,0.02826028
1575.83562378,0.02290807
1577.76443115,0.02579485
1579.69323853,0.02871205
1581.62204590,0.02777651
1583.55085327,0.02845666
1585.47966064,0.02791646
1587.40846802,0.02822199
1589.33727539,0.02808553
1591.26608276,0.02824025
1593.19489014,0.02819425
1595.12369751,0.02781417
1597.05250488,0.02825254
1598.98131226,0.02816565
1600.91011963,0.02843172
1602.83892700,0.02786958
1604.76773437,0.02828496
1606.69654175,0.02793678
1608.62534912,0.02790080
1610.55415649,0.02782248
1612.48296387,0.02795226
1614.41177124,0.02824439
1616.34057861,0.02348529
1618.26938599,0.02561294
1620.19819336,0.02928057
1622.12700073,0.02605911
1624.05580811,0.02639200
1625.98461548,0.02765268
1627.91342285,0.02744126
1629.84223022,0.02747368
1631.77103760,0.02931302
1633.69984497,0.02677216
1635.62865234,0.02259419
1637.55745972,0.02624346
1639.48626709,0.02846290
1641.41507446,0.02805064
1643.34388184,0.02876088
1645.27268921,0.02582938
1647.20149658,0.02305791
1649.13030396,0.02846289
1651.05911133,0.02661245
1652.98791870,0.01772995
1654.91672607,0.02406860
1656.84553345,0.02932749
1658.77434082,0.02807562
1660.70314819,0.02900571
1662.63195557,0.02636599
1664.56076294,0.02801477
1666.48957031,0.03006756
1668.41837769,0.02621592
1670.34718506,0.02573429
1672.27599243,0.02880716
1674.20479980,0.02644563
1676.13360718,0.02582359
1678.06241455,0.02941853
1679.99122192,0.02838123
1681.92002930,0.02810628
1683.84883667,0.02304271
1685.77764404,0.02323373
1687.70645142,0.03086824
1689.63525879,0.02690840
1691.56406616,0.02979477
1693.49287354,0.03000842
1695.42168091,0.02242733
1697.35048828,0.02748539
1699.27929565,0.02422635
1701.20810303,0.02215828
1703.13691040,0.02955963
1705.06571777,0.02703504
1706.99452515,0.02738417
1708.92333252,0.02970186
1710.85213989,0.02838973
1712.78094727,0.02895356
1714.70975464,0.02708481
1716.63856201,0.02436059
1718.56736938,0.02418401
1720.49617676,0.02861019
1722.42498413,0.02943372
1724.35379150,0.02731302
1726.28259888,0.02954493
1728.21140625,0.02744627
1730.14021362,0.02785946
1732.06902100,0.02690552
1733.99782837,0.02096546
1735.92663574,0.02590415
1737.85544312,0.02813042
1739.78425049,0.02551431
1741.71305786,0.02760649
1743.64186523,0.02789147
1745.57067261,0.02826871
1747.49947998,0.02821290
1749.42828735,0.02709063
1751.35709473,0.02610392
1753.28590210,0.02871659
1755.21470947,0.02998463
1757.14351685,0.02742742
1759.07232422,0.02998848
1761.00113159,0.02812247
1762.92993896,0.02745762
1764.85874634,0.03114646
1766.78755371,0.02807948
1768.71636108,0.02861556
1770.64516846,0.02821507
1772.57397583,0.02571580
1774.50278320,0.02859552
1776.43159058,0.02974850
1778.36039795,0.02950978
1780.28920532,0.02912968
1782.21801270,0.02937414
1784.14682007,0.02953775
1786.07562744,0.02894004
1788.00443481,0.03032850
1789.93324219,0.02958617
1791.86204956,0.02704223
1793.79085693,0.02826918
1795.71966431,0.03015730
1797.64847168,0.02979558
1799.57727905,0.02937632
1801.50608643,0.02892723
1803.43489380,0.02979976
1805.36370117,0.03041151
1807.29250854,0.03016600
1809.22131592,0.03013460
1811.15012329,0.02934613
1813.07893066,0.03030043
1815.00773804,0.03047360
1816.93654541,0.03041486
1818.86535278,0.03051417
1820.79416016,0.03026672
1822.72296753,0.03067695
1824.65177490,0.02877088
1826.58058228,0.02997336
1828.50938965,0.02984861
1830.43819702,0.02821320
1832.36700439,0.03067655
1834.29581177,0.03025089
1836.22461914,0.03038331
1838.15342651,0.03034052
1840.08223389,0.03039428
1842.01104126,0.03040829
1843.93984863,0.02726674
1845.86865601,0.02907099
1847.79746338,0.03060495
1849.72627075,0.02997620
1851.65507812,0.03081471
1853.58388550,0.03026813
1855.51269287,0.03038071
1857.44150024,0.03019770
1859.37030762,0.03018829
1861.29911499,0.03040680
1863.22792236,0.03001866
1865.15672974,0.03032531
1867.08553711,0.02955555
1869.01434448,0.02843018
1870.94315186,0.02949796
1872.87195923,0.03057468
1874.80076660,0.03003713
1876.72957397,0.03019637
1878.65838135,0.03012456
1880.58718872,0.03006308
1882.51599609,0.03015195
1884.44480347,0.02965125
1886.37361084,0.03021421
1888.30241821,0.02943966
1890.23122559,0.02901028
1892.16003296,0.03003816
1894.08884033,0.02956078
1896.01764771,0.02964217
1897.94645508,0.02995024
1899.87526245,0.02986997
1901.80406982,0.02992277
1903.73287720,0.02974415
1905.66168457,0.03007194
1907.59049194,0.02975801
1909.51929932,0.02944802
1911.44810669,0.02946995
1913.37691406,0.02960450
1915.30572144,0.02996878
1917.23452881,0.02864266
1919.16333618,0.02876455
1921.09214355,0.02981138
1923.02095093,0.02887794
1924.94975830,0.02934685
1926.87856567,0.02968289
1928.80737305,0.02946308
1930.73618042,0.02978796
1932.66498779,0.02956539
1934.59379517,0.02977904
1936.52260254,0.02954360
1938.45140991,0.02967769
1940.38021729,0.02951156
1942.30902466,0.02872538
1944.23783203,0.02938080
1946.16663940,0.02972646
1948.09544678,0.02967916
1950.02425415,0.02970362
1951.95306152,0.02953914
1953.88186890,0.02949552
1955.81067627,0.02938406
1957.73948364,0.02955334
1959.66829102,0.02960300
1961.59709839,0.02956810
1963.52590576,0.02974684
1965.45471313,0.02952065
1967.38352051,0.02915096
1969.31232788,0.02947533
1971.24113525,0.02959549
1973.16994263,0.02944227
1975.09875000,0.02959536
1977.02755737,0.02943132
1978.95636475,0.02946584
1980.88517212,0.02945288
1982.81397949,0.02933585
1984.74278687,0.02948887
1986.67159424,0.02938052
1988.60040161,0.02936598
1990.52920898,0.02910972
1992.45801636,0.02874741
1994.38682373,0.02918029
1996.31563110,0.02935824
1998.24443848,0.02909377
2000.17324585,0.02921102
2002.10205322,0.02906821
2004.03086060,0.02911137
2005.95966797,0.02915903
2007.88847534,0.02899079
2009.81728271,0.02916334
2011.74609009,0.02881792
2013.67489746,0.02894300
2015.60370483,0.02890829
2017.53251221,0.02849571
2019.46131958,0.02889957
2021.39012695,0.02871788
2023.31893433,0.02868495
2025.24774170,0.02871403
2027.17654907,0.02849789
2029.10535645,0.02856704
2031.03416382,0.02841008
2032.96297119,0.02852722
2034.89177856,0.02841318
2036.82058594,0.02836168
2038.74939331,0.02848270
2040.67820068,0.02828841
2042.60700806,0.02824716
2044.53581543,0.02818894
2046.46462280,0.02820090
2048.39343018,0.02818626
2050.32223755,0.02816017
2052.25104492,0.02816765
2054.17985229,0.02799911
2056.10865967,0.02791173
2058.03746704,0.02794439
2059.96627441,0.02788334
2061.89508179,0.02785757
2063.82388916,0.02778945
2065.75269653,0.02763745
2067.68150391,0.02776646
2069.61031128,0.02776475
2071.53911865,0.02771052
2073.46792603,0.02775328
2075.39673340,0.02760259
2077.32554077,0.02751059
2079.25434814,0.02749227
2081.18315552,0.02752034
2083.11196289,0.02745157
2085.04077026,0.02743876
2086.96957764,0.02747812
2088.89838501,0.02738351
2090.82719238,0.02735125
2092.75599976,0.02734334
2094.68480713,0.02725824
2096.61361450,0.02727747
2098.54242187,0.02735969
2100.47122925,0.02716586
2102.40003662,0.02723121
2104.32884399,0.02733086
2106.25765137,0.02715897
2108.18645874,0.02710437
2110.11526611,0.02705778
2112.04407349,0.02704293
2113.97288086,0.02687333
2115.90168823,0.02691968
2117.83049561,0.02689735
2119.75930298,0.02696880
2121.68811035,0.02714091
2123.61691772,0.02683781
2125.54572510,0.02697501
2127.47453247,0.02694557
2129.40333984,0.02688327
2131.33214722,0.02690132
2133.26095459,0.02677779
2135.18976196,0.02692517
2137.11856934,0.02667398
2139.04737671,0.02671746
2140.97618408,0.02671357
2142.90499146,0.02660280
2144.83379883,0.02666963
2146.76260620,0.02665811
2148.69141357,0.02680588
2150.62022095,0.02653470
2152.54902832,0.02660771
2154.47783569,0.02663297
2156.40664307,0.02644447
2158.33545044,0.02658767
2160.26425781,0.02656009
2162.19306519,0.02663914
2164.12187256,0.02649012
2166.05067993,0.02641936
2167.97948730,0.02642277
2169.90829468,0.02632066
2171.83710205,0.02637945
2173.76590942,0.02638396
2175.69471680,0.02645218
2177.62352417,0.02641874
2179.55233154,0.02641692
2181.48113892,0.02638577
2183.40994629,0.02641359
2185.33875366,0.02640750
2187.26756104,0.02628388
2189.19636841,0.02632114
2191.12517578,0.02621800
2193.05398315,0.02629496
2194.98279053,0.02636151
2196.91159790,0.02618475
2198.84040527,0.02614237
2200.76921265,0.02621349
2202.69802002,0.02619086
2204.62682739,0.02612619
2206.55563477,0.02622033
2208.48444214,0.02624288
2210.41324951,0.02628534
2212.34205688,0.02621002
2214.27086426,0.02610838
2216.19967163,0.02614432
2218.12847900,0.02603100
2220.05728638,0.02602284
2221.98609375,0.02607732
2223.91490112,0.02604001
2225.84370850,0.02596465
2227.77251587,0.02598297
2229.70132324,0.02589126
2231.63013062,0.02577941
2233.55893799,0.02593474
2235.48774536,0.02590144
2237.41655273,0.02581991
2239.34536011,0.02583041
2241.27416748,0.02579091
2243.20297485,0.02582785
2245.13178223,0.02589468
2247.06058960,0.02576957
2248.98939697,0.02567941
2250.91820435,0.02578277
2252.84701172,0.02558340
2254.77581909,0.02541882
2256.70462646,0.02546810
2258.63343384,0.02548075
2260.56224121,0.02557148
2262.49104858,0.02559378
2264.41985596,0.02553338
2266.34866333,0.02549767
2268.27747070,0.02555727
2270.20627808,0.02547487
2272.13508545,0.02530441
2274.06389282,0.02540594
2275.99270020,0.02549330
2277.92150757,0.02542816
2279.85031494,0.02546834
2281.77912231,0.02540632
2283.70792969,0.02531778
2285.63673706,0.02541304
2287.56554443,0.02527822
2289.49435181,0.02522738
2291.42315918,0.02531532
2293.35196655,0.02528222
2295.28077393,0.02525724
2297.20958130,0.02506888
2299.13838867,0.02493781
2301.06719604,0.02484801
2302.99600342,0.02475706
2304.92481079,0.02461808
2306.85361816,0.02447898
2308.78242554,0.02438319
2310.71123291,0.02415268
2312.64004028,0.02410260
2314.56884766,0.02384725
2316.49765503,0.02345737
2318.42646240,0.02327080
2320.35526978,0.02300366
2322.28407715,0.02273398
2324.21288452,0.02248553
2326.14169189,0.02225327
2328.07049927,0.02196618
2329.99930664,0.02178312
2331.92811401,0.02161665
2333.85692139,0.02147618
2335.78572876,0.02144680
2337.71453613,0.02141016
2339.64334351,0.02145668
2341.57215088,0.02155313
2343.50095825,0.02190828
2345.42976562,0.02221528
2347.35857300,0.02297078
2349.28738037,0.02381090
2351.21618774,0.02308257
2353.14499512,0.02190522
2355.07380249,0.02120885
2357.00260986,0.02059187
2358.93141724,0.02013657
2360.86022461,0.01998343
2362.78903198,0.02004176
2364.71783936,0.02018956
2366.64664673,0.02049969
2368.57545410,0.02080680
2370.50426147,0.02121888
2372.43306885,0.02171168
2374.36187622,0.02240911
2376.29068359,0.02311243
2378.21949097,0.02341143
2380.14829834,0.02376136
2382.07710571,0.02410857
2384.00591309,0.02429820
2385.93472046,0.02437632
2387.86352783,0.02439297
2389.79233521,0.02431217
2391.72114258,0.02426551
2393.64994995,0.02442696
2395.57875732,0.02439358
2397.50756470,0.02434912
2399.43637207,0.02434127
2401.36517944,0.02424484
2403.29398682,0.02425358
2405.22279419,0.02427607
2407.15160156,0.02421082
2409.08040894,0.02409497
2411.00921631,0.02409766
2412.93802368,0.02414720
2414.86683105,0.02421266
2416.79563843,0.02413834
2418.72444580,0.02394727
2420.65325317,0.02401949
2422.58206055,0.02406243
2424.51086792,0.02392055
2426.43967529,0.02397239
2428.36848267,0.02399214
2430.29729004,0.02385292
2432.22609741,0.02396209
2434.15490479,0.02396824
2436.08371216,0.02389344
2438.01251953,0.02392734
2439.94132690,0.02381015
2441.87013428,0.02380214
2443.79894165,0.02374814
2445.72774902,0.02375797
2447.65655640,0.02384614
2449.58536377,0.02370001
2451.51417114,0.02365656
2453.44297852,0.02375090
2455.37178589,0.02378301
2457.30059326,0.02367374
2459.22940063,0.02357492
2461.15820801,0.02353659
2463.08701538,0.02346658
2465.01582275,0.02349775
2466.94463013,0.02368776
2468.87343750,0.02359097
2470.80224487,0.02340975
2472.73105225,0.02364212
2474.65985962,0.02359226
2476.58866699,0.02358061
2478.51747437,0.02358174
2480.44628174,0.02330890
2482.37508911,0.02352248
2484.30389648,0.02355956
2486.23270386,0.02343933
2488.16151123,0.02341667
2490.09031860,0.02334935
2492.01912598,0.02344096
2493.94793335,0.02330454
2495.87674072,0.02336982
2497.80554810,0.02342569
2499.73435547,0.02319776
2501.66316284,0.02327524
2503.59197021,0.02324698
2505.52077759,0.02309680
2507.44958496,0.02319389
2509.37839233,0.02315454
2511.30719971,0.02301162
2513.23600708,0.02316760
2515.16481445,0.02319663
2517.09362183,0.02300269
2519.02242920,0.02307745
2520.95123657,0.02310256
2522.88004395,0.02308899
2524.80885132,0.02318243
2526.73765869,0.02296384
2528.66646606,0.02288536
2530.59527344,0.02298239
2532.52408081,0.02292959
2534.45288818,0.02301670
2536.38169556,0.02290850
2538.31050293,0.02285531
2540.23931030,0.02292687
2542.16811768,0.02281709
2544.09692505,0.02286386
2546.02573242,0.02280612
2547.95453979,0.02282393
2549.88334717,0.02286701
2551.81215454,0.02270084
2553.74096191,0.02273892
2555.66976929,0.02274634
2557.59857666,0.02265866
2559.52738403,0.02268381
2561.45619141,0.02267098
2563.38499878,0.02258067
2565.31380615,0.02255273
2567.24261353,0.02248555
2569.17142090,0.02250963
2571.10022827,0.02255606
2573.02903564,0.02253486
2574.95784302,0.02262938
2576.88665039,0.02243276
2578.81545776,0.02242512
2580.74426514,0.02253163
2582.67307251,0.02235414
2584.60187988,0.02242950
2586.53068726,0.02245667
2588.45949463,0.02245787
2590.38830200,0.02237934
2592.31710937,0.02230950
2594.24591675,0.02240569
2596.17472412,0.02230176
2598.10353149,0.02223312
2600.03233887,0.02226400
2601.96114624,0.02229680
2603.88995361,0.02219697
2605.81876099,0.02217759
2607.74756836,0.02220774
2609.67637573,0.02214357
2611.60518311,0.02219566
2613.53399048,0.02215932
2615.46279785,0.02215491
2617.39160522,0.02204701
2619.32041260,0.02196047
2621.24921997,0.02209543
2623.17802734,0.02207248
2625.10683472,0.02195607
2627.03564209,0.02195892
2628.96444946,0.02203191
2630.89325684,0.02191617
2632.82206421,0.02180936
2634.75087158,0.02184523
2636.67967895,0.02201265
2638.60848633,0.02201821
2640.53729370,0.02179810
2642.46610107,0.02180322
2644.39490845,0.02172408
2646.32371582,0.02176017
2648.25252319,0.02180459
2650.18133057,0.02169411
2652.11013794,0.02176559
2654.03894531,0.02170246
2655.96775269,0.02163956
2657.89656006,0.02164621
2659.82536743,0.02168159
2661.75417480,0.02164380
2663.68298218,0.02158342
2665.61178955,0.02161337
2667.54059692,0.02157282
2669.46940430,0.02157440
2671.39821167,0.02159715
2673.32701904,0.02163405
2675.25582642,0.02144208
2677.18463379,0.02144937
2679.11344116,0.02153153
2681.04224854,0.02128809
2682.97105591,0.02143242
2684.89986328,0.02140800
2686.82867065,0.02132197
2688.75747803,0.02149086
2690.68628540,0.02136692
2692.61509277,0.02120935
2694.54390015,0.02114643
2696.47270752,0.02123397
2698.40151489,0.02122682
2700.33032227,0.02118888
2702.25912964,0.02120491
2704.18793701,0.02108777
2706.11674438,0.02112000
2708.04555176,0.02116336
2709.97435913,0.02111382
2711.90316650,0.02106092
2713.83197388,0.02101304
2715.76078125,0.02093209
2717.68958862,0.02092331
2719.61839600,0.02104154
2721.54720337,0.02101259
2723.47601074,0.02093697
2725.40481812,0.02090157
2727.33362549,0.02083697
2729.26243286,0.02082789
2731.19124023,0.02086228
2733.12004761,0.02086439
2735.04885498,0.02083654
2736.97766235,0.02077328
2738.90646973,0.02076422
2740.83527710,0.02083137
2742.76408447,0.02078087
2744.69289185,0.02064451
2746.62169922,0.02060446
2748.55050659,0.02066984
2750.47931396,0.02059858
2752.40812134,0.02061505
2754.33692871,0.02067984
2756.26573608,0.02048713
2758.19454346,0.02048270
2760.12335083,0.02047106
2762.05215820,0.02045767
2763.98096558,0.02053054
2765.90977295,0.02040230
2767.83858032,0.02036637
2769.76738770,0.02032980
2771.69619507,0.02036165
2773.62500244,0.02036165
2775.55380981,0.02026301
2777.48261719,0.02034838
2779.41142456,0.02030605
2781.34023193,0.02020158
2783.26903931,0.02025156
2785.19784668,0.02025438
2787.12665405,0.02009661
2789.05546143,0.02009352
2790.98426880,0.02009590
2792.91307617,0.01997703
2794.84188354,0.02012574
2796.77069092,0.02005954
2798.69949829,0.01988613
2800.62830566,0.01999091
2802.55711304,0.01994765
2804.48592041,0.01988468
2806.41472778,0.01990571
2808.34353516,0.01980495
2810.27234253,0.01977177
2812.20114990,0.01985263
2814.12995728,0.01976795
2816.05876465,0.01969581
2817.98757202,0.01966002
2819.91637939,0.01960085
2821.84518677,0.01971464
2823.77399414,0.01969112
2825.70280151,0.01956342
2827.63160889,0.01952328
2829.56041626,0.01950867
2831.48922363,0.01948481
2833.41803101,0.01944547
2835.34683838,0.01947265
2837.27564575,0.01934444
2839.20445312,0.01925415
2841.13326050,0.01926504
2843.06206787,0.01918183
2844.99087524,0.01916820
2846.91968262,0.01898944
2848.84848999,0.01890481
2850.77729736,0.01902537
2852.70610474,0.01893555
2854.63491211,0.01895125
2856.56371948,0.01897611
2858.49252686,0.01882545
2860.42133423,0.01884869
2862.35014160,0.01883392
2864.27894897,0.01872004
2866.20775635,0.01883423
2868.13656372,0.01886236
2870.06537109,0.01871694
2871.99417847,0.01871937
2873.92298584,0.01868861
2875.85179321,0.01863614
2877.78060059,0.01862990
2879.70940796,0.01856660
2881.63821533,0.01852339
2883.56702270,0.01855782
2885.49583008,0.01864393
2887.42463745,0.01850339
2889.35344482,0.01837741
2891.28225220,0.01848328
2893.21105957,0.01846164
2895.13986694,0.01840414
2897.06867432,0.01838068
2898.99748169,0.01839543
2900.92628906,0.01839497
2902.85509644,0.01826546
2904.78390381,0.01820060
2906.71271118,0.01822230
2908.64151855,0.01814177
2910.57032593,0.01804497
2912.49913330,0.01804843
2914.42794067,0.01791316
2916.35674805,0.01792921
2918.28555542,0.01793753
2920.21436279,0.01771544
2922.14317017,0.01781115
2924.07197754,0.01779312
2926.00078491,0.01772100
2927.92959229,0.01772534
2929.85839966,0.01764844
2931.78720703,0.01775911
2933.71601440,0.01770500
2935.64482178,0.01775325
2937.57362915,0.01781467
2939.50243652,0.01771033
2941.43124390,0.01775246
2943.36005127,0.01772699
2945.28885864,0.01768163
2947.21766602,0.01761942
2949.14647339,0.01765268
2951.07528076,0.01760869
2953.00408813,0.01753621
2954.93289551,0.01760334
2956.86170288,0.01749159
2958.79051025,0.01741046
2960.71931763,0.01737870
2962.64812500,0.01742172
2964.57693237,0.01737729
2966.50573975,0.01731606
2968.43454712,0.01739205
2970.36335449,0.01731504
2972.29216187,0.01737602
2974.22096924,0.01738057
2976.14977661,0.01743750
2978.07858398,0.01747874
2980.00739136,0.01731391
2981.93619873,0.01744543
2983.86500610,0.01737737
2985.79381348,0.01733784
2987.72262085,0.01746955
2989.65142822,0.01735311
2991.58023560,0.01735713
2993.50904297,0.01731292
2995.43785034,0.01728547
2997.36665771,0.01730827
2999.29546509,0.01729545
3001.22427246,0.01736521
3003.15307983,0.01727070
3005.08188721,0.01724075
3007.01069458,0.01716818
3008.93950195,0.01696135
3010.86830933,0.01703480
3012.79711670,0.01701848
3014.72592407,0.01693901
3016.65473145,0.01706626
3018.58353882,0.01701740
3020.51234619,0.01694275
3022.44115356,0.01693827
3024.36996094,0.01684118
3026.29876831,0.01687416
3028.22757568,0.01689364
3030.15638306,0.01676571
3032.08519043,0.01680056
3034.01399780,0.01675935
3035.94280518,0.01659483
3037.87161255,0.01676225
3039.80041992,0.01670159
3041.72922729,0.01648519
3043.65803467,0.01666407
3045.58684204,0.01660629
3047.51564941,0.01651681
3049.44445679,0.01657307
3051.37326416,0.01650188
3053.30207153,0.01655694
3055.23087891,0.01644885
3057.15968628,0.01635087
3059.08849365,0.01644649
3061.01730103,0.01635046
3062.94610840,0.01632155
3064.87491577,0.01640220
3066.80372314,0.01626639
3068.73253052,0.01613748
3070.66133789,0.01629931
3072.59014526,0.01636240
3074.51895264,0.01614869
3076.44776001,0.01609783
3078.37656738,0.01614426
3080.30537476,0.01610740
3082.23418213,0.01605817
3084.16298950,0.01598329
3086.09179687,0.01605510
3088.02060425,0.01608996
3089.94941162,0.01596510
3091.87821899,0.01595208
3093.80702637,0.01590914
3095.73583374,0.01587618
3097.66464111,0.01590717
3099.59344849,0.01585019
3101.52225586,0.01578747
3103.45106323,0.01571369
3105.37987061,0.01574108
3107.30867798,0.01574438
3109.23748535,0.01568037
3111.16629272,0.01574535
3113.09510010,0.01562020
3115.02390747,0.01552549
3116.95271484,0.01562065
3118.88152222,0.01551881
3120.81032959,0.01548018
3122.73913696,0.01548377
3124.66794434,0.01540986
3126.59675171,0.01542340
3128.52555908,0.01543472
3130.45436645,0.01542835
3132.38317383,0.01527313
3134.31198120,0.01523057
3136.24078857,0.01536848
3138.16959595,0.01524517
3140.09840332,0.01510115
3142.02721069,0.01511227
3143.95601807,0.01512950
3145.88482544,0.01509435
3147.81363281,0.01508821
3149.74244019,0.01507455
3151.67124756,0.01493571
3153.60005493,0.01493411
3155.52886230,0.01495843
3157.45766968,0.01484043
3159.38647705,0.01477119
3161.31528442,0.01479200
3163.24409180,0.01476902
3165.17289917,0.01469031
3167.10170654,0.01469028
3169.03051392,0.01464096
3170.95932129,0.01463385
3172.88812866,0.01467373
3174.81693604,0.01456179
3176.74574341,0.01448019
3178.67455078,0.01448499
3180.60335815,0.01450277
3182.53216553,0.01442217
3184.46097290,0.01428046
3186.38978027,0.01430048
3188.31858765,0.01432707
3190.24739502,0.01426351
3192.17620239,0.01428805
3194.10500977,0.01425286
3196.03381714,0.01422029
3197.96262451,0.01420182
3199.89143188,0.01410761
3201.82023926,0.01426151
3203.74904663,0.01425474
3205.67785400,0.01410296
3207.60666138,0.01404936
3209.53546875,0.01392712
3211.46427612,0.01405779
3213.39308350,0.01399157
3215.32189087,0.01389719
3217.25069824,0.01402978
3219.17950562,0.01386441
3221.10831299,0.01379605
3223.03712036,0.01388900
3224.96592773,0.01384198
3226.89473511,0.01373292
3228.82354248,0.01376283
3230.75234985,0.01378225
3232.68115723,0.01371687
3234.60996460,0.01372009
3236.53877197,0.01369075
3238.46757935,0.01371089
3240.39638672,0.01368138
3242.32519409,0.01365282
3244.25400146,0.01358271
3246.18280884,0.01355296
3248.11161621,0.01369061
3250.04042358,0.01363312
3251.96923096,0.01359998
3253.89803833,0.01358556
3255.82684570,0.01353169
3257.75565308,0.01357628
3259.68446045,0.01354311
3261.61326782,0.01351733
3263.54207520,0.01359588
3265.47088257,0.01354724
3267.39968994,0.01339892
3269.32849731,0.01344131
3271.25730469,0.01338411
3273.18611206,0.01336557
3275.11491943,0.01342015
3277.04372681,0.01337166
3278.97253418,0.01344703
3280.90134155,0.01338014
3282.83014893,0.01337213
3284.75895630,0.01343463
3286.68776367,0.01342401
3288.61657104,0.01338009
3290.54537842,0.01325355
3292.47418579,0.01326559
3294.40299316,0.01333164
3296.33180054,0.01337404
3298.26060791,0.01323109
3300.18941528,0.01322509
3302.11822266,0.01332789
3304.04703003,0.01326657
3305.97583740,0.01330841
3307.90464478,0.01323421
3309.83345215,0.01319592
3311.76225952,0.01319932
3313.69106689,0.01321147
3315.61987427,0.01319544
3317.54868164,0.01312361
3319.47748901,0.01316609
3321.40629639,0.01306053
3323.33510376,0.01304519
3325.26391113,0.01303875
3327.19271851,0.01301430
3329.12152588,0.01306339
3331.05033325,0.01303644
3332.97914062,0.01305253
3334.90794800,0.01297796
3336.83675537,0.01295348
3338.76556274,0.01299291
3340.69437012,0.01301581
3342.62317749,0.01296564
3344.55198486,0.01292172
3346.48079224,0.01292137
3348.40959961,0.01288178
3350.33840698,0.01292226
3352.26721436,0.01287298
3354.19602173,0.01285635
3356.12482910,0.01281432
3358.05363647,0.01283112
3359.98244385,0.01282250
3361.91125122,0.01265639
3363.84005859,0.01274825
3365.76886597,0.01274993
3367.69767334,0.01266095
3369.62648071,0.01266609
3371.55528809,0.01270845
3373.48409546,0.01268519
3375.41290283,0.01262220
3377.34171020,0.01259413
3379.27051758,0.01247133
3381.19932495,0.01252823
3383.12813232,0.01255708
3385.05693970,0.01256994
3386.98574707,0.01252940
3388.91455444,0.01245270
3390.84336182,0.01242638
3392.77216919,0.01235223
3394.70097656,0.01245849
3396.62978394,0.01230884
3398.55859131,0.01239389
3400.48739868,0.01244429
3402.41620605,0.01219912
3404.34501343,0.01235990
3406.27382080,0.01229621
3408.20262817,0.01228069
3410.13143555,0.01226590
3412.06024292,0.01216744
3413.98905029,0.01224703
3415.91785767,0.01221296
3417.84666504,0.01216518
3419.77547241,0.01208524
3421.70427979,0.01213622
3423.63308716,0.01205437
3425.56189453,0.01200159
3427.49070190,0.01209709
3429.41950928,0.01213310
3431.34831665,0.01211145
3433.27712402,0.01200564
3435.20593140,0.01202946
3437.13473877,0.01191581
3439.06354614,0.01200793
3440.99235352,0.01194039
3442.92116089,0.01177438
3444.84996826,0.01198730
3446.77877563,0.01174926
3448.70758301,0.01178013
3450.63639038,0.01198433
3452.56519775,0.01182767
3454.49400513,0.01190537
3456.42281250,0.01190270
3458.35161987,0.01178864
3460.28042725,0.01182331
3462.20923462,0.01175240
3464.13804199,0.01160518
3466.06684937,0.01169688
3467.99565674,0.01174146
3469.92446411,0.01174064
3471.85327148,0.01171830
3473.78207886,0.01163318
3475.71088623,0.01178301
3477.63969360,0.01174376
3479.56850098,0.01154135
3481.49730835,0.01155116
3483.42611572,0.01160025
3485.35492310,0.01161444
3487.28373047,0.01164546
3489.21253784,0.01157665
3491.14134521,0.01157502
3493.07015259,0.01160402
3494.99895996,0.01151950
3496.92776733,0.01157099
3498.85657471,0.01154521
3500.78538208,0.01159335
3502.71418945,0.01148392
3504.64299683,0.01139818
3506.57180420,0.01158480
3508.50061157,0.01137653
3510.42941895,0.01144608
3512.35822632,0.01154376
3514.28703369,0.01150171
3516.21584106,0.01164353
3518.14464844,0.01155221
3520.07345581,0.01157672
3522.00226318,0.01151525
3523.93107056,0.01138646
3525.85987793,0.01136936
3527.78868530,0.01139413
3529.71749268,0.01136550
3531.64630005,0.01144917
3533.57510742,0.01163138
3535.50391479,0.01131929
3537.43272217,0.01133268
3539.36152954,0.01159068
3541.29033691,0.01145910
3543.21914429,0.01141617
3545.14795166,0.01122590
3547.07675903,0.01106641
3549.00556641,0.01137538
3550.93437378,0.01138010
3552.86318115,0.01112997
3554.79198853,0.01140767
3556.72079590,0.01151081
3558.64960327,0.01143227
3560.57841064,0.01135205
3562.50721802,0.01124145
3564.43602539,0.01131767
3566.36483276,0.01068962
3568.29364014,0.01041105
3570.22244751,0.01123066
3572.15125488,0.01153504
3574.08006226,0.01134155
3576.00886963,0.01143368
3577.93767700,0.01144311
3579.86648437,0.01130114
3581.79529175,0.01131777
3583.72409912,0.01144485
3585.65290649,0.01113283
3587.58171387,0.01030462
3589.51052124,0.01064380
3591.43932861,0.01140557
3593.36813599,0.01111556
3595.29694336,0.01097757
3597.22575073,0.01112146
3599.15455811,0.01121218
3601.08336548,0.01114464
3603.01217285,0.01124277
3604.94098022,0.01146118
3606.86978760,0.01102622
3608.79859497,0.01039963
3610.72740234,0.01069602
3612.65620972,0.01086809
3614.58501709,0.01059335
3616.51382446,0.01125160
3618.44263184,0.01042670
3620.37143921,0.01023868
3622.30024658,0.01135188
3624.22905395,0.01101232
3626.15786133,0.01156579
3628.08666870,0.00991487
3630.01547607,0.00912357
3631.94428345,0.01126600
3633.87309082,0.01093096
3635.80189819,0.01109617
3637.73070557,0.01137751
3639.65951294,0.01121571
3641.58832031,0.01129248
3643.51712769,0.01119613
3645.44593506,0.01126614
3647.37474243,0.01010119
3649.30354980,0.00937088
3651.23235718,0.00957483
3653.16116455,0.01119512
3655.08997192,0.01103280
3657.01877930,0.00997297
3658.94758667,0.01140427
3660.87639404,0.01115888
3662.80520142,0.01119633
3664.73400879,0.01110543
3666.66281616,0.01107243
3668.59162354,0.01074840
3670.52043091,0.00896696
3672.44923828,0.01088192
3674.37804565,0.01016008
3676.30685303,0.00852980
3678.23566040,0.01070685
3680.16446777,0.01079682
3682.09327515,0.01090209
3684.02208252,0.01113584
3685.95088989,0.01094674
3687.87969727,0.00999784
3689.80850464,0.00915362
3691.73731201,0.01038136
3693.66611938,0.01064568
3695.59492676,0.01097162
3697.52373413,0.01103000
3699.45254150,0.01087225
3701.38134888,0.01062431
3703.31015625,0.01028428
3705.23896362,0.01117073
3707.16777100,0.01056145
3709.09657837,0.01037343
3711.02538574,0.00980054
3712.95419312,0.00923823
3714.88300049,0.01070043
3716.81180786,0.01060564
3718.74061523,0.01075052
3720.66942261,0.01044962
3722.59822998,0.01015297
3724.52703735,0.01037852
3726.45584473,0.00966194
3728.38465210,0.01056665
3730.31345947,0.01045605
3732.24226685,0.00964636
3734.17107422,0.00929855
3736.09988159,0.00892642
3738.02868896,0.00951214
3739.95749634,0.01027686
3741.88630371,0.01065102
3743.81511108,0.00835926
3745.74391846,0.00801242
3747.67272583,0.01009584
3749.60153320,0.00879975
3751.53034058,0.00814154
3753.45914795,0.00928372
3755.38795532,0.01006881
3757.31676270,0.01032774
3759.24557007,0.00961356
3761.17437744,0.00993259
3763.10318481,0.01048323
3765.03199219,0.00982088
3766.96079956,0.00999891
3768.88960693,0.00993757
3770.81841431,0.00946513
3772.74722168,0.01018503
3774.67602905,0.01023057
3776.60483643,0.01021892
3778.53364380,0.00996275
3780.46245117,0.00964439
3782.39125854,0.01019567
3784.32006592,0.00994711
3786.24887329,0.00994689
3788.17768066,0.01014260
3790.10648804,0.01014210
3792.03529541,0.01001487
3793.96410278,0.01010742
3795.89291016,0.00967628
3797.82171753,0.00953694
3799.75052490,0.00993497
3801.67933228,0.00812435
3803.60813965,0.00935265
3805.53694702,0.00997873
3807.46575439,0.00838339
3809.39456177,0.00997337
3811.32336914,0.00971650
3813.25217651,0.01003868
3815.18098389,0.00906450
3817.10979126,0.00808103
3819.03859863,0.00996948
3820.96740601,0.00818462
3822.89621338,0.00869412
3824.82502075,0.00993413
3826.75382812,0.00907645
3828.68263550,0.00979057
3830.61144287,0.00932540
3832.54025024,0.00900607
3834.46905762,0.00925014
3836.39786499,0.00881365
3838.32667236,0.00807015
3840.25547974,0.00867870
3842.18428711,0.00923149
3844.11309448,0.00891533
3846.04190186,0.00962333
3847.97070923,0.00940664
3849.89951660,0.00937879
3851.82832397,0.00858786
3853.75713135,0.00662774
3855.68593872,0.00766096
3857.61474609,0.00947119
3859.54355347,0.00921708
3861.47236084,0.00912829
3863.40116821,0.00893109
3865.32997559,0.00838407
3867.25878296,0.00934038
3869.18759033,0.00844549
3871.11639770,0.00789520
3873.04520508,0.00931967
3874.97401245,0.00857168
3876.90281982,0.00922812
3878.83162720,0.00934062
3880.76043457,0.00813901
3882.68924194,0.00928551
3884.61804932,0.00864307
3886.54685669,0.00808490
3888.47566406,0.00931579
3890.40447144,0.00873723
3892.33327881,0.00838565
3894.26208618,0.00910377
3896.19089355,0.00907266
3898.11970093,0.00871339
3900.04850830,0.00835114
3901.97731567,0.00829199
3903.90612305,0.00819689
3905.83493042,0.00827884
3907.76373779,0.00903961
3909.69254517,0.00903394
3911.62135254,0.00890554
3913.55015991,0.00907638
3915.47896728,0.00874704
3917.40777466,0.00850025
3919.33658203,0.00860015
3921.26538940,0.00885094
3923.19419678,0.00873870
3925.12300415,0.00867939
3927.05181152,0.00874911
3928.98061890,0.00876705
3930.90942627,0.00867971
3932.83823364,0.00837936
3934.76704102,0.00858750
3936.69584839,0.00869103
3938.62465576,0.00868010
3940.55346313,0.00877399
3942.48227051,0.00845952
3944.41107788,0.00846737
3946.33988525,0.00868760
3948.26869263,0.00846886
3950.19750000,0.00837875
3952.12630737,0.00858048
3954.05511475,0.00860612
3955.98392212,0.00859838
3957.91272949,0.00845633
3959.84153687,0.00846070
3961.77034424,0.00855615
3963.69915161,0.00835827
3965.62795898,0.00843854
3967.55676636,0.00852757
3969.48557373,0.00846230
3971.41438110,0.00839463
3973.34318848,0.00835044
3975.27199585,0.00835314
3977.20080322,0.00835637
3979.12961060,0.00838566
3981.05841797,0.00834155
3982.98722534,0.00843203
3984.91603271,0.00832741
3986.84484009,0.00828492
3988.77364746,0.00837130
3990.70245483,0.00826500
3992.63126221,0.00825751
3994.56006958,0.00818609
3996.48887695,0.00823721
3998.41768433,0.00818044
4000.34649170,0.00812893
4002.27529907,0.00823395
4004.20410645,0.00816861
4006.13291382,0.00815734
4008.06172119,0.00810934
4009.99052856,0.00810831
4011.91933594,0.00810555
4013.84814331,0.00806002
4015.77695068,0.00806122
4017.70575806,0.00812105
4019.63456543,0.00802981
4021.56337280,0.00796902
4023.49218018,0.00812317
4025.42098755,0.00800862
4027.34979492,0.00802568
4029.27860229,0.00798731
4031.20740967,0.00793311
4033.13621704,0.00798461
4035.06502441,0.00787551
4036.99383179,0.00794780
4038.92263916,0.00786138
4040.85144653,0.00792363
4042.78025391,0.00789258
4044.70906128,0.00776893
4046.63786865,0.00785432
4048.56667603,0.00769474
4050.49548340,0.00778912
4052.42429077,0.00783160
4054.35309814,0.00776141
4056.28190552,0.00776705
4058.21071289,0.00772326
4060.13952026,0.00776413
4062.06832764,0.00770941
4063.99713501,0.00773286
4065.92594238,0.00772312
4067.85474976,0.00767699
4069.78355713,0.00770354
4071.71236450,0.00764828
4073.64117187,0.00751815
4075.56997925,0.00756352
4077.49878662,0.00759876
4079.42759399,0.00751838
4081.35640137,0.00760473
4083.28520874,0.00748561
4085.21401611,0.00748841
4087.14282349,0.00756921
4089.07163086,0.00742575
4091.00043823,0.00739030
4092.92924561,0.00737468
4094.85805298,0.00744444
4096.78686035,0.00742381
4098.71566772,0.00740764
4100.64447510,0.00742641
4102.57328247,0.00736333
4104.50208984,0.00731025
4106.43089722,0.00733499
4108.35970459,0.00740700
4110.28851196,0.00724209
4112.21731934,0.00723489
4114.14612671,0.00727064
4116.07493408,0.00723391
4118.00374145,0.00728458
4119.93254883,0.00721880
4121.86135620,0.00725255
4123.79016357,0.00722260
4125.71897095,0.00710315
4127.64777832,0.00711732
4129.57658569,0.00717130
4131.50539307,0.00712812
4133.43420044,0.00716584
4135.36300781,0.00710444
4137.29181519,0.00701753
4139.22062256,0.00720140
4141.14942993,0.00707630
4143.07823730,0.00706430
4145.00704468,0.00711666
4146.93585205,0.00700971
4148.86465942,0.00706730
4150.79346680,0.00696708
4152.72227417,0.00702902
4154.65108154,0.00702486
4156.57988892,0.00697773
4158.50869629,0.00695076
4160.43750366,0.00687030
4162.36631103,0.00702390
4164.29511841,0.00688920
4166.22392578,0.00685140
4168.15273315,0.00693413
4170.08154053,0.00683504
4172.01034790,0.00687548
4173.93915527,0.00687647
4175.86796265,0.00686403
4177.79677002,0.00681414
4179.72557739,0.00679591
4181.65438477,0.00680666
4183.58319214,0.00675730
4185.51199951,0.00676973
4187.44080688,0.00674854
4189.36961426,0.00674788
4191.29842163,0.00676423
4193.22722900,0.00667981
4195.15603638,0.00666140
4197.08484375,0.00667123
4199.01365112,0.00658929
4200.94245850,0.00670614
4202.87126587,0.00678135
4204.80007324,0.00660030
4206.72888062,0.00655395
4208.65768799,0.00654032
4210.58649536,0.00651569
4212.51530273,0.00657510
4214.44411011,0.00655468
4216.37291748,0.00649800
4218.30172485,0.00647641
4220.23053223,0.00652876
4222.15933960,0.00655059
4224.08814697,0.00643027
4226.01695435,0.00643788
4227.94576172,0.00644693
4229.87456909,0.00638681
4231.80337646,0.00641321
4233.73218384,0.00638908
4235.66099121,0.00651090
4237.58979858,0.00646575
4239.51860596,0.00630688
4241.44741333,0.00634168
4243.37622070,0.00628697
4245.30502808,0.00637240
4247.23383545,0.00633412
4249.16264282,0.00626655
4251.09145020,0.00630244
4253.02025757,0.00615916
4254.94906494,0.00618646
4256.87787231,0.00624833
4258.80667969,0.00623583
4260.73548706,0.00619660
4262.66429443,0.00621138
4264.59310181,0.00620092
4266.52190918,0.00613011
4268.45071655,0.00619134
4270.37952393,0.00619012
4272.30833130,0.00617505
4274.23713867,0.00608435
4276.16594604,0.00605788
4278.09475342,0.00608258
4280.02356079,0.00606677
4281.95236816,0.00611378
4283.88117554,0.00600531
4285.80998291,0.00601575
4287.73879028,0.00602941
4289.66759766,0.00598909
4291.59640503,0.00603325
4293.52521240,0.00604326
4295.45401978,0.00600538
4297.38282715,0.00585994
4299.31163452,0.00588794
4301.24044189,0.00590436
4303.16924927,0.00589943
4305.09805664,0.00593065
4307.02686401,0.00588958
4308.95567139,0.00592676
4310.88447876,0.00586075
4312.81328613,0.00585541
4314.74209351,0.00586037
4316.67090088,0.00585250
4318.59970825,0.00583285
4320.52851562,0.00576102
4322.45732300,0.00584962
4324.38613037,0.00578750
4326.31493774,0.00573811
4328.24374512,0.00575662
4330.17255249,0.00572584
4332.10135986,0.00579797
4334.03016724,0.00573487
4335.95897461,0.00567610
4337.88778198,0.00571294
4339.81658936,0.00569392
4341.74539673,0.00566651
4343.67420410,0.00567341
4345.60301147,0.00560504
4347.53181885,0.00551032
4349.46062622,0.00561543
4351.38943359,0.00563896
4353.31824097,0.00557481
4355.24704834,0.00560725
4357.17585571,0.00550902
4359.10466309,0.00547414
4361.03347046,0.00552732
4362.96227783,0.00552263
4364.89108520,0.00555142
4366.81989258,0.00548517
4368.74869995,0.00547713
4370.67750732,0.00544120
4372.60631470,0.00533011
4374.53512207,0.00546549
4376.46392944,0.00551621
4378.39273682,0.00545233
4380.32154419,0.00544271
4382.25035156,0.00538978
4384.17915894,0.00539930
4386.10796631,0.00534183
4388.03677368,0.00529591
4389.96558105,0.00537045
4391.89438843,0.00532113
4393.82319580,0.00528988
4395.75200317,0.00533042
4397.68081055,0.00524069
4399.60961792,0.00522496
4401.53842529,0.00526512
4403.46723267,0.00526992
4405.39604004,0.00523612
4407.32484741,0.00515231
4409.25365478,0.00523536
4411.18246216,0.00517333
4413.11126953,0.00510583
4415.04007690,0.00525740
4416.96888428,0.00521485
4418.89769165,0.00514635
4420.82649902,0.00509720
4422.75530640,0.00505497
4424.68411377,0.00509467
4426.61292114,0.00511205
4428.54172852,0.00509468
4430.47053589,0.00511240
4432.39934326,0.00510658
4434.32815063,0.00495724
4436.25695801,0.00504432
4438.18576538,0.00514560
4440.11457275,0.00504027
4442.04338013,0.00503415
4443.97218750,0.00498638
4445.90099487,0.00496882
4447.82980225,0.00499560
4449.75860962,0.00498512
4451.68741699,0.00496113
4453.61622437,0.00497910
4455.54503174,0.00498547
4457.47383911,0.00494783
4459.40264648,0.00493922
4461.33145386,0.00484504
4463.26026123,0.00488622
4465.18906860,0.00489024
4467.11787598,0.00481694
4469.04668335,0.00487427
4470.97549072,0.00481866
4472.90429810,0.00483020
4474.83310547,0.00480206
4476.76191284,0.00477379
4478.69072021,0.00485953
4480.61952759,0.00479723
4482.54833496,0.00478963
4484.47714233,0.00478908
4486.40594971,0.00474251
4488.33475708,0.00472924
4490.26356445,0.00472106
4492.19237183,0.00478818
4494.12117920,0.00477299
4496.04998657,0.00469609
4497.97879395,0.00470668
4499.90760132,0.00470010
4501.83640869,0.00464985
4503.76521606,0.00468846
4505.69402344,0.00469831
4507.62283081,0.00460126
4509.55163818,0.00466162
4511.48044556,0.00465678
4513.40925293,0.00454524
4515.33806030,0.00467582
4517.26686768,0.00465099
4519.19567505,0.00456438
4521.12448242,0.00465612
4523.05328979,0.00454969
4524.98209717,0.00447905
4526.91090454,0.00451549
4528.83971191,0.00448904
4530.76851929,0.00445141
4532.69732666,0.00445524
4534.62613403,0.00450326
4536.55494141,0.00438092
4538.48374878,0.00438292
4540.41255615,0.00451316
4542.34136353,0.00440240
4544.27017090,0.00442819
4546.19897827,0.00450377
4548.12778564,0.00441069
4550.05659302,0.00442864
4551.98540039,0.00435211
4553.91420776,0.00426532
4555.84301514,0.00430333
4557.77182251,0.00429898
4559.70062988,0.00436477
4561.62943726,0.00432947
4563.55824463,0.00433361
4565.48705200,0.00436755
4567.41585937,0.00429436
4569.34466675,0.00433549
4571.27347412,0.00429439
4573.20228149,0.00430256
4575.13108887,0.00424410
4577.05989624,0.00415342
4578.98870361,0.00425501
4580.91751099,0.00423391
4582.84631836,0.00423051
4584.77512573,0.00425338
4586.70393311,0.00428102
4588.63274048,0.00419582
4590.56154785,0.00414140
4592.49035522,0.00422082
4594.41916260,0.00408443
4596.34796997,0.00407612
4598.27677734,0.00414268
4600.20558472,0.00415902
4602.13439209,0.00411921
4604.06319946,0.00406565
4605.99200684,0.00413657
4607.92081421,0.00409459
4609.84962158,0.00411424
4611.77842895,0.00407581
4613.70723633,0.00402928
4615.63604370,0.00408336
4617.56485107,0.00403795
4619.49365845,0.00404179
4621.42246582,0.00403722
4623.35127319,0.00395307
4625.28008057,0.00392776
4627.20888794,0.00405895
4629.13769531,0.00399785
4631.06650269,0.00390449
4632.99531006,0.00400035
4634.92411743,0.00397580
4636.85292480,0.00394548
4638.78173218,0.00395620
4640.71053955,0.00399486
4642.63934692,0.00387903
4644.56815430,0.00387316
4646.49696167,0.00398927
4648.42576904,0.00386611
4650.35457642,0.00384152
4652.28338379,0.00384548
4654.21219116,0.00383551
4656.14099853,0.00378655
4658.06980591,0.00382282
4659.99861328,0.00385650
4661.92742065,0.00376902
4663.85622803,0.00385915
4665.78503540,0.00375697
4667.71384277,0.00372728
4669.64265015,0.00378774
4671.57145752,0.00372891
4673.50026489,0.00377536
4675.42907227,0.00372287
4677.35787964,0.00373148
4679.28668701,0.00377697
4681.21549438,0.00379356
4683.14430176,0.00372110
4685.07310913,0.00369537
4687.00191650,0.00376124
4688.93072388,0.00366200
4690.85953125,0.00367555
4692.78833862,0.00364914
4694.71714600,0.00359289
4696.64595337,0.00365448
4698.57476074,0.00363985
4700.50356812,0.00362260
4702.43237549,0.00364976
4704.36118286,0.00364882
4706.28999023,0.00358257
4708.21879761,0.00360218
4710.14760498,0.00363710
4712.07641235,0.00362274
4714.00521973,0.00354226
4715.93402710,0.00349505
4717.86283447,0.00359147
4719.79164185,0.00358204
4721.72044922,0.00352979
4723.64925659,0.00349804
4725.57806396,0.00351381
4727.50687134,0.00353524
4729.43567871,0.00349568
4731.36448608,0.00350771
4733.29329346,0.00354405
4735.22210083,0.00353782
4737.15090820,0.00341249
4739.07971558,0.00342721
4741.00852295,0.00349459
4742.93733032,0.00340335
4744.86613770,0.00341029
4746.79494507,0.00343312
4748.72375244,0.00342442
4750.65255981,0.00344956
4752.58136719,0.00339905
4754.51017456,0.00333778
4756.43898193,0.00340859
4758.36778931,0.00339967
4760.29659668,0.00333822
4762.22540405,0.00342164
4764.15421143,0.00341203
4766.08301880,0.00336289
4768.01182617,0.00335718
4769.94063354,0.00331221
4771.86944092,0.00330082
4773.79824829,0.00332218
4775.72705566,0.00328169
4777.65586304,0.00324295
4779.58467041,0.00326434
4781.51347778,0.00324567
4783.44228516,0.00329918
4785.37109253,0.00331075
4787.29989990,0.00325806
4789.22870728,0.00326362
4791.15751465,0.00322835
4793.08632202,0.00321096
4795.01512939,0.00319107
4796.94393677,0.00323547
4798.87274414,0.00322243
4800.80155151,0.00315701
4802.73035889,0.00321512
4804.65916626,0.00321053
4806.58797363,0.00319873
4808.51678101,0.00315801
4810.44558838,0.00311908
4812.37439575,0.00316224
4814.30320312,0.00315238
4816.23201050,0.00312757
4818.16081787,0.00310829
4820.08962524,0.00309528
4822.01843262,0.00310091
4823.94723999,0.00311013
4825.87604736,0.00304952
4827.80485474,0.00306524
4829.73366211,0.00317178
4831.66246948,0.00310896
4833.59127686,0.00307215
4835.52008423,0.00312519
4837.44889160,0.00310836
4839.37769897,0.00304546
4841.30650635,0.00300406
4843.23531372,0.00303229
4845.16412109,0.00305874
4847.09292847,0.00304479
4849.02173584,0.00296281
4850.95054321,0.00296230
4852.87935059,0.00299426
4854.80815796,0.00292289
4856.73696533,0.00298929
4858.66577270,0.00298430
4860.59458008,0.00291780
4862.52338745,0.00299636
4864.45219482,0.00294483
4866.38100220,0.00289084
4868.30980957,0.00287771
4870.23861694,0.00285556
4872.16742432,0.00288838
4874.09623169,0.00288621
4876.02503906,0.00287562
4877.95384644,0.00281761
4879.88265381,0.00282783
4881.81146118,0.00286150
4883.74026855,0.00280568
4885.66907593,0.00283071
4887.59788330,0.00292260
4889.52669067,0.00291586
4891.45549805,0.00283790
4893.38430542,0.00283775
4895.31311279,0.00281992
4897.24192017,0.00282924
4899.17072754,0.00277553
4901.09953491,0.00276360
4903.02834228,0.00287851
4904.95714966,0.00276587
4906.88595703,0.00282238
4908.81476440,0.00283253
4910.74357178,0.00271746
4912.67237915,0.00281942
4914.60118652,0.00266051
4916.52999390,0.00262788
4918.45880127,0.00278126
4920.38760864,0.00274404
4922.31641602,0.00267258
4924.24522339,0.00265230
4926.17403076,0.00271170
4928.10283813,0.00271297
4930.03164551,0.00272816
4931.96045288,0.00272944
4933.88926025,0.00272910
4935.81806763,0.00270133
4937.74687500,0.00265809
4939.67568237,0.00266558
4941.60448975,0.00256572
4943.53329712,0.00260555
4945.46210449,0.00264990
4947.39091187,0.00259289
4949.31971924,0.00263159
4951.24852661,0.00261505
4953.17733398,0.00262002
4955.10614136,0.00264526
4957.03494873,0.00256189
4958.96375610,0.00258939
4960.89256348,0.00266645
4962.82137085,0.00253373
4964.75017822,0.00258419
4966.67898560,0.00264970
4968.60779297,0.00249939
4970.53660034,0.00255686
4972.46540771,0.00258333
4974.39421509,0.00249936
4976.32302246,0.00251396
4978.25182983,0.00257796
4980.18063721,0.00251731
4982.10944458,0.00249731
4984.03825195,0.00256649
4985.96705933,0.00248057
4987.89586670,0.00246832
4989.82467407,0.00241423
4991.75348145,0.00242053
4993.68228882,0.00244750
4995.61109619,0.00241811
4997.53990356,0.00252831
4999.46871094,0.00246059
5001.39751831,0.00250161
5003.32632568,0.00250250
5005.25513306,0.00239087
5007.18394043,0.00241397
5009.11274780,0.00230789
5011.04155518,0.00234968
5012.97036255,0.00244504
5014.89916992,0.00239894
5016.82797729,0.00233559
5018.75678467,0.00239239
5020.68559204,0.00242551
5022.61439941,0.00232807
5024.54320679,0.00236672
5026.47201416,0.00233983
5028.40082153,0.00231936
5030.32962891,0.00233840
5032.25843628,0.00232043
5034.18724365,0.00237925
5036.11605103,0.00236345
5038.04485840,0.00231496
5039.97366577,0.00231151
5041.90247314,0.00233859
5043.83128052,0.00231474
5045.76008789,0.00231096
5047.68889526,0.00228676
5049.61770264,0.00224370
5051.54651001,0.00228433
5053.47531738,0.00226163
5055.40412476,0.00225486
5057.33293213,0.00224238
5059.26173950,0.00225044
5061.19054687,0.00227251
5063.11935425,0.00226631
5065.04816162,0.00222965
5066.97696899,0.00217328
5068.90577637,0.00225230
5070.83458374,0.00223488
5072.76339111,0.00221891
5074.69219849,0.00223205
5076.62100586,0.00220944
5078.54981323,0.00224192
5080.47862061,0.00214841
5082.40742798,0.00212511
5084.33623535,0.00213300
5086.26504272,0.00215012
5088.19385010,0.00213687
5090.12265747,0.00211344
5092.05146484,0.00221322
5093.98027222,0.00214346
5095.90907959,0.00216475
5097.83788696,0.00219484
5099.76669434,0.00215184
5101.69550171,0.00218406
5103.62430908,0.00207590
5105.55311645,0.00211116
5107.48192383,0.00212721
5109.41073120,0.00207987
5111.33953857,0.00211856
5113.26834595,0.00207588
5115.19715332,0.00212817
5117.12596069,0.00212036
5119.05476807,0.00206344
5120.98357544,0.00206538
5122.91238281,0.00202097
5124.84119019,0.00204994
5126.76999756,0.00207296
5128.69880493,0.00200386
5130.62761230,0.00198749
5132.55641968,0.00210508
5134.48522705,0.00210146
5136.41403442,0.00202878
5138.34284180,0.00208344
5140.27164917,0.00202880
5142.20045654,0.00198984
5144.12926392,0.00202841
5146.05807129,0.00195564
5147.98687866,0.00191211
5149.91568603,0.00201156
5151.84449341,0.00202736
5153.77330078,0.00195232
5155.70210815,0.00200187
5157.63091553,0.00193407
5159.55972290,0.00194044
5161.48853027,0.00201508
5163.41733765,0.00189885
5165.34614502,0.00193803
5167.27495239,0.00185431
5169.20375977,0.00182092
5171.13256714,0.00199298
5173.06137451,0.00191891
5174.99018188,0.00189235
5176.91898926,0.00192176
5178.84779663,0.00191801
5180.77660400,0.00190417
5182.70541138,0.00187188
5184.63421875,0.00188603
5186.56302612,0.00187994
5188.49183350,0.00189249
5190.42064087,0.00181181
5192.34944824,0.00179697
5194.27825562,0.00184961
5196.20706299,0.00182502
5198.13587036,0.00186689
5200.06467773,0.00184197
5201.99348511,0.00178236
5203.92229248,0.00181829
5205.85109985,0.00183229
5207.77990723,0.00174361
5209.70871460,0.00168531
5211.63752197,0.00173908
5213.56632935,0.00180948
5215.49513672,0.00178995
5217.42394409,0.00179627
5219.35275146,0.00184717
5221.28155884,0.00175759
5223.21036621,0.00179756
5225.13917358,0.00180110
5227.06798096,0.00171432
5228.99678833,0.00177936
5230.92559570,0.00174114
5232.85440308,0.00179133
5234.78321045,0.00181011
5236.71201782,0.00174686
5238.64082520,0.00176194
5240.56963257,0.00173623
5242.49843994,0.00171180
5244.42724731,0.00164987
5246.35605469,0.00172538
5248.28486206,0.00167125
5250.21366943,0.00165068
5252.14247681,0.00177472
5254.07128418,0.00161370
5256.00009155,0.00167049
5257.92889893,0.00175143
5259.85770630,0.00166734
5261.78651367,0.00167388
5263.71532104,0.00166689
5265.64412842,0.00169519
5267.57293579,0.00163277
5269.50174316,0.00165405
5271.43055054,0.00166108
5273.35935791,0.00163643
5275.28816528,0.00172907
5277.21697266,0.00169757
5279.14578003,0.00163597
5281.07458740,0.00159056
5283.00339478,0.00163420
5284.93220215,0.00160585
5286.86100952,0.00156367
5288.78981689,0.00166340
5290.71862427,0.00156959
5292.64743164,0.00151312
5294.57623901,0.00149958
5296.50504639,0.00154941
5298.43385376,0.00167961
5300.36266113,0.00156004
5302.29146851,0.00157755
5304.22027588,0.00163768
5306.14908325,0.00157146
5308.07789062,0.00161735
5310.00669800,0.00158709
5311.93550537,0.00156296
5313.86431274,0.00156785
5315.79312012,0.00150318
5317.72192749,0.00151487
5319.65073486,0.00163022
5321.57954224,0.00162797
5323.50834961,0.00151154
5325.43715698,0.00148894
5327.36596436,0.00147377
5329.29477173,0.00151508
5331.22357910,0.00147945
5333.15238647,0.00146591
5335.08119385,0.00160473
5337.01000122,0.00144816
5338.93880859,0.00138615
5340.86761597,0.00151648
5342.79642334,0.00150872
5344.72523071,0.00151613
5346.65403809,0.00149027
5348.58284546,0.00153313
5350.51165283,0.00149991
5352.44046020,0.00144358
5354.36926758,0.00146534
5356.29807495,0.00141709
5358.22688232,0.00146993
5360.15568970,0.00146714
5362.08449707,0.00147669
5364.01330444,0.00154194
5365.94211182,0.00149578
5367.87091919,0.00146822
5369.79972656,0.00149093
5371.72853394,0.00146490
5373.65734131,0.00136708
5375.58614868,0.00140626
5377.51495605,0.00139214
5379.44376343,0.00131094
5381.37257080,0.00136595
5383.30137817,0.00136500
5385.23018555,0.00131737
5387.15899292,0.00129168
5389.08780029,0.00135639
5391.01660767,0.00137672
5392.94541504,0.00138997
5394.87422241,0.00135886
5396.80302978,0.00128215
5398.73183716,0.00139025
5400.66064453,0.00134654
5402.58945190,0.00135981
5404.51825928,0.00140574
5406.44706665,0.00135486
5408.37587402,0.00137734
5410.30468140,0.00128745
5412.23348877,0.00136156
5414.16229614,0.00131283
5416.09110352,0.00130265
5418.01991089,0.00141045
5419.94871826,0.00126416
5421.87752563,0.00136207
5423.80633301,0.00135961
5425.73514038,0.00129057
5427.66394775,0.00131404
5429.59275513,0.00124868
5431.52156250,0.00134201
5433.45036987,0.00129098
5435.37917725,0.00122925
5437.30798462,0.00126417
5439.23679199,0.00127463
5441.16559936,0.00126919
5443.09440674,0.00125907
5445.02321411,0.00130448
5446.95202148,0.00124024
5448.88082886,0.00128543
5450.80963623,0.00131331
5452.73844360,0.00121196
5454.66725098,0.00124882
5456.59605835,0.00131527
5458.52486572,0.00133698
5460.45367310,0.00123223
5462.38248047,0.00115156
5464.31128784,0.00125635
5466.24009521,0.00130797
5468.16890259,0.00122102
5470.09770996,0.00123624
5472.02651733,0.00126620
5473.95532471,0.00119933
5475.88413208,0.00123968
5477.81293945,0.00125654
5479.74174683,0.00125516
5481.67055420,0.00123228
5483.59936157,0.00117432
5485.52816895,0.00123238
5487.45697632,0.00125392
5489.38578369,0.00124183
5491.31459106,0.00123184
5493.24339844,0.00117929
5495.17220581,0.00115377
5497.10101318,0.00119228
5499.02982056,0.00114632
5500.95862793,0.00110391
5502.88743530,0.00114639
5504.81624268,0.00109587
5506.74505005,0.00119740
5508.67385742,0.00123430
5510.60266479,0.00110413
5512.53147217,0.00113777
5514.46027954,0.00110184
5516.38908691,0.00109393
5518.31789429,0.00116901
5520.24670166,0.00113634
5522.17550903,0.00111954
5524.10431641,0.00117978
5526.03312378,0.00121075
5527.96193115,0.00118006
5529.89073853,0.00115321
5531.81954590,0.00113787
5533.74835327,0.00117041
5535.67716064,0.00115572
5537.60596802,0.00111233
5539.53477539,0.00112407
5541.46358276,0.00116535
5543.39239014,0.00114873
5545.32119751,0.00101413
5547.25000488,0.00108095
5549.17881226,0.00114041
5551.10761963,0.00101066
5553.03642700,0.00105557
5554.96523437,0.00108908
5556.89404175,0.00110443
5558.82284912,0.00115253
5560.75165649,0.00106145
5562.68046387,0.00104330
5564.60927124,0.00103460
5566.53807861,0.00099675
5568.46688599,0.00109016
5570.39569336,0.00107777
5572.32450073,0.00102209
5574.25330811,0.00110399
5576.18211548,0.00110962
5578.11092285,0.00103326
5580.03973022,0.00102544
5581.96853760,0.00104509
5583.89734497,0.00099035
5585.82615234,0.00098048
5587.75495972,0.00105549
5589.68376709,0.00110136
5591.61257446,0.00106319
5593.54138184,0.00098264
5595.47018921,0.00101342
5597.39899658,0.00100436
5599.32780395,0.00102132
5601.25661133,0.00105979
5603.18541870,0.00095096
5605.11422607,0.00100735
5607.04303345,0.00104261
5608.97184082,0.00099811
5610.90064819,0.00106448
5612.82945557,0.00103956
5614.75826294,0.00099590
5616.68707031,0.00096898
5618.61587769,0.00097924
5620.54468506,0.00102508
5622.47349243,0.00098894
5624.40229980,0.00094771
5626.33110718,0.00091843
5628.25991455,0.00091095
5630.18872192,0.00097157
5632.11752930,0.00094553
5634.04633667,0.00091126
5635.97514404,0.00098088
5637.90395142,0.00092752
5639.83275879,0.00091888
5641.76156616,0.00096655
5643.69037353,0.00092212
5645.61918091,0.00093871
5647.54798828,0.00093022
5649.47679565,0.00096316
5651.40560303,0.00096569
5653.33441040,0.00090618
5655.26321777,0.00094038
5657.19202515,0.00092695
5659.12083252,0.00092115
5661.04963989,0.00092447
5662.97844727,0.00090879
5664.90725464,0.00088646
5666.83606201,0.00085551
5668.76486938,0.00093886
5670.69367676,0.00094391
5672.62248413,0.00085200
5674.55129150,0.00088191
5676.48009888,0.00086159
5678.40890625,0.00079383
5680.33771362,0.00086845
5682.26652100,0.00091917
5684.19532837,0.00086703
5686.12413574,0.00088467
5688.05294311,0.00096710
5689.98175049,0.00090417
5691.91055786,0.00085431
5693.83936523,0.00087853
5695.76817261,0.00082318
5697.69697998,0.00093256
5699.62578735,0.00091229
5701.55459473,0.00084755
5703.48340210,0.00098567
5705.41220947,0.00082470
5707.34101685,0.00078073
5709.26982422,0.00087614
5711.19863159,0.00078961
5713.12743896,0.00084645
5715.05624634,0.00085303
5716.98505371,0.00080731
5718.91386108,0.00082493
5720.84266846,0.00083341
5722.77147583,0.00085790
5724.70028320,0.00085712
5726.62909058,0.00087281
5728.55789795,0.00085411
5730.48670532,0.00082828
5732.41551270,0.00085999
5734.34432007,0.00081429
5736.27312744,0.00080453
5738.20193481,0.00086350
5740.13074219,0.00079602
5742.05954956,0.00078537
5743.98835693,0.00084359
5745.91716431,0.00085344
5747.84597168,0.00085082
5749.77477905,0.00080762
5751.70358643,0.00079059
5753.63239380,0.00075752
5755.56120117,0.00076477
5757.49000854,0.00075041
5759.41881592,0.00070967
5761.34762329,0.00079104
5763.27643066,0.00083756
5765.20523804,0.00081616
5767.13404541,0.00076119
5769.06285278,0.00078169
5770.99166016,0.00076087
5772.92046753,0.00070400
5774.84927490,0.00079492
5776.77808228,0.00078805
5778.70688965,0.00073303
5780.63569702,0.00073699
5782.56450439,0.00079216
5784.49331177,0.00077451
5786.42211914,0.00072492
5788.35092651,0.00078024
5790.27973389,0.00073570
5792.20854126,0.00071938
5794.13734863,0.00067245
5796.06615601,0.00064789
5797.99496338,0.00072046
5799.92377075,0.00071478
5801.85257812,0.00075972
5803.78138550,0.00072669
5805.71019287,0.00072543
5807.63900024,0.00072116
5809.56780762,0.00065679
5811.49661499,0.00075667
5813.42542236,0.00076381
5815.35422974,0.00072841
5817.28303711,0.00069899
5819.21184448,0.00067944
5821.14065186,0.00074563
5823.06945923,0.00068607
5824.99826660,0.00067555
5826.92707397,0.00072501
5828.85588135,0.00070685
5830.78468872,0.00072868
5832.71349609,0.00072882
5834.64230347,0.00072054
5836.57111084,0.00065918
5838.49991821,0.00062935
5840.42872559,0.00069003
5842.35753296,0.00068748
5844.28634033,0.00071243
5846.21514770,0.00068822
5848.14395508,0.00067801
5850.07276245,0.00070606
5852.00156982,0.00066803
5853.93037720,0.00072058
5855.85918457,0.00068516
5857.78799194,0.00061652
5859.71679932,0.00062115
5861.64560669,0.00066750
5863.57441406,0.00071801
5865.50322144,0.00061414
5867.43202881,0.00060554
5869.36083618,0.00062771
5871.28964355,0.00061923
5873.21845093,0.00070505
5875.14725830,0.00071150
5877.07606567,0.00063324
5879.00487305,0.00062214
5880.93368042,0.00066731
5882.86248779,0.00064587
5884.79129517,0.00068697
5886.72010254,0.00064949
5888.64890991,0.00059236
5890.57771728,0.00062801
5892.50652466,0.00061737
5894.43533203,0.00072139
5896.36413940,0.00066047
5898.29294678,0.00056429
5900.22175415,0.00058408
5902.15056152,0.00060251
5904.07936890,0.00067429
5906.00817627,0.00056839
5907.93698364,0.00057256
5909.86579102,0.00063979
5911.79459839,0.00059795
5913.72340576,0.00060680
5915.65221313,0.00060540
5917.58102051,0.00058249
5919.50982788,0.00057946
5921.43863525,0.00067402
5923.36744263,0.00064813
5925.29625000,0.00064452
5927.22505737,0.00064091
5929.15386475,0.00055440
5931.08267212,0.00060807
5933.01147949,0.00055987
5934.94028686,0.00059443
5936.86909424,0.00060954
5938.79790161,0.00053513
5940.72670898,0.00061009
5942.65551636,0.00057161
5944.58432373,0.00055070
5946.51313110,0.00057242
5948.44193848,0.00054822
5950.37074585,0.00060848
5952.29955322,0.00061137
5954.22836060,0.00052505
5956.15716797,0.00057354
5958.08597534,0.00057152
5960.01478271,0.00049989
5961.94359009,0.00062377
5963.87239746,0.00062290
5965.80120483,0.00058636
5967.73001221,0.00061280
5969.65881958,0.00055725
5971.58762695,0.00055777
5973.51643433,0.00050654
5975.44524170,0.00055630
5977.37404907,0.00060567
5979.30285645,0.00052686
5981.23166382,0.00058423
5983.16047119,0.00059694
5985.08927856,0.00053750
5987.01808594,0.00050308
5988.94689331,0.00047472
5990.87570068,0.00054936
5992.80450806,0.00058364
5994.73331543,0.00055661
5996.66212280,0.00057178
5998.59093018,0.00055964
6000.51973755,0.00054949
