399.26312622,-0.00023777
401.19193359,0.00007100
403.12074097,-0.00005938
405.04954834,0.00028493
406.97835571,0.00032416
408.90716309,0.00006669
410.83597046,0.00028934
412.76477783,0.00009445
414.69358521,0.00009087
416.62239258,0.00008094
418.55119995,0.00016885
420.48000732,0.00030677
422.40881470,0.00021622
424.33762207,0.00012483
426.26642944,0.00025499
428.19523682,0.00018138
430.12404419,-0.00009661
432.05285156,0.00021988
433.98165894,0.00021960
435.91046631,0.00036703
437.83927368,0.00051248
439.76808105,0.00022365
441.69688843,0.00003270
443.62569580,0.00004254
445.55450317,0.00017877
447.48331055,-0.00006975
449.41211792,-0.00020046
451.34092529,0.00011674
453.26973267,0.00020242
455.19854004,-0.00013209
457.12734741,-0.00027974
459.05615479,0.00001153
460.98496216,0.00028860
462.91376953,-0.00003375
464.84257690,-0.00012437
466.77138428,0.00019591
468.70019165,0.00018612
470.62899902,0.00011228
472.55780640,0.00010170
474.48661377,0.00026815
476.41542114,0.00019178
478.34422852,-0.00009621
480.27303589,0.00024321
482.20184326,0.00045015
484.13065063,0.00024209
486.05945801,0.00020314
487.98826538,0.00018005
489.91707275,-0.00000004
491.84588013,-0.00016519
493.77468750,-0.00000272
495.70349487,0.00018023
497.63230225,0.00029806
499.56110962,0.00016280
501.48991699,-0.00006677
503.41872437,-0.00009691
505.34753174,-0.00010941
507.27633911,0.00031390
509.20514648,0.00028941
511.13395386,-0.00003683
513.06276123,0.00005723
514.99156860,0.00016366
516.92037598,0.00015451
518.84918335,-0.00000071
520.77799072,0.00025684
522.70679810,0.00027061
524.63560547,-0.00001196
526.56441284,0.00020237
528.49322021,0.00018811
530.42202759,0.00022205
532.35083496,0.00031945
534.27964233,0.00009890
536.20844971,0.00024609
538.13725708,0.00027584
540.06606445,-0.00009075
541.99487183,-0.00013554
543.92367920,0.00023461
545.85248657,0.00039217
547.78129395,0.00023309
549.71010132,0.00002847
551.63890869,-0.00011985
553.56771606,0.00017110
555.49652344,0.00019104
557.42533081,-0.00000523
559.35413818,-0.00004951
561.28294556,0.00004202
563.21175293,0.00013218
565.14056030,0.00013274
567.06936768,0.00016109
568.99817505,0.00017125
570.92698242,0.00034161
572.85578979,0.00013249
574.78459717,-0.00022550
576.71340454,0.00018815
578.64221191,0.00025031
580.57101929,0.00016553
582.49982666,0.00027566
584.42863403,0.00013915
586.35744141,0.00014737
588.28624878,-0.00011753
590.21505615,-0.00009294
592.14386353,0.00030729
594.07267090,-0.00006990
596.00147827,0.00000478
597.93028564,0.00018860
599.85909302,-0.00017417
601.78790039,0.00022265
603.71670776,-0.00001136
605.64551514,0.00009635
607.57432251,0.00018352
609.50312988,-0.00021576
611.43193726,0.00012353
613.36074463,0.00020501
615.28955200,0.00020293
617.21835938,0.00017109
619.14716675,0.00004971
621.07597412,0.00011470
623.00478149,0.00005776
624.93358887,0.00002138
626.86239624,0.00007414
628.79120361,-0.00016572
630.72001099,-0.00004076
632.64881836,0.00012637
634.57762573,-0.00004391
636.50643311,0.00003674
638.43524048,0.00010515
640.36404785,0.00004115
642.29285522,0.00032622
644.22166260,0.00019688
646.15046997,0.00004985
648.07927734,0.00031281
650.00808472,0.00014289
651.93689209,0.00020857
653.86569946,0.00018453
655.79450684,-0.00007410
657.72331421,-0.00006185
659.65212158,0.00017273
661.58092896,0.00025488
663.50973633,0.00008729
665.43854370,0.00010383
667.36735107,-0.00003249
669.29615845,0.00000363
671.22496582,0.00024645
673.15377319,0.00032988
675.08258057,0.00026487
677.01138794,0.00012637
678.94019531,0.00018559
680.86900269,0.00029322
682.79781006,0.00047558
684.72661743,0.00029286
686.65542480,0.00018776
688.58423218,0.00020598
690.51303955,-0.00021466
692.44184692,0.00019725
694.37065430,0.00041805
696.29946167,0.00014143
698.22826904,0.00032652
700.15707642,0.00029412
702.08588379,0.00034022
704.01469116,0.00016140
705.94349854,0.00003596
707.87230591,0.00013234
709.80111328,0.00016109
711.72992065,0.00017447
713.65872803,0.00003533
715.58753540,0.00009439
717.51634277,0.00031138
719.44515015,0.00042699
721.37395752,0.00015165
723.30276489,0.00004772
725.23157227,0.00020197
727.16037964,0.00012553
729.08918701,0.00023880
731.01799438,0.00016771
732.94680176,0.00000571
734.87560913,0.00040083
736.80441650,0.00042748
738.73322388,0.00021090
740.66203125,0.00011601
742.59083862,0.00004363
744.51964600,0.00034796
746.44845337,0.00011768
748.37726074,0.00000308
750.30606812,0.00004609
752.23487549,-0.00011389
754.16368286,0.00010576
756.09249023,0.00006760
758.02129761,0.00013705
759.95010498,0.00012750
761.87891235,0.00022705
763.80771973,0.00040758
765.73652710,0.00016004
767.66533447,0.00006347
769.59414185,-0.00001084
771.52294922,-0.00010503
773.45175659,0.00002124
775.38056396,0.00032294
777.30937134,0.00018277
779.23817871,0.00003759
781.16698608,0.00002444
783.09579346,0.00004077
785.02460083,0.00022507
786.95340820,-0.00006812
788.88221558,0.00008278
790.81102295,0.00019197
792.73983032,-0.00003038
794.66863770,0.00003923
796.59744507,-0.00011977
798.52625244,0.00007228
800.45505981,0.00019240
802.38386719,0.00025800
804.31267456,0.00018780
806.24148193,-0.00005116
808.17028931,0.00032605
810.09909668,0.00002430
812.02790405,-0.00014056
813.95671143,0.00019293
815.88551880,0.00001825
817.81432617,0.00019272
819.74313354,0.00017756
821.67194092,0.00003471
823.60074829,0.00015481
825.52955566,0.00028354
827.45836304,0.00024746
829.38717041,-0.00005091
831.31597778,-0.00006016
833.24478516,0.00000520
835.17359253,-0.00000984
837.10239990,0.00017442
839.03120728,0.00040575
840.96001465,0.00018414
842.88882202,0.00000018
844.81762939,0.00015596
846.74643677,0.00018457
848.67524414,0.00028961
850.60405151,0.00009475
852.53285889,-0.00000659
854.46166626,0.00029170
856.39047363,0.00009838
858.31928101,0.00000859
860.24808838,0.00025433
862.17689575,0.00024203
864.10570313,0.00029990
866.03451050,0.00016867
867.96331787,-0.00004033
869.89212524,0.00019775
871.82093262,0.00020271
873.74973999,0.00018471
875.67854736,0.00021041
877.60735474,0.00015171
879.53616211,0.00024450
881.46496948,-0.00005347
883.39377686,0.00005403
885.32258423,0.00022165
887.25139160,0.00012207
889.18019897,0.00029716
891.10900635,0.00021275
893.03781372,0.00028045
894.96662109,0.00015460
896.89542847,0.00016917
898.82423584,0.00026488
900.75304321,0.00018920
902.68185059,0.00036755
904.61065796,0.00016537
906.53946533,0.00053941
908.46827271,0.00044940
910.39708008,-0.00009111
912.32588745,0.00024945
914.25469482,0.00008424
916.18350220,0.00008606
918.11230957,0.00025485
920.04111694,0.00020942
921.96992432,0.00016761
923.89873169,0.00006346
925.82753906,0.00038274
927.75634644,0.00035738
929.68515381,0.00024833
931.61396118,0.00021006
933.54276855,0.00012980
935.47157593,0.00027117
937.40038330,0.00019631
939.32919067,0.00023106
941.25799805,0.00042127
943.18680542,0.00049317
945.11561279,0.00027560
947.04442017,0.00020853
948.97322754,0.00034288
950.90203491,0.00002528
952.83084229,0.00003849
954.75964966,0.00040322
956.68845703,0.00020708
958.61726440,0.00009978
960.54607178,0.00028966
962.47487915,0.00039662
964.40368652,0.00054044
966.33249390,0.00031141
968.26130127,0.00029505
970.19010864,0.00033782
972.11891602,0.00014513
974.04772339,0.00050868
975.97653076,0.00034006
977.90533813,0.00010828
979.83414551,0.00023319
981.76295288,0.00019041
983.69176025,0.00020625
985.62056763,-0.00015197
987.54937500,0.00017817
989.47818237,0.00062436
991.40698975,0.00041950
993.33579712,0.00048712
995.26460449,0.00059815
997.19341187,0.00049695
999.12221924,0.00026033
1001.05102661,0.00042190
1002.97983398,0.00051996
1004.90864136,0.00062943
1006.83744873,0.00072000
1008.76625610,0.00029515
1010.69506348,0.00052471
1012.62387085,0.00068046
1014.55267822,0.00042333
1016.48148560,0.00055672
1018.41029297,0.00067947
1020.33910034,0.00072789
1022.26790771,0.00044640
1024.19671509,0.00036781
1026.12552246,0.00066366
1028.05432983,0.00062104
1029.98313721,0.00069324
1031.91194458,0.00076962
1033.84075195,0.00075273
1035.76955933,0.00089076
1037.69836670,0.00069293
1039.62717407,0.00069465
1041.55598145,0.00082111
1043.48478882,0.00066756
1045.41359619,0.00080815
1047.34240356,0.00078139
1049.27121094,0.00074927
1051.20001831,0.00079662
1053.12882568,0.00071063
1055.05763306,0.00083601
1056.98644043,0.00089511
1058.91524780,0.00091016
1060.84405518,0.00070259
1062.77286255,0.00061712
1064.70166992,0.00057086
1066.63047729,0.00053020
1068.55928467,0.00073834
1070.48809204,0.00045649
1072.41689941,0.00056813
1074.34570679,0.00078441
1076.27451416,0.00062895
1078.20332153,0.00065016
1080.13212891,0.00055510
1082.06093628,0.00060396
1083.98974365,0.00050439
1085.91855103,0.00060087
1087.84735840,0.00070699
1089.77616577,0.00055736
1091.70497314,0.00051740
1093.63378052,0.00043960
1095.56258789,0.00066723
1097.49139526,0.00051314
1099.42020264,0.00040207
1101.34901001,0.00043561
1103.27781738,0.00034426
1105.20662476,0.00067378
1107.13543213,0.00061497
1109.06423950,0.00060764
1110.99304687,0.00066543
1112.92185425,0.00058651
1114.85066162,0.00060929
1116.77946899,0.00046507
1118.70827637,0.00053378
1120.63708374,0.00041474
1122.56589111,0.00024106
1124.49469849,0.00049321
1126.42350586,0.00061462
1128.35231323,0.00044373
1130.28112061,0.00051514
1132.20992798,0.00055076
1134.13873535,0.00047157
1136.06754272,0.00060023
1137.99635010,0.00046727
1139.92515747,0.00062831
1141.85396484,0.00078376
1143.78277222,0.00063706
1145.71157959,0.00079151
1147.64038696,0.00076371
1149.56919434,0.00080502
1151.49800171,0.00088488
1153.42680908,0.00076799
1155.35561646,0.00079096
1157.28442383,0.00073139
1159.21323120,0.00067316
1161.14203857,0.00093198
1163.07084595,0.00090338
1164.99965332,0.00080304
1166.92846069,0.00108037
1168.85726807,0.00089902
1170.78607544,0.00091906
1172.71488281,0.00107666
1174.64369019,0.00099995
1176.57249756,0.00116388
1178.50130493,0.00103354
1180.43011230,0.00114230
1182.35891968,0.00127016
1184.28772705,0.00118801
1186.21653442,0.00125132
1188.14534180,0.00134510
1190.07414917,0.00144078
1192.00295654,0.00129308
1193.93176392,0.00147438
1195.86057129,0.00153754
1197.78937866,0.00151269
1199.71818604,0.00173951
1201.64699341,0.00174827
1203.57580078,0.00178430
1205.50460815,0.00173169
1207.43341553,0.00183890
1209.36222290,0.00192219
1211.29103027,0.00196277
1213.21983765,0.00195686
1215.14864502,0.00195932
1217.07745239,0.00218538
1219.00625977,0.00204078
1220.93506714,0.00214344
1222.86387451,0.00225594
1224.79268188,0.00219159
1226.72148926,0.00219370
1228.65029663,0.00214348
1230.57910400,0.00235099
1232.50791138,0.00234284
1234.43671875,0.00243497
1236.36552612,0.00230084
1238.29433350,0.00207626
1240.22314087,0.00218450
1242.15194824,0.00216698
1244.08075562,0.00239903
1246.00956299,0.00236063
1247.93837036,0.00231227
1249.86717773,0.00233056
1251.79598511,0.00225519
1253.72479248,0.00245395
1255.65359985,0.00226507
1257.58240723,0.00214950
1259.51121460,0.00228361
1261.44002197,0.00215749
1263.36882935,0.00202708
1265.29763672,0.00207805
1267.22644409,0.00206184
1269.15525146,0.00205450
1271.08405884,0.00209692
1273.01286621,0.00187335
1274.94167358,0.00185101
1276.87048096,0.00201525
1278.79928833,0.00201422
1280.72809570,0.00184564
1282.65690308,0.00180573
1284.58571045,0.00188049
1286.51451782,0.00175061
1288.44332520,0.00175520
1290.37213257,0.00163693
1292.30093994,0.00167724
1294.22974731,0.00191598
1296.15855469,0.00178006
1298.08736206,0.00178208
1300.01616943,0.00186332
1301.94497681,0.00174919
1303.87378418,0.00179121
1305.80259155,0.00193972
1307.73139893,0.00179637
1309.66020630,0.00194662
1311.58901367,0.00211562
1313.51782104,0.00187245
1315.44662842,0.00206162
1317.37543579,0.00213162
1319.30424316,0.00218165
1321.23305054,0.00226076
1323.16185791,0.00216054
1325.09066528,0.00239745
1327.01947266,0.00240233
1328.94828003,0.00248184
1330.87708740,0.00247408
1332.80589478,0.00237701
1334.73470215,0.00262033
1336.66350952,0.00251183
1338.59231689,0.00254610
1340.52112427,0.00270979
1342.44993164,0.00269160
1344.37873901,0.00278185
1346.30754639,0.00281132
1348.23635376,0.00273550
1350.16516113,0.00262735
1352.09396851,0.00278220
1354.02277588,0.00285615
1355.95158325,0.00272088
1357.88039062,0.00269757
1359.80919800,0.00263022
1361.73800537,0.00255838
1363.66681274,0.00251297
1365.59562012,0.00262643
1367.52442749,0.00260764
1369.45323486,0.00251986
1371.38204224,0.00257000
1373.31084961,0.00241731
1375.23965698,0.00254716
1377.16846436,0.00255379
1379.09727173,0.00235776
1381.02607910,0.00255512
1382.95488647,0.00266697
1384.88369385,0.00259336
1386.81250122,0.00231636
1388.74130859,0.00256631
1390.67011597,0.00295422
1392.59892334,0.00253500
1394.52773071,0.00250720
1396.45653809,0.00272589
1398.38534546,0.00264022
1400.31415283,0.00269713
1402.24296021,0.00277078
1404.17176758,0.00269746
1406.10057495,0.00262309
1408.02938232,0.00267531
1409.95818970,0.00274361
1411.88699707,0.00268053
1413.81580444,0.00254001
1415.74461182,0.00269861
1417.67341919,0.00252586
1419.60222656,0.00220390
1421.53103394,0.00251277
1423.45984131,0.00249810
1425.38864868,0.00242679
1427.31745605,0.00256804
1429.24626343,0.00239992
1431.17507080,0.00232181
1433.10387817,0.00236570
1435.03268555,0.00218976
1436.96149292,0.00207765
1438.89030029,0.00219128
1440.81910767,0.00203931
1442.74791504,0.00204748
1444.67672241,0.00207542
1446.60552979,0.00194869
1448.53433716,0.00211510
1450.46314453,0.00205277
1452.39195190,0.00213712
1454.32075928,0.00228913
1456.24956665,0.00192648
1458.17837402,0.00185830
1460.10718140,0.00237464
1462.03598877,0.00256007
1463.96479614,0.00246709
1465.89360352,0.00263686
1467.82241089,0.00289192
1469.75121826,0.00313099
1471.68002563,0.00298118
1473.60883301,0.00308506
1475.53764038,0.00348224
1477.46644775,0.00370701
1479.39525513,0.00399762
1481.32406250,0.00392634
1483.25286987,0.00411015
1485.18167725,0.00426413
1487.11048462,0.00415713
1489.03929199,0.00416936
1490.96809937,0.00430546
1492.89690674,0.00486114
1494.82571411,0.00466308
1496.75452148,0.00446307
1498.68332886,0.00498064
1500.61213623,0.00516491
1502.54094360,0.00540647
1504.46975098,0.00489414
1506.39855835,0.00400914
1508.32736572,0.00477533
1510.25617310,0.00521623
1512.18498047,0.00513114
1514.11378784,0.00566128
1516.04259521,0.00506323
1517.97140259,0.00535774
1519.90020996,0.00540487
1521.82901733,0.00450975
1523.75782471,0.00549747
1525.68663208,0.00548814
1527.61543945,0.00529029
1529.54424683,0.00580817
1531.47305420,0.00572087
1533.40186157,0.00541054
1535.33066895,0.00568142
1537.25947632,0.00609889
1539.18828369,0.00445158
1541.11709106,0.00480410
1543.04589844,0.00539376
1544.97470581,0.00503169
1546.90351318,0.00633814
1548.83232056,0.00562454
1550.76112793,0.00588387
1552.68993530,0.00595190
1554.61874268,0.00538085
1556.54755005,0.00584075
1558.47635742,0.00417927
1560.40516479,0.00475928
1562.33397217,0.00614741
1564.26277954,0.00583682
1566.19158691,0.00618134
1568.12039429,0.00591073
1570.04920166,0.00557852
1571.97800903,0.00633178
1573.90681641,0.00625377
1575.83562378,0.00500382
1577.76443115,0.00573440
1579.69323853,0.00625465
1581.62204590,0.00584253
1583.55085327,0.00634713
1585.47966064,0.00620197
1587.40846802,0.00629452
1589.33727539,0.00621368
1591.26608276,0.00608900
1593.19489014,0.00626670
1595.12369751,0.00611991
1597.05250488,0.00617660
1598.98131226,0.00619816
1600.91011963,0.00621184
1602.83892700,0.00624619
1604.76773437,0.00648622
1606.69654175,0.00616914
1608.62534912,0.00605869
1610.55415649,0.00620307
1612.48296387,0.00621123
1614.41177124,0.00631059
1616.34057861,0.00549289
1618.26938599,0.00590241
1620.19819336,0.00641107
1622.12700073,0.00586833
1624.05580811,0.00596037
1625.98461548,0.00612273
1627.91342285,0.00621626
1629.84223022,0.00618060
1631.77103760,0.00666641
1633.69984497,0.00609187
1635.62865234,0.00511531
1637.55745972,0.00592385
1639.48626709,0.00645664
1641.41507446,0.00642549
1643.34388184,0.00655027
1645.27268921,0.00610787
1647.20149658,0.00532738
1649.13030396,0.00629959
1651.05911133,0.00608029
1652.98791870,0.00424438
1654.91672607,0.00557310
1656.84553345,0.00667734
1658.77434082,0.00658559
1660.70314819,0.00664822
1662.63195557,0.00594403
1664.56076294,0.00636695
1666.48957031,0.00670884
1668.41837769,0.00600321
1670.34718506,0.00600915
1672.27599243,0.00658013
1674.20479980,0.00611958
1676.13360718,0.00601280
1678.06241455,0.00658911
1679.99122192,0.00654314
1681.92002930,0.00664606
1683.84883667,0.00531859
1685.77764404,0.00532939
1687.70645142,0.00692513
1689.63525879,0.00614188
1691.56406616,0.00681052
1693.49287354,0.00678236
1695.42168091,0.00522868
1697.35048828,0.00631419
1699.27929565,0.00565989
1701.20810303,0.00524685
1703.13691040,0.00693174
1705.06571777,0.00649733
1706.99452515,0.00643774
1708.92333252,0.00686967
1710.85213989,0.00665143
1712.78094727,0.00669366
1714.70975464,0.00630240
1716.63856201,0.00586343
1718.56736938,0.00579569
1720.49617676,0.00664109
1722.42498413,0.00676022
1724.35379150,0.00650228
1726.28259888,0.00689663
1728.21140625,0.00627137
1730.14021362,0.00661019
1732.06902100,0.00620012
1733.99782837,0.00487122
1735.92663574,0.00613878
1737.85544312,0.00655633
1739.78425049,0.00611252
1741.71305786,0.00652345
1743.64186523,0.00652576
1745.57067261,0.00667185
1747.49947998,0.00659395
1749.42828735,0.00634834
1751.35709473,0.00616382
1753.28590210,0.00670869
1755.21470947,0.00712239
1757.14351685,0.00657697
1759.07232422,0.00701522
1761.00113159,0.00670394
1762.92993896,0.00646480
1764.85874634,0.00727980
1766.78755371,0.00666652
1768.71636108,0.00675863
1770.64516846,0.00681019
1772.57397583,0.00614723
1774.50278320,0.00679810
1776.43159058,0.00709064
1778.36039795,0.00694090
1780.28920532,0.00696450
1782.21801270,0.00703621
1784.14682007,0.00697927
1786.07562744,0.00681139
1788.00443481,0.00726152
1789.93324219,0.00713946
1791.86204956,0.00638050
1793.79085693,0.00661746
1795.71966431,0.00729624
1797.64847168,0.00721119
1799.57727905,0.00682976
1801.50608643,0.00681237
1803.43489380,0.00712450
1805.36370117,0.00723321
1807.29250854,0.00723234
1809.22131592,0.00729468
1811.15012329,0.00700994
1813.07893066,0.00714512
1815.00773804,0.00738204
1816.93654541,0.00731230
1818.86535278,0.00727173
1820.79416016,0.00725906
1822.72296753,0.00723618
1824.65177490,0.00688665
1826.58058228,0.00717770
1828.50938965,0.00713112
1830.43819702,0.00692128
1832.36700439,0.00745414
1834.29581177,0.00736671
1836.22461914,0.00738724
1838.15342651,0.00709800
1840.08223389,0.00723515
1842.01104126,0.00737437
1843.93984863,0.00659161
1845.86865601,0.00718366
1847.79746338,0.00740921
1849.72627075,0.00721687
1851.65507812,0.00743791
1853.58388550,0.00725196
1855.51269287,0.00740412
1857.44150024,0.00727245
1859.37030762,0.00731522
1861.29911499,0.00740667
1863.22792236,0.00732315
1865.15672974,0.00749851
1867.08553711,0.00717200
1869.01434448,0.00695376
1870.94315186,0.00720765
1872.87195923,0.00730678
1874.80076660,0.00723819
1876.72957397,0.00736501
1878.65838135,0.00738253
1880.58718872,0.00734802
1882.51599609,0.00747264
1884.44480347,0.00735946
1886.37361084,0.00734488
1888.30241821,0.00726785
1890.23122559,0.00719432
1892.16003296,0.00741502
1894.08884033,0.00735360
1896.01764771,0.00730117
1897.94645508,0.00741692
1899.87526245,0.00736540
1901.80406982,0.00740638
1903.73287720,0.00739712
1905.66168457,0.00728202
1907.59049194,0.00723796
1909.51929932,0.00711896
1911.44810669,0.00718077
1913.37691406,0.00743768
1915.30572144,0.00752845
1917.23452881,0.00719131
1919.16333618,0.00699607
1921.09214355,0.00720373
1923.02095093,0.00722297
1924.94975830,0.00734747
1926.87856567,0.00730399
1928.80737305,0.00734640
1930.73618042,0.00752910
1932.66498779,0.00726100
1934.59379517,0.00738112
1936.52260254,0.00744708
1938.45140991,0.00736584
1940.38021729,0.00738189
1942.30902466,0.00713943
1944.23783203,0.00722641
1946.16663940,0.00736446
1948.09544678,0.00732945
1950.02425415,0.00735428
1951.95306152,0.00744677
1953.88186890,0.00736707
1955.81067627,0.00728992
1957.73948364,0.00756088
1959.66829102,0.00758546
1961.59709839,0.00741823
1963.52590576,0.00734151
1965.45471313,0.00729444
1967.38352051,0.00728618
1969.31232788,0.00732295
1971.24113525,0.00738730
1973.16994263,0.00737718
1975.09875000,0.00743992
1977.02755737,0.00742879
1978.95636475,0.00728636
1980.88517212,0.00727496
1982.81397949,0.00736731
1984.74278687,0.00732743
1986.67159424,0.00732928
1988.60040161,0.00738715
1990.52920898,0.00721601
1992.45801636,0.00726077
1994.38682373,0.00737538
1996.31563110,0.00728028
1998.24443848,0.00730478
2000.17324585,0.00727232
2002.10205322,0.00725624
2004.03086060,0.00728721
2005.95966797,0.00718777
2007.88847534,0.00732701
2009.81728271,0.00738522
2011.74609009,0.00716699
2013.67489746,0.00728217
2015.60370483,0.00727239
2017.53251221,0.00720904
2019.46131958,0.00733395
2021.39012695,0.00721653
2023.31893433,0.00731223
2025.24774170,0.00734664
2027.17654907,0.00725835
2029.10535645,0.00732980
2031.03416382,0.00727479
2032.96297119,0.00723869
2034.89177856,0.00711680
2036.82058594,0.00713436
2038.74939331,0.00725534
2040.67820068,0.00718646
2042.60700806,0.00718179
2044.53581543,0.00716608
2046.46462280,0.00711815
2048.39343018,0.00707793
2050.32223755,0.00715745
2052.25104492,0.00731832
2054.17985229,0.00720150
2056.10865967,0.00715040
2058.03746704,0.00726884
2059.96627441,0.00719117
2061.89508179,0.00720315
2063.82388916,0.00711296
2065.75269653,0.00703928
2067.68150391,0.00719354
2069.61031128,0.00703713
2071.53911865,0.00708651
2073.46792603,0.00715746
2075.39673340,0.00698003
2077.32554077,0.00706090
2079.25434814,0.00705545
2081.18315552,0.00699528
2083.11196289,0.00699867
2085.04077026,0.00710154
2086.96957764,0.00715031
2088.89838501,0.00709249
2090.82719238,0.00709947
2092.75599976,0.00700806
2094.68480713,0.00704902
2096.61361450,0.00714434
2098.54242187,0.00709098
2100.47122925,0.00697086
2102.40003662,0.00709226
2104.32884399,0.00716033
2106.25765137,0.00695737
2108.18645874,0.00711784
2110.11526611,0.00708330
2112.04407349,0.00695597
2113.97288086,0.00717931
2115.90168823,0.00711528
2117.83049561,0.00703452
2119.75930298,0.00707316
2121.68811035,0.00699179
2123.61691772,0.00699106
2125.54572510,0.00701100
2127.47453247,0.00698031
2129.40333984,0.00698144
2131.33214722,0.00688635
2133.26095459,0.00682636
2135.18976196,0.00686266
2137.11856934,0.00697161
2139.04737671,0.00700348
2140.97618408,0.00683896
2142.90499146,0.00701584
2144.83379883,0.00701497
2146.76260620,0.00683828
2148.69141357,0.00705981
2150.62022095,0.00704405
2152.54902832,0.00698566
2154.47783569,0.00695847
2156.40664307,0.00683899
2158.33545044,0.00686899
2160.26425781,0.00693485
2162.19306519,0.00698563
2164.12187256,0.00696829
2166.05067993,0.00695437
2167.97948730,0.00696607
2169.90829468,0.00700960
2171.83710205,0.00694072
2173.76590942,0.00697112
2175.69471680,0.00707305
2177.62352417,0.00686992
2179.55233154,0.00687809
2181.48113892,0.00700233
2183.40994629,0.00696006
2185.33875366,0.00699655
2187.26756104,0.00697648
2189.19636841,0.00688737
2191.12517578,0.00683982
2193.05398315,0.00687705
2194.98279053,0.00693728
2196.91159790,0.00685886
2198.84040527,0.00685177
2200.76921265,0.00692417
2202.69802002,0.00689428
2204.62682739,0.00698010
2206.55563477,0.00695958
2208.48444214,0.00695144
2210.41324951,0.00697663
2212.34205688,0.00690329
2214.27086426,0.00706178
2216.19967163,0.00693976
2218.12847900,0.00691938
2220.05728638,0.00704643
2221.98609375,0.00683518
2223.91490112,0.00681775
2225.84370850,0.00684167
2227.77251587,0.00689364
2229.70132324,0.00690599
2231.63013062,0.00691996
2233.55893799,0.00694762
2235.48774536,0.00690629
2237.41655273,0.00689941
2239.34536011,0.00677302
2241.27416748,0.00686964
2243.20297485,0.00685714
2245.13178223,0.00679315
2247.06058960,0.00684122
2248.98939697,0.00685228
2250.91820435,0.00693903
2252.84701172,0.00685539
2254.77581909,0.00691348
2256.70462646,0.00683615
2258.63343384,0.00676508
2260.56224121,0.00676067
2262.49104858,0.00668861
2264.41985596,0.00680734
2266.34866333,0.00668918
2268.27747070,0.00677816
2270.20627808,0.00679665
2272.13508545,0.00677184
2274.06389282,0.00687741
2275.99270020,0.00674373
2277.92150757,0.00677755
2279.85031494,0.00675006
2281.77912231,0.00697863
2283.70792969,0.00697793
2285.63673706,0.00675999
2287.56554443,0.00685849
2289.49435181,0.00666290
2291.42315918,0.00677810
2293.35196655,0.00690458
2295.28077393,0.00681441
2297.20958130,0.00682431
2299.13838867,0.00673497
2301.06719604,0.00671208
2302.99600342,0.00661023
2304.92481079,0.00667525
2306.85361816,0.00663966
2308.78242554,0.00644792
2310.71123291,0.00653236
2312.64004028,0.00651552
2314.56884766,0.00642495
2316.49765503,0.00637142
2318.42646240,0.00628265
2320.35526978,0.00629535
2322.28407715,0.00627123
2324.21288452,0.00602037
2326.14169189,0.00591203
2328.07049927,0.00603254
2329.99930664,0.00592734
2331.92811401,0.00580806
2333.85692139,0.00586149
2335.78572876,0.00582183
2337.71453613,0.00585249
2339.64334351,0.00588020
2341.57215088,0.00583445
2343.50095825,0.00593708
2345.42976562,0.00601355
2347.35857300,0.00626201
2349.28738037,0.00643137
2351.21618774,0.00624556
2353.14499512,0.00603057
2355.07380249,0.00573882
2357.00260986,0.00564407
2358.93141724,0.00555608
2360.86022461,0.00553497
2362.78903198,0.00554863
2364.71783936,0.00537523
2366.64664673,0.00562508
2368.57545410,0.00572408
2370.50426147,0.00578034
2372.43306885,0.00606642
2374.36187622,0.00611945
2376.29068359,0.00634273
2378.21949097,0.00647109
2380.14829834,0.00650336
2382.07710571,0.00658424
2384.00591309,0.00658002
2385.93472046,0.00665120
2387.86352783,0.00665091
2389.79233521,0.00666030
2391.72114258,0.00671869
2393.64994995,0.00665310
2395.57875732,0.00659965
2397.50756470,0.00669811
2399.43637207,0.00659562
2401.36517944,0.00651673
2403.29398682,0.00671106
2405.22279419,0.00667672
2407.15160156,0.00660397
2409.08040894,0.00666834
2411.00921631,0.00671556
2412.93802368,0.00672059
2414.86683105,0.00667183
2416.79563843,0.00655938
2418.72444580,0.00648455
2420.65325317,0.00658465
2422.58206055,0.00664486
2424.51086792,0.00661739
2426.43967529,0.00647649
2428.36848267,0.00649025
2430.29729004,0.00659789
2432.22609741,0.00654070
2434.15490479,0.00662972
2436.08371216,0.00653110
2438.01251953,0.00647609
2439.94132690,0.00657597
2441.87013428,0.00651142
2443.79894165,0.00661174
2445.72774902,0.00663395
2447.65655640,0.00666536
2449.58536377,0.00669234
2451.51417114,0.00656105
2453.44297852,0.00655106
2455.37178589,0.00656237
2457.30059326,0.00659369
2459.22940063,0.00653857
2461.15820801,0.00650514
2463.08701538,0.00654134
2465.01582275,0.00651771
2466.94463013,0.00655459
2468.87343750,0.00653662
2470.80224487,0.00652637
2472.73105225,0.00649594
2474.65985962,0.00648961
2476.58866699,0.00659230
2478.51747437,0.00657377
2480.44628174,0.00651227
2482.37508911,0.00651512
2484.30389648,0.00647523
2486.23270386,0.00633762
2488.16151123,0.00635932
2490.09031860,0.00650746
2492.01912598,0.00653700
2493.94793335,0.00650176
2495.87674072,0.00641119
2497.80554810,0.00643532
2499.73435547,0.00648233
2501.66316284,0.00644084
2503.59197021,0.00639238
2505.52077759,0.00642606
2507.44958496,0.00658827
2509.37839233,0.00649213
2511.30719971,0.00635138
2513.23600708,0.00639854
2515.16481445,0.00642222
2517.09362183,0.00645654
2519.02242920,0.00641912
2520.95123657,0.00641289
2522.88004395,0.00644942
2524.80885132,0.00646076
2526.73765869,0.00644332
2528.66646606,0.00639358
2530.59527344,0.00640236
2532.52408081,0.00640048
2534.45288818,0.00637515
2536.38169556,0.00633230
2538.31050293,0.00633656
2540.23931030,0.00637326
2542.16811768,0.00645955
2544.09692505,0.00649662
2546.02573242,0.00639849
2547.95453979,0.00643174
2549.88334717,0.00643633
2551.81215454,0.00637321
2553.74096191,0.00633323
2555.66976929,0.00633096
2557.59857666,0.00636628
2559.52738403,0.00633755
2561.45619141,0.00635378
2563.38499878,0.00622017
2565.31380615,0.00620155
2567.24261353,0.00635742
2569.17142090,0.00633975
2571.10022827,0.00637110
2573.02903564,0.00629671
2574.95784302,0.00625151
2576.88665039,0.00635992
2578.81545776,0.00635167
2580.74426514,0.00628444
2582.67307251,0.00622765
2584.60187988,0.00632417
2586.53068726,0.00636993
2588.45949463,0.00622926
2590.38830200,0.00624800
2592.31710937,0.00630326
2594.24591675,0.00622341
2596.17472412,0.00628423
2598.10353149,0.00634446
2600.03233887,0.00636549
2601.96114624,0.00639370
2603.88995361,0.00624630
2605.81876099,0.00632483
2607.74756836,0.00630270
2609.67637573,0.00610202
2611.60518311,0.00628052
2613.53399048,0.00626345
2615.46279785,0.00616080
2617.39160522,0.00619716
2619.32041260,0.00617745
2621.24921997,0.00622698
2623.17802734,0.00608840
2625.10683472,0.00614308
2627.03564209,0.00625702
2628.96444946,0.00611142
2630.89325684,0.00626634
2632.82206421,0.00626185
2634.75087158,0.00619357
2636.67967895,0.00636039
2638.60848633,0.00617985
2640.53729370,0.00608296
2642.46610107,0.00614321
2644.39490845,0.00616639
2646.32371582,0.00625201
2648.25252319,0.00614016
2650.18133057,0.00608816
2652.11013794,0.00610854
2654.03894531,0.00611936
2655.96775269,0.00615297
2657.89656006,0.00610758
2659.82536743,0.00611533
2661.75417480,0.00607304
2663.68298218,0.00601551
2665.61178955,0.00602667
2667.54059692,0.00609968
2669.46940430,0.00616669
2671.39821167,0.00619914
2673.32701904,0.00617667
2675.25582642,0.00599469
2677.18463379,0.00605433
2679.11344116,0.00612257
2681.04224854,0.00600596
2682.97105591,0.00610444
2684.89986328,0.00607950
2686.82867065,0.00600752
2688.75747803,0.00605909
2690.68628540,0.00608338
2692.61509277,0.00612460
2694.54390015,0.00603191
2696.47270752,0.00599180
2698.40151489,0.00605087
2700.33032227,0.00607956
2702.25912964,0.00607864
2704.18793701,0.00599855
2706.11674438,0.00607929
2708.04555176,0.00610332
2709.97435913,0.00599742
2711.90316650,0.00600720
2713.83197388,0.00600729
2715.76078125,0.00609328
2717.68958862,0.00603583
2719.61839600,0.00595026
2721.54720337,0.00599514
2723.47601074,0.00589985
2725.40481812,0.00596089
2727.33362549,0.00605270
2729.26243286,0.00606693
2731.19124023,0.00595069
2733.12004761,0.00589107
2735.04885498,0.00606942
2736.97766235,0.00596292
2738.90646973,0.00595698
2740.83527710,0.00599427
2742.76408447,0.00591785
2744.69289185,0.00593524
2746.62169922,0.00586438
2748.55050659,0.00600468
2750.47931396,0.00597235
2752.40812134,0.00588400
2754.33692871,0.00597664
2756.26573608,0.00591101
2758.19454346,0.00590134
2760.12335083,0.00585492
2762.05215820,0.00589562
2763.98096558,0.00589073
2765.90977295,0.00590448
2767.83858032,0.00601599
2769.76738770,0.00580821
2771.69619507,0.00579575
2773.62500244,0.00586979
2775.55380981,0.00578688
2777.48261719,0.00583901
2779.41142456,0.00585380
2781.34023193,0.00590741
2783.26903931,0.00588586
2785.19784668,0.00578826
2787.12665405,0.00579934
2789.05546143,0.00574845
2790.98426880,0.00577678
2792.91307617,0.00582961
2794.84188354,0.00576180
2796.77069092,0.00573176
2798.69949829,0.00570823
2800.62830566,0.00573181
2802.55711304,0.00567129
2804.48592041,0.00564133
2806.41472778,0.00577759
2808.34353516,0.00573797
2810.27234253,0.00574531
2812.20114990,0.00577179
2814.12995728,0.00576077
2816.05876465,0.00578262
2817.98757202,0.00560947
2819.91637939,0.00561247
2821.84518677,0.00566045
2823.77399414,0.00562857
2825.70280151,0.00568380
2827.63160889,0.00563307
2829.56041626,0.00565114
2831.48922363,0.00561048
2833.41803101,0.00555589
2835.34683838,0.00558867
2837.27564575,0.00547544
2839.20445312,0.00553517
2841.13326050,0.00563453
2843.06206787,0.00552611
2844.99087524,0.00554421
2846.91968262,0.00552950
2848.84848999,0.00544463
2850.77729736,0.00550021
2852.70610474,0.00552587
2854.63491211,0.00552502
2856.56371948,0.00550439
2858.49252686,0.00546675
2860.42133423,0.00541372
2862.35014160,0.00545480
2864.27894897,0.00555641
2866.20775635,0.00542634
2868.13656372,0.00546268
2870.06537109,0.00548026
2871.99417847,0.00536206
2873.92298584,0.00549375
2875.85179321,0.00543243
2877.78060059,0.00542993
2879.70940796,0.00543657
2881.63821533,0.00530907
2883.56702270,0.00546240
2885.49583008,0.00539316
2887.42463745,0.00529823
2889.35344482,0.00540875
2891.28225220,0.00544349
2893.21105957,0.00549946
2895.13986694,0.00534835
2897.06867432,0.00529509
2898.99748169,0.00542304
2900.92628906,0.00531199
2902.85509644,0.00528047
2904.78390381,0.00530279
2906.71271118,0.00525755
2908.64151855,0.00528823
2910.57032593,0.00525645
2912.49913330,0.00528660
2914.42794067,0.00527803
2916.35674805,0.00518296
2918.28555542,0.00522925
2920.21436279,0.00524817
2922.14317017,0.00517797
2924.07197754,0.00508740
2926.00078491,0.00513081
2927.92959229,0.00521196
2929.85839966,0.00517546
2931.78720703,0.00521515
2933.71601440,0.00519140
2935.64482178,0.00511208
2937.57362915,0.00516897
2939.50243652,0.00529528
2941.43124390,0.00527599
2943.36005127,0.00517538
2945.28885864,0.00521136
2947.21766602,0.00516438
2949.14647339,0.00519019
2951.07528076,0.00524097
2953.00408813,0.00515930
2954.93289551,0.00522264
2956.86170288,0.00514595
2958.79051025,0.00507329
2960.71931763,0.00514108
2962.64812500,0.00510656
2964.57693237,0.00510888
2966.50573975,0.00504089
2968.43454712,0.00505012
2970.36335449,0.00513137
2972.29216187,0.00509416
2974.22096924,0.00508256
2976.14977661,0.00508938
2978.07858398,0.00512079
2980.00739136,0.00508420
2981.93619873,0.00512146
2983.86500610,0.00511600
2985.79381348,0.00500505
2987.72262085,0.00511990
2989.65142822,0.00507760
2991.58023560,0.00506632
2993.50904297,0.00518874
2995.43785034,0.00506947
2997.36665771,0.00504827
2999.29546509,0.00509984
3001.22427246,0.00509173
3003.15307983,0.00501860
3005.08188721,0.00497389
3007.01069458,0.00504908
3008.93950195,0.00513176
3010.86830933,0.00514832
3012.79711670,0.00506071
3014.72592407,0.00511550
3016.65473145,0.00509280
3018.58353882,0.00500023
3020.51234619,0.00499439
3022.44115356,0.00492973
3024.36996094,0.00498774
3026.29876831,0.00492529
3028.22757568,0.00487262
3030.15638306,0.00491114
3032.08519043,0.00493733
3034.01399780,0.00504128
3035.94280518,0.00497400
3037.87161255,0.00497920
3039.80041992,0.00495918
3041.72922729,0.00481532
3043.65803467,0.00481176
3045.58684204,0.00490042
3047.51564941,0.00493803
3049.44445679,0.00488094
3051.37326416,0.00492080
3053.30207153,0.00487593
3055.23087891,0.00484864
3057.15968628,0.00481176
3059.08849365,0.00473893
3061.01730103,0.00485297
3062.94610840,0.00483967
3064.87491577,0.00492404
3066.80372314,0.00492608
3068.73253052,0.00478310
3070.66133789,0.00481742
3072.59014526,0.00476404
3074.51895264,0.00480317
3076.44776001,0.00484959
3078.37656738,0.00481180
3080.30537476,0.00477548
3082.23418213,0.00479238
3084.16298950,0.00487188
3086.09179687,0.00473579
3088.02060425,0.00470698
3089.94941162,0.00478917
3091.87821899,0.00468806
3093.80702637,0.00475225
3095.73583374,0.00484242
3097.66464111,0.00462935
3099.59344849,0.00466111
3101.52225586,0.00478510
3103.45106323,0.00460529
3105.37987061,0.00465276
3107.30867798,0.00467759
3109.23748535,0.00463202
3111.16629272,0.00467275
3113.09510010,0.00463436
3115.02390747,0.00476281
3116.95271484,0.00476133
3118.88152222,0.00464985
3120.81032959,0.00459499
3122.73913696,0.00454106
3124.66794434,0.00457678
3126.59675171,0.00463375
3128.52555908,0.00469311
3130.45436645,0.00458624
3132.38317383,0.00452461
3134.31198120,0.00451933
3136.24078857,0.00448854
3138.16959595,0.00458974
3140.09840332,0.00458910
3142.02721069,0.00460007
3143.95601807,0.00458959
3145.88482544,0.00448142
3147.81363281,0.00450071
3149.74244019,0.00452506
3151.67124756,0.00443671
3153.60005493,0.00440074
3155.52886230,0.00444628
3157.45766968,0.00444122
3159.38647705,0.00450942
3161.31528442,0.00446779
3163.24409180,0.00428693
3165.17289917,0.00432507
3167.10170654,0.00443453
3169.03051392,0.00441785
3170.95932129,0.00435351
3172.88812866,0.00437436
3174.81693604,0.00434078
3176.74574341,0.00430832
3178.67455078,0.00438439
3180.60335815,0.00431230
3182.53216553,0.00425351
3184.46097290,0.00426340
3186.38978027,0.00422466
3188.31858765,0.00426382
3190.24739502,0.00432889
3192.17620239,0.00428378
3194.10500977,0.00419003
3196.03381714,0.00421836
3197.96262451,0.00427788
3199.89143188,0.00425761
3201.82023926,0.00422244
3203.74904663,0.00422989
3205.67785400,0.00422749
3207.60666138,0.00422105
3209.53546875,0.00431501
3211.46427612,0.00429722
3213.39308350,0.00421566
3215.32189087,0.00426239
3217.25069824,0.00417881
3219.17950562,0.00415914
3221.10831299,0.00429855
3223.03712036,0.00419961
3224.96592773,0.00417437
3226.89473511,0.00428818
3228.82354248,0.00417156
3230.75234985,0.00409172
3232.68115723,0.00416851
3234.60996460,0.00419562
3236.53877197,0.00407350
3238.46757935,0.00407698
3240.39638672,0.00422429
3242.32519409,0.00411763
3244.25400146,0.00406436
3246.18280884,0.00418885
3248.11161621,0.00422416
3250.04042358,0.00418682
3251.96923096,0.00415935
3253.89803833,0.00413061
3255.82684570,0.00404588
3257.75565308,0.00407501
3259.68446045,0.00409626
3261.61326782,0.00415230
3263.54207520,0.00419742
3265.47088257,0.00408406
3267.39968994,0.00413036
3269.32849731,0.00409681
3271.25730469,0.00414822
3273.18611206,0.00415641
3275.11491943,0.00387067
3277.04372681,0.00398883
3278.97253418,0.00411210
3280.90134155,0.00410383
3282.83014893,0.00412037
3284.75895630,0.00399141
3286.68776367,0.00409108
3288.61657104,0.00409796
3290.54537842,0.00404147
3292.47418579,0.00408643
3294.40299316,0.00400471
3296.33180054,0.00401662
3298.26060791,0.00399088
3300.18941528,0.00396603
3302.11822266,0.00402760
3304.04703003,0.00395661
3305.97583740,0.00396335
3307.90464478,0.00408650
3309.83345215,0.00402017
3311.76225952,0.00393695
3313.69106689,0.00403710
3315.61987427,0.00404693
3317.54868164,0.00399500
3319.47748901,0.00403483
3321.40629639,0.00403186
3323.33510376,0.00396798
3325.26391113,0.00399079
3327.19271851,0.00402445
3329.12152588,0.00395787
3331.05033325,0.00393402
3332.97914062,0.00392382
3334.90794800,0.00392177
3336.83675537,0.00391793
3338.76556274,0.00391570
3340.69437012,0.00391756
3342.62317749,0.00384153
3344.55198486,0.00388259
3346.48079224,0.00393956
3348.40959961,0.00396083
3350.33840698,0.00397206
3352.26721436,0.00395355
3354.19602173,0.00397268
3356.12482910,0.00388187
3358.05363647,0.00387667
3359.98244385,0.00385031
3361.91125122,0.00383937
3363.84005859,0.00393821
3365.76886597,0.00383834
3367.69767334,0.00383208
3369.62648071,0.00385004
3371.55528809,0.00380726
3373.48409546,0.00384117
3375.41290283,0.00384529
3377.34171020,0.00383498
3379.27051758,0.00379495
3381.19932495,0.00377365
3383.12813232,0.00378379
3385.05693970,0.00384705
3386.98574707,0.00378509
3388.91455444,0.00376721
3390.84336182,0.00377821
3392.77216919,0.00359600
3394.70097656,0.00369155
3396.62978394,0.00382319
3398.55859131,0.00378242
3400.48739868,0.00380064
3402.41620605,0.00380657
3404.34501343,0.00373386
3406.27382080,0.00375567
3408.20262817,0.00382457
3410.13143555,0.00368883
3412.06024292,0.00379622
3413.98905029,0.00376961
3415.91785767,0.00365462
3417.84666504,0.00384351
3419.77547241,0.00372234
3421.70427979,0.00368519
3423.63308716,0.00370661
3425.56189453,0.00368496
3427.49070190,0.00372305
3429.41950928,0.00366680
3431.34831665,0.00366734
3433.27712402,0.00357368
3435.20593140,0.00369923
3437.13473877,0.00371307
3439.06354614,0.00362853
3440.99235352,0.00373324
3442.92116089,0.00361498
3444.84996826,0.00361667
3446.77877563,0.00360959
3448.70758301,0.00356038
3450.63639038,0.00356765
3452.56519775,0.00360640
3454.49400513,0.00372403
3456.42281250,0.00362884
3458.35161987,0.00357181
3460.28042725,0.00353879
3462.20923462,0.00363787
3464.13804199,0.00375612
3466.06684937,0.00355456
3467.99565674,0.00357089
3469.92446411,0.00365313
3471.85327148,0.00354852
3473.78207886,0.00357572
3475.71088623,0.00361382
3477.63969360,0.00355758
3479.56850098,0.00360843
3481.49730835,0.00363507
3483.42611572,0.00356163
3485.35492310,0.00359862
3487.28373047,0.00356610
3489.21253784,0.00352122
3491.14134521,0.00354809
3493.07015259,0.00349292
3494.99895996,0.00355938
3496.92776733,0.00361667
3498.85657471,0.00354161
3500.78538208,0.00357730
3502.71418945,0.00354436
3504.64299683,0.00346099
3506.57180420,0.00353513
3508.50061157,0.00350830
3510.42941895,0.00348222
3512.35822632,0.00356784
3514.28703369,0.00359253
3516.21584106,0.00362384
3518.14464844,0.00358387
3520.07345581,0.00361767
3522.00226318,0.00364670
3523.93107056,0.00348013
3525.85987793,0.00354184
3527.78868530,0.00352636
3529.71749268,0.00335341
3531.64630005,0.00350582
3533.57510742,0.00353298
3535.50391479,0.00347578
3537.43272217,0.00357856
3539.36152954,0.00354290
3541.29033691,0.00350195
3543.21914429,0.00350838
3545.14795166,0.00340090
3547.07675903,0.00330019
3549.00556641,0.00347281
3550.93437378,0.00356027
3552.86318115,0.00347161
3554.79198853,0.00355485
3556.72079590,0.00353222
3558.64960327,0.00358114
3560.57841064,0.00359624
3562.50721802,0.00351396
3564.43602539,0.00361765
3566.36483276,0.00335790
3568.29364014,0.00317371
3570.22244751,0.00346411
3572.15125488,0.00358052
3574.08006226,0.00351824
3576.00886963,0.00347083
3577.93767700,0.00347084
3579.86648437,0.00350450
3581.79529175,0.00348402
3583.72409912,0.00352929
3585.65290649,0.00345278
3587.58171387,0.00314335
3589.51052124,0.00325826
3591.43932861,0.00355157
3593.36813599,0.00342786
3595.29694336,0.00331698
3597.22575073,0.00343624
3599.15455811,0.00351596
3601.08336548,0.00338206
3603.01217285,0.00335278
3604.94098022,0.00348547
3606.86978760,0.00344883
3608.79859497,0.00324590
3610.72740234,0.00325856
3612.65620972,0.00337315
3614.58501709,0.00336278
3616.51382446,0.00349561
3618.44263184,0.00322026
3620.37143921,0.00317293
3622.30024658,0.00348215
3624.22905395,0.00344627
3626.15786133,0.00360353
3628.08666870,0.00307746
3630.01547607,0.00285950
3631.94428345,0.00343726
3633.87309082,0.00345806
3635.80189819,0.00352360
3637.73070557,0.00349606
3639.65951294,0.00349527
3641.58832031,0.00346527
3643.51712769,0.00348520
3645.44593506,0.00354238
3647.37474243,0.00312738
3649.30354980,0.00287440
3651.23235718,0.00292653
3653.16116455,0.00352870
3655.08997192,0.00343108
3657.01877930,0.00314047
3658.94758667,0.00362869
3660.87639404,0.00341823
3662.80520142,0.00347822
3664.73400879,0.00345137
3666.66281616,0.00341551
3668.59162354,0.00338734
3670.52043091,0.00274033
3672.44923828,0.00323453
3674.37804565,0.00317389
3676.30685303,0.00273241
3678.23566040,0.00330925
3680.16446777,0.00338329
3682.09327515,0.00338998
3684.02208252,0.00345511
3685.95088989,0.00339842
3687.87969727,0.00308597
3689.80850464,0.00290591
3691.73731201,0.00328036
3693.66611938,0.00338761
3695.59492676,0.00343572
3697.52373413,0.00339101
3699.45254150,0.00340337
3701.38134888,0.00336141
3703.31015625,0.00327198
3705.23896362,0.00346818
3707.16777100,0.00323247
3709.09657837,0.00316963
3711.02538574,0.00308871
3712.95419312,0.00294475
3714.88300049,0.00328054
3716.81180786,0.00329590
3718.74061523,0.00331015
3720.66942261,0.00321152
3722.59822998,0.00316465
3724.52703735,0.00323627
3726.45584473,0.00307030
3728.38465210,0.00331936
3730.31345947,0.00328203
3732.24226685,0.00293304
3734.17107422,0.00284450
3736.09988159,0.00287557
3738.02868896,0.00299865
3739.95749634,0.00322482
3741.88630371,0.00324377
3743.81511108,0.00254519
3745.74391846,0.00255202
3747.67272583,0.00308623
3749.60153320,0.00274054
3751.53034058,0.00263012
3753.45914795,0.00293387
3755.38795532,0.00307766
3757.31676270,0.00314480
3759.24557007,0.00307016
3761.17437744,0.00312245
3763.10318481,0.00327293
3765.03199219,0.00316020
3766.96079956,0.00313781
3768.88960693,0.00307626
3770.81841431,0.00296706
3772.74722168,0.00321310
3774.67602905,0.00321934
3776.60483643,0.00319610
3778.53364380,0.00308445
3780.46245117,0.00298325
3782.39125854,0.00318910
3784.32006592,0.00310013
3786.24887329,0.00314036
3788.17768066,0.00317808
3790.10648804,0.00313103
3792.03529541,0.00317109
3793.96410278,0.00317958
3795.89291016,0.00299568
3797.82171753,0.00301181
3799.75052490,0.00309814
3801.67933228,0.00250979
3803.60813965,0.00304902
3805.53694702,0.00318019
3807.46575439,0.00257746
3809.39456177,0.00317820
3811.32336914,0.00303181
3813.25217651,0.00307363
3815.18098389,0.00282679
3817.10979126,0.00258591
3819.03859863,0.00316039
3820.96740601,0.00255269
3822.89621338,0.00276199
3824.82502075,0.00314364
3826.75382812,0.00289156
3828.68263550,0.00303545
3830.61144287,0.00293772
3832.54025024,0.00295805
3834.46905762,0.00289330
3836.39786499,0.00280637
3838.32667236,0.00254423
3840.25547974,0.00266254
3842.18428711,0.00291697
3844.11309448,0.00277705
3846.04190186,0.00300437
3847.97070923,0.00293379
3849.89951660,0.00298042
3851.82832397,0.00267729
3853.75713135,0.00203815
3855.68593872,0.00249258
3857.61474609,0.00295205
3859.54355347,0.00293009
3861.47236084,0.00293350
3863.40116821,0.00275869
3865.32997559,0.00264551
3867.25878296,0.00287361
3869.18759033,0.00266572
3871.11639770,0.00257783
3873.04520508,0.00284338
3874.97401245,0.00264003
3876.90281982,0.00296666
3878.83162720,0.00295405
3880.76043457,0.00252078
3882.68924194,0.00289931
3884.61804932,0.00274144
3886.54685669,0.00258387
3888.47566406,0.00294072
3890.40447144,0.00267184
3892.33327881,0.00257444
3894.26208618,0.00288218
3896.19089355,0.00287502
3898.11970093,0.00274922
3900.04850830,0.00261662
3901.97731567,0.00258329
3903.90612305,0.00253542
3905.83493042,0.00256680
3907.76373779,0.00281873
3909.69254517,0.00282475
3911.62135254,0.00281106
3913.55015991,0.00283898
3915.47896728,0.00274792
3917.40777466,0.00265984
3919.33658203,0.00268895
3921.26538940,0.00275962
3923.19419678,0.00266280
3925.12300415,0.00273926
3927.05181152,0.00277260
3928.98061890,0.00276589
3930.90942627,0.00272955
3932.83823364,0.00262408
3934.76704102,0.00285999
3936.69584839,0.00279835
3938.62465576,0.00272207
3940.55346313,0.00279347
3942.48227051,0.00258583
3944.41107788,0.00266869
3946.33988525,0.00271575
3948.26869263,0.00255425
3950.19750000,0.00259722
3952.12630737,0.00268096
3954.05511475,0.00265387
3955.98392212,0.00265402
3957.91272949,0.00271386
3959.84153687,0.00271090
3961.77034424,0.00264623
3963.69915161,0.00261711
3965.62795898,0.00271622
3967.55676636,0.00275020
3969.48557373,0.00274072
3971.41438110,0.00271836
3973.34318848,0.00260505
3975.27199585,0.00265107
3977.20080322,0.00271856
3979.12961060,0.00266596
3981.05841797,0.00260699
3982.98722534,0.00259505
3984.91603271,0.00262529
3986.84484009,0.00255908
3988.77364746,0.00260869
3990.70245483,0.00275574
3992.63126221,0.00264401
3994.56006958,0.00257813
3996.48887695,0.00263358
3998.41768433,0.00260582
4000.34649170,0.00259934
4002.27529907,0.00255884
4004.20410645,0.00255199
4006.13291382,0.00256154
4008.06172119,0.00257651
4009.99052856,0.00254837
4011.91933594,0.00251933
4013.84814331,0.00261493
4015.77695068,0.00253412
4017.70575806,0.00250147
4019.63456543,0.00255216
4021.56337280,0.00255511
4023.49218018,0.00259896
4025.42098755,0.00253467
4027.34979492,0.00254029
4029.27860229,0.00253254
4031.20740967,0.00253558
4033.13621704,0.00256937
4035.06502441,0.00249817
4036.99383179,0.00243039
4038.92263916,0.00245240
4040.85144653,0.00253205
4042.78025391,0.00243819
4044.70906128,0.00242357
4046.63786865,0.00249013
4048.56667603,0.00251441
4050.49548340,0.00247349
4052.42429077,0.00236054
4054.35309814,0.00246990
4056.28190552,0.00245225
4058.21071289,0.00237770
4060.13952026,0.00246079
4062.06832764,0.00248611
4063.99713501,0.00241177
4065.92594238,0.00233752
4067.85474976,0.00242339
4069.78355713,0.00241291
4071.71236450,0.00233596
4073.64117187,0.00234993
4075.56997925,0.00241154
4077.49878662,0.00235610
4079.42759399,0.00230546
4081.35640137,0.00237882
4083.28520874,0.00233183
4085.21401611,0.00235551
4087.14282349,0.00233681
4089.07163086,0.00233379
4091.00043823,0.00232744
4092.92924561,0.00231538
4094.85805298,0.00242652
4096.78686035,0.00231568
4098.71566772,0.00233014
4100.64447510,0.00234021
4102.57328247,0.00227844
4104.50208984,0.00234249
4106.43089722,0.00235294
4108.35970459,0.00233776
4110.28851196,0.00226273
4112.21731934,0.00238944
4114.14612671,0.00237276
4116.07493408,0.00230444
4118.00374145,0.00235533
4119.93254883,0.00224179
4121.86135620,0.00228227
4123.79016357,0.00226653
4125.71897095,0.00226176
4127.64777832,0.00229113
4129.57658569,0.00227656
4131.50539307,0.00229829
4133.43420044,0.00221725
4135.36300781,0.00223586
4137.29181519,0.00229350
4139.22062256,0.00226535
4141.14942993,0.00216859
4143.07823730,0.00223093
4145.00704468,0.00222725
4146.93585205,0.00213542
4148.86465942,0.00227492
4150.79346680,0.00223271
4152.72227417,0.00221179
4154.65108154,0.00223323
4156.57988892,0.00213321
4158.50869629,0.00213829
4160.43750366,0.00219457
4162.36631103,0.00224329
4164.29511841,0.00222715
4166.22392578,0.00226313
4168.15273315,0.00223703
4170.08154053,0.00221057
4172.01034790,0.00219571
4173.93915527,0.00211962
4175.86796265,0.00212131
4177.79677002,0.00208562
4179.72557739,0.00215926
4181.65438477,0.00214510
4183.58319214,0.00208778
4185.51199951,0.00219448
4187.44080688,0.00214581
4189.36961426,0.00208946
4191.29842163,0.00206005
4193.22722900,0.00203660
4195.15603638,0.00208693
4197.08484375,0.00210761
4199.01365112,0.00212456
4200.94245850,0.00211250
4202.87126587,0.00215711
4204.80007324,0.00219171
4206.72888062,0.00207653
4208.65768799,0.00204954
4210.58649536,0.00201475
4212.51530273,0.00196053
4214.44411011,0.00211960
4216.37291748,0.00209128
4218.30172485,0.00198276
4220.23053223,0.00208069
4222.15933960,0.00213704
4224.08814697,0.00212509
4226.01695435,0.00205714
4227.94576172,0.00201561
4229.87456909,0.00196349
4231.80337646,0.00202667
4233.73218384,0.00210991
4235.66099121,0.00207779
4237.58979858,0.00215353
4239.51860596,0.00204995
4241.44741333,0.00199955
4243.37622070,0.00202445
4245.30502808,0.00192425
4247.23383545,0.00204093
4249.16264282,0.00205266
4251.09145020,0.00194550
4253.02025757,0.00194157
4254.94906494,0.00193940
4256.87787231,0.00193532
4258.80667969,0.00191684
4260.73548706,0.00192348
4262.66429443,0.00197830
4264.59310181,0.00199453
4266.52190918,0.00192800
4268.45071655,0.00199793
4270.37952393,0.00201560
4272.30833130,0.00191240
4274.23713867,0.00193555
4276.16594604,0.00197245
4278.09475342,0.00196064
4280.02356079,0.00186565
4281.95236816,0.00189757
4283.88117554,0.00193343
4285.80998291,0.00185888
4287.73879028,0.00189738
4289.66759766,0.00188237
4291.59640503,0.00188121
4293.52521240,0.00192300
4295.45401978,0.00192426
4297.38282715,0.00185426
4299.31163452,0.00186850
4301.24044189,0.00193071
4303.16924927,0.00185708
4305.09805664,0.00190005
4307.02686401,0.00183427
4308.95567139,0.00183434
4310.88447876,0.00194840
4312.81328613,0.00184839
4314.74209351,0.00187747
4316.67090088,0.00187954
4318.59970825,0.00181827
4320.52851562,0.00180930
4322.45732300,0.00182338
4324.38613037,0.00183649
4326.31493774,0.00179208
4328.24374512,0.00185306
4330.17255249,0.00184549
4332.10135986,0.00183800
4334.03016724,0.00188121
4335.95897461,0.00186184
4337.88778198,0.00180449
4339.81658936,0.00176106
4341.74539673,0.00182568
4343.67420410,0.00181664
4345.60301147,0.00178792
4347.53181885,0.00178056
4349.46062622,0.00182904
4351.38943359,0.00184333
4353.31824097,0.00178135
4355.24704834,0.00176444
4357.17585571,0.00167814
4359.10466309,0.00178126
4361.03347046,0.00178999
4362.96227783,0.00172541
4364.89108520,0.00185200
4366.81989258,0.00175573
4368.74869995,0.00172091
4370.67750732,0.00175639
4372.60631470,0.00172520
4374.53512207,0.00175052
4376.46392944,0.00173716
4378.39273682,0.00173338
4380.32154419,0.00176899
4382.25035156,0.00183028
4384.17915894,0.00179606
4386.10796631,0.00174788
4388.03677368,0.00175523
4389.96558105,0.00169558
4391.89438843,0.00164269
4393.82319580,0.00175944
4395.75200317,0.00177077
4397.68081055,0.00167915
4399.60961792,0.00172750
4401.53842529,0.00166368
4403.46723267,0.00173674
4405.39604004,0.00172688
4407.32484741,0.00162257
4409.25365478,0.00175017
4411.18246216,0.00168913
4413.11126953,0.00168605
4415.04007690,0.00166666
4416.96888428,0.00165040
4418.89769165,0.00174767
4420.82649902,0.00169663
4422.75530640,0.00164740
4424.68411377,0.00162666
4426.61292114,0.00170414
4428.54172852,0.00166377
4430.47053589,0.00165587
4432.39934326,0.00164341
4434.32815063,0.00155037
4436.25695801,0.00162637
4438.18576538,0.00157108
4440.11457275,0.00160300
4442.04338013,0.00164984
4443.97218750,0.00160969
4445.90099487,0.00158999
4447.82980225,0.00163565
4449.75860962,0.00165809
4451.68741699,0.00151538
4453.61622437,0.00163321
4455.54503174,0.00163293
4457.47383911,0.00160619
4459.40264648,0.00161471
4461.33145386,0.00150282
4463.26026123,0.00163095
4465.18906860,0.00155661
4467.11787598,0.00155164
4469.04668335,0.00161806
4470.97549072,0.00154797
4472.90429810,0.00156093
4474.83310547,0.00152607
4476.76191284,0.00152636
4478.69072021,0.00152608
4480.61952759,0.00157448
4482.54833496,0.00151108
4484.47714233,0.00151082
4486.40594971,0.00155644
4488.33475708,0.00150929
4490.26356445,0.00154630
4492.19237183,0.00142840
4494.12117920,0.00149843
4496.04998657,0.00153235
4497.97879395,0.00145787
4499.90760132,0.00158434
4501.83640869,0.00150733
4503.76521606,0.00146946
4505.69402344,0.00153876
4507.62283081,0.00148808
4509.55163818,0.00149602
4511.48044556,0.00155703
4513.40925293,0.00146457
4515.33806030,0.00151055
4517.26686768,0.00157902
4519.19567505,0.00141626
4521.12448242,0.00146504
4523.05328979,0.00144450
4524.98209717,0.00141259
4526.91090454,0.00147447
4528.83971191,0.00143765
4530.76851929,0.00147553
4532.69732666,0.00136260
4534.62613403,0.00135182
4536.55494141,0.00141797
4538.48374878,0.00138843
4540.41255615,0.00146538
4542.34136353,0.00143990
4544.27017090,0.00137569
4546.19897827,0.00136866
4548.12778564,0.00139893
4550.05659302,0.00144262
4551.98540039,0.00143732
4553.91420776,0.00138365
4555.84301514,0.00132522
4557.77182251,0.00143555
4559.70062988,0.00148966
4561.62943726,0.00138997
4563.55824463,0.00143722
4565.48705200,0.00143756
4567.41585937,0.00133978
4569.34466675,0.00133353
4571.27347412,0.00138157
4573.20228149,0.00145374
4575.13108887,0.00142057
4577.05989624,0.00140456
4578.98870361,0.00138376
4580.91751099,0.00134690
4582.84631836,0.00136542
4584.77512573,0.00127989
4586.70393311,0.00135238
4588.63274048,0.00140806
4590.56154785,0.00134729
4592.49035522,0.00136829
4594.41916260,0.00132932
4596.34796997,0.00133474
4598.27677734,0.00136005
4600.20558472,0.00131478
4602.13439209,0.00125111
4604.06319946,0.00135683
4605.99200684,0.00138377
4607.92081421,0.00134377
4609.84962158,0.00137131
4611.77842895,0.00122733
4613.70723633,0.00133271
4615.63604370,0.00130848
4617.56485107,0.00118270
4619.49365845,0.00132239
4621.42246582,0.00129206
4623.35127319,0.00133298
4625.28008057,0.00135043
4627.20888794,0.00131606
4629.13769531,0.00126054
4631.06650269,0.00120498
4632.99531006,0.00128486
4634.92411743,0.00127513
4636.85292480,0.00125476
4638.78173218,0.00127311
4640.71053955,0.00132404
4642.63934692,0.00123918
4644.56815430,0.00129682
4646.49696167,0.00137066
4648.42576904,0.00122534
4650.35457642,0.00125926
4652.28338379,0.00116287
4654.21219116,0.00122123
4656.14099853,0.00129883
4658.06980591,0.00119253
4659.99861328,0.00123894
4661.92742065,0.00116883
4663.85622803,0.00130462
4665.78503540,0.00131757
4667.71384277,0.00113000
4669.64265015,0.00124124
4671.57145752,0.00126173
4673.50026489,0.00118827
4675.42907227,0.00118397
4677.35787964,0.00119812
4679.28668701,0.00116174
4681.21549438,0.00115708
4683.14430176,0.00121610
4685.07310913,0.00115755
4687.00191650,0.00114166
4688.93072388,0.00121948
4690.85953125,0.00118968
4692.78833862,0.00116432
4694.71714600,0.00119547
4696.64595337,0.00114599
4698.57476074,0.00113486
4700.50356812,0.00117246
4702.43237549,0.00116861
4704.36118286,0.00118955
4706.28999023,0.00123010
4708.21879761,0.00116639
4710.14760498,0.00115695
4712.07641235,0.00122260
4714.00521973,0.00112644
4715.93402710,0.00112917
4717.86283447,0.00116645
4719.79164185,0.00117875
4721.72044922,0.00119695
4723.64925659,0.00112220
4725.57806396,0.00115513
4727.50687134,0.00110744
4729.43567871,0.00110237
4731.36448608,0.00109723
4733.29329346,0.00104038
4735.22210083,0.00111878
4737.15090820,0.00106841
4739.07971558,0.00108478
4741.00852295,0.00110729
4742.93733032,0.00109154
4744.86613770,0.00111957
4746.79494507,0.00106435
4748.72375244,0.00108458
4750.65255981,0.00107459
4752.58136719,0.00098004
4754.51017456,0.00100459
4756.43898193,0.00117359
4758.36778931,0.00112475
4760.29659668,0.00104049
4762.22540405,0.00115244
4764.15421143,0.00112633
4766.08301880,0.00108519
4768.01182617,0.00107748
4769.94063354,0.00105523
4771.86944092,0.00103848
4773.79824829,0.00106761
4775.72705566,0.00107393
4777.65586304,0.00103097
4779.58467041,0.00108064
4781.51347778,0.00107651
4783.44228516,0.00104963
4785.37109253,0.00100630
4787.29989990,0.00106156
4789.22870728,0.00108986
4791.15751465,0.00101101
4793.08632202,0.00107308
4795.01512939,0.00101507
4796.94393677,0.00102883
4798.87274414,0.00110165
4800.80155151,0.00106688
4802.73035889,0.00108256
4804.65916626,0.00103492
4806.58797363,0.00106050
4808.51678101,0.00106084
4810.44558838,0.00100564
4812.37439575,0.00101664
4814.30320312,0.00098022
4816.23201050,0.00099158
4818.16081787,0.00107440
4820.08962524,0.00102706
4822.01843262,0.00096732
4823.94723999,0.00101958
4825.87604736,0.00097926
4827.80485474,0.00096779
4829.73366211,0.00099474
4831.66246948,0.00102250
4833.59127686,0.00099315
4835.52008423,0.00094724
4837.44889160,0.00105484
4839.37769897,0.00097948
4841.30650635,0.00094259
4843.23531372,0.00098445
4845.16412109,0.00101977
4847.09292847,0.00109621
4849.02173584,0.00097356
4850.95054321,0.00102931
4852.87935059,0.00096322
4854.80815796,0.00087792
4856.73696533,0.00101935
4858.66577270,0.00090132
4860.59458008,0.00096784
4862.52338745,0.00101357
4864.45219482,0.00092888
4866.38100220,0.00100695
4868.30980957,0.00094191
4870.23861694,0.00091098
4872.16742432,0.00091417
4874.09623169,0.00093652
4876.02503906,0.00098171
4877.95384644,0.00096164
4879.88265381,0.00095695
4881.81146118,0.00090110
4883.74026855,0.00093846
4885.66907593,0.00100515
4887.59788330,0.00098268
4889.52669067,0.00091254
4891.45549805,0.00086324
4893.38430542,0.00090093
4895.31311279,0.00090424
4897.24192017,0.00094175
4899.17072754,0.00090470
4901.09953491,0.00086452
4903.02834228,0.00092127
4904.95714966,0.00086551
4906.88595703,0.00086012
4908.81476440,0.00091235
4910.74357178,0.00097370
4912.67237915,0.00092238
4914.60118652,0.00084453
4916.52999390,0.00092757
4918.45880127,0.00088919
4920.38760864,0.00086512
4922.31641602,0.00088053
4924.24522339,0.00087039
4926.17403076,0.00088204
4928.10283813,0.00087124
4930.03164551,0.00090326
4931.96045288,0.00084841
4933.88926025,0.00084031
4935.81806763,0.00085659
4937.74687500,0.00083119
4939.67568237,0.00086629
4941.60448975,0.00085164
4943.53329712,0.00077911
4945.46210449,0.00077135
4947.39091187,0.00088605
4949.31971924,0.00087934
4951.24852661,0.00086863
4953.17733398,0.00089803
4955.10614136,0.00087849
4957.03494873,0.00089948
4958.96375610,0.00084402
4960.89256348,0.00085139
4962.82137085,0.00081595
4964.75017822,0.00082701
4966.67898560,0.00088129
4968.60779297,0.00081457
4970.53660034,0.00084371
4972.46540771,0.00080592
4974.39421509,0.00082589
4976.32302246,0.00088096
4978.25182983,0.00085699
4980.18063721,0.00084484
4982.10944458,0.00079832
4984.03825195,0.00081331
4985.96705933,0.00083451
4987.89586670,0.00085303
4989.82467407,0.00077048
4991.75348145,0.00079238
4993.68228882,0.00086850
4995.61109619,0.00075296
4997.53990356,0.00078278
4999.46871094,0.00085639
5001.39751831,0.00085278
5003.32632568,0.00079758
5005.25513306,0.00077499
5007.18394043,0.00080413
5009.11274780,0.00080281
5011.04155518,0.00083658
5012.97036255,0.00080277
5014.89916992,0.00076850
5016.82797729,0.00075726
5018.75678467,0.00083492
5020.68559204,0.00086207
5022.61439941,0.00073346
5024.54320679,0.00072841
5026.47201416,0.00077395
5028.40082153,0.00074600
5030.32962891,0.00069964
5032.25843628,0.00078627
5034.18724365,0.00078584
5036.11605103,0.00071002
5038.04485840,0.00077838
5039.97366577,0.00078037
5041.90247314,0.00076605
5043.83128052,0.00074260
5045.76008789,0.00076329
5047.68889526,0.00077149
5049.61770264,0.00074015
5051.54651001,0.00072551
5053.47531738,0.00068635
5055.40412476,0.00075590
5057.33293213,0.00073840
5059.26173950,0.00071249
5061.19054687,0.00070651
5063.11935425,0.00069917
5065.04816162,0.00074863
5066.97696899,0.00070141
5068.90577637,0.00070502
5070.83458374,0.00067641
5072.76339111,0.00075260
5074.69219849,0.00081840
5076.62100586,0.00072116
5078.54981323,0.00073635
5080.47862061,0.00070080
5082.40742798,0.00071526
5084.33623535,0.00073824
5086.26504272,0.00073306
5088.19385010,0.00071339
5090.12265747,0.00063051
5092.05146484,0.00069075
5093.98027222,0.00066061
5095.90907959,0.00065907
5097.83788696,0.00074193
5099.76669434,0.00071636
5101.69550171,0.00075344
5103.62430908,0.00072039
5105.55311645,0.00068632
5107.48192383,0.00073482
5109.41073120,0.00067945
5111.33953857,0.00068225
5113.26834595,0.00072153
5115.19715332,0.00063944
5117.12596069,0.00063147
5119.05476807,0.00068363
5120.98357544,0.00070627
5122.91238281,0.00070002
5124.84119019,0.00064512
5126.76999756,0.00065610
5128.69880493,0.00068023
5130.62761230,0.00069755
5132.55641968,0.00066584
5134.48522705,0.00060924
5136.41403442,0.00062960
5138.34284180,0.00065778
5140.27164917,0.00070910
5142.20045654,0.00066849
5144.12926392,0.00067081
5146.05807129,0.00070600
5147.98687866,0.00061064
5149.91568603,0.00061624
5151.84449341,0.00063927
5153.77330078,0.00062384
5155.70210815,0.00060722
5157.63091553,0.00064803
5159.55972290,0.00063729
5161.48853027,0.00054091
5163.41733765,0.00061393
5165.34614502,0.00059317
5167.27495239,0.00061975
5169.20375977,0.00064725
5171.13256714,0.00051090
5173.06137451,0.00061534
5174.99018188,0.00063733
5176.91898926,0.00058828
5178.84779663,0.00061925
5180.77660400,0.00057468
5182.70541138,0.00062113
5184.63421875,0.00066666
5186.56302612,0.00066200
5188.49183350,0.00062765
5190.42064087,0.00062683
5192.34944824,0.00060144
5194.27825562,0.00055465
5196.20706299,0.00058206
5198.13587036,0.00061063
5200.06467773,0.00065474
5201.99348511,0.00054704
5203.92229248,0.00053797
5205.85109985,0.00061727
5207.77990723,0.00057502
5209.70871460,0.00064370
5211.63752197,0.00059403
5213.56632935,0.00056598
5215.49513672,0.00059149
5217.42394409,0.00055249
5219.35275146,0.00058743
5221.28155884,0.00054877
5223.21036621,0.00056348
5225.13917358,0.00054873
5227.06798096,0.00056374
5228.99678833,0.00062594
5230.92559570,0.00057526
5232.85440308,0.00063318
5234.78321045,0.00058622
5236.71201782,0.00051683
5238.64082520,0.00063102
5240.56963257,0.00063034
5242.49843994,0.00056106
5244.42724731,0.00055382
5246.35605469,0.00054717
5248.28486206,0.00055024
5250.21366943,0.00051998
5252.14247681,0.00051108
5254.07128418,0.00060310
5256.00009155,0.00057071
5257.92889893,0.00052441
5259.85770630,0.00060929
5261.78651367,0.00060055
5263.71532104,0.00052133
5265.64412842,0.00051172
5267.57293579,0.00056689
5269.50174316,0.00054325
5271.43055054,0.00054375
5273.35935791,0.00057719
5275.28816528,0.00048953
5277.21697266,0.00048338
5279.14578003,0.00054805
5281.07458740,0.00055732
5283.00339478,0.00059408
5284.93220215,0.00059105
5286.86100952,0.00050270
5288.78981689,0.00053519
5290.71862427,0.00054541
5292.64743164,0.00049289
5294.57623901,0.00056206
5296.50504639,0.00053884
5298.43385376,0.00056306
5300.36266113,0.00054871
5302.29146851,0.00045815
5304.22027588,0.00053112
5306.14908325,0.00047184
5308.07789062,0.00043746
5310.00669800,0.00051838
5311.93550537,0.00055066
5313.86431274,0.00055821
5315.79312012,0.00053343
5317.72192749,0.00056506
5319.65073486,0.00056620
5321.57954224,0.00053359
5323.50834961,0.00049391
5325.43715698,0.00048702
5327.36596436,0.00050312
5329.29477173,0.00048878
5331.22357910,0.00053876
5333.15238647,0.00052640
5335.08119385,0.00045347
5337.01000122,0.00046943
5338.93880859,0.00049599
5340.86761597,0.00050121
5342.79642334,0.00052896
5344.72523071,0.00051350
5346.65403809,0.00050789
5348.58284546,0.00049108
5350.51165283,0.00046323
5352.44046020,0.00046429
5354.36926758,0.00038343
5356.29807495,0.00045963
5358.22688232,0.00053744
5360.15568970,0.00050039
5362.08449707,0.00054017
5364.01330444,0.00049257
5365.94211182,0.00048070
5367.87091919,0.00047253
5369.79972656,0.00047926
5371.72853394,0.00048015
5373.65734131,0.00044013
5375.58614868,0.00047671
5377.51495605,0.00042681
5379.44376343,0.00042143
5381.37257080,0.00043049
5383.30137817,0.00047036
5385.23018555,0.00044835
5387.15899292,0.00035974
5389.08780029,0.00048535
5391.01660767,0.00045472
5392.94541504,0.00038146
5394.87422241,0.00046410
5396.80302978,0.00048624
5398.73183716,0.00045500
5400.66064453,0.00045532
5402.58945190,0.00046851
5404.51825928,0.00044359
5406.44706665,0.00045657
5408.37587402,0.00041035
5410.30468140,0.00044276
5412.23348877,0.00043690
5414.16229614,0.00040408
5416.09110352,0.00044425
5418.01991089,0.00038399
5419.94871826,0.00050413
5421.87752563,0.00048643
5423.80633301,0.00043543
5425.73514038,0.00046326
5427.66394775,0.00036008
5429.59275513,0.00043780
5431.52156250,0.00044182
5433.45036987,0.00048730
5435.37917725,0.00046918
5437.30798462,0.00041541
5439.23679199,0.00049639
5441.16559936,0.00039754
5443.09440674,0.00044937
5445.02321411,0.00045464
5446.95202148,0.00038504
5448.88082886,0.00041441
5450.80963623,0.00037870
5452.73844360,0.00041200
5454.66725098,0.00046284
5456.59605835,0.00045741
5458.52486572,0.00042690
5460.45367310,0.00051626
5462.38248047,0.00043040
5464.31128784,0.00034188
5466.24009521,0.00047055
5468.16890259,0.00038990
5470.09770996,0.00036855
5472.02651733,0.00041633
5473.95532471,0.00041838
5475.88413208,0.00037769
5477.81293945,0.00036927
5479.74174683,0.00039050
5481.67055420,0.00030560
5483.59936157,0.00045050
5485.52816895,0.00043770
5487.45697632,0.00033722
5489.38578369,0.00046152
5491.31459106,0.00040442
5493.24339844,0.00033512
5495.17220581,0.00037053
5497.10101318,0.00041583
5499.02982056,0.00035599
5500.95862793,0.00034207
5502.88743530,0.00037686
5504.81624268,0.00036214
5506.74505005,0.00042726
5508.67385742,0.00036629
5510.60266479,0.00038065
5512.53147217,0.00039847
5514.46027954,0.00037733
5516.38908691,0.00044064
5518.31789429,0.00034619
5520.24670166,0.00041907
5522.17550903,0.00047845
5524.10431641,0.00035739
5526.03312378,0.00036307
5527.96193115,0.00033240
5529.89073853,0.00030749
5531.81954590,0.00033554
5533.74835327,0.00036103
5535.67716064,0.00038684
5537.60596802,0.00035927
5539.53477539,0.00039571
5541.46358276,0.00042870
5543.39239014,0.00037877
5545.32119751,0.00036367
5547.25000488,0.00033970
5549.17881226,0.00041637
5551.10761963,0.00040060
5553.03642700,0.00027234
5554.96523437,0.00041292
5556.89404175,0.00038737
5558.82284912,0.00033846
5560.75165649,0.00040546
5562.68046387,0.00032110
5564.60927124,0.00040686
5566.53807861,0.00034298
5568.46688599,0.00029216
5570.39569336,0.00040007
5572.32450073,0.00040045
5574.25330811,0.00044843
5576.18211548,0.00031108
5578.11092285,0.00031095
5580.03973022,0.00043925
5581.96853760,0.00034876
5583.89734497,0.00030810
5585.82615234,0.00030400
5587.75495972,0.00032988
5589.68376709,0.00040355
5591.61257446,0.00043397
5593.54138184,0.00034423
5595.47018921,0.00031924
5597.39899658,0.00032937
5599.32780395,0.00029082
5601.25661133,0.00037248
5603.18541870,0.00030743
5605.11422607,0.00025899
5607.04303345,0.00034372
5608.97184082,0.00031528
5610.90064819,0.00027389
5612.82945557,0.00030163
5614.75826294,0.00035598
5616.68707031,0.00030877
5618.61587769,0.00032392
5620.54468506,0.00033901
5622.47349243,0.00026748
5624.40229980,0.00029394
5626.33110718,0.00031602
5628.25991455,0.00034334
5630.18872192,0.00034775
5632.11752930,0.00035373
5634.04633667,0.00036514
5635.97514404,0.00034071
5637.90395142,0.00033379
5639.83275879,0.00030525
5641.76156616,0.00032887
5643.69037353,0.00031290
5645.61918091,0.00030432
5647.54798828,0.00036412
5649.47679565,0.00034704
5651.40560303,0.00032470
5653.33441040,0.00031940
5655.26321777,0.00032716
5657.19202515,0.00033411
5659.12083252,0.00031763
5661.04963989,0.00033781
5662.97844727,0.00037173
5664.90725464,0.00033019
5666.83606201,0.00031029
5668.76486938,0.00029789
5670.69367676,0.00025038
5672.62248413,0.00034011
5674.55129150,0.00031804
5676.48009888,0.00026393
5678.40890625,0.00032765
5680.33771362,0.00026973
5682.26652100,0.00031613
5684.19532837,0.00032075
5686.12413574,0.00025782
5688.05294311,0.00031472
5689.98175049,0.00025705
5691.91055786,0.00027625
5693.83936523,0.00034129
5695.76817261,0.00028456
5697.69697998,0.00024568
5699.62578735,0.00022454
5701.55459473,0.00030523
5703.48340210,0.00035331
5705.41220947,0.00030472
5707.34101685,0.00032664
5709.26982422,0.00029492
5711.19863159,0.00027653
5713.12743896,0.00029720
5715.05624634,0.00025775
5716.98505371,0.00029118
5718.91386108,0.00032183
5720.84266846,0.00031008
5722.77147583,0.00029412
5724.70028320,0.00029923
5726.62909058,0.00027627
5728.55789795,0.00020481
5730.48670532,0.00027307
5732.41551270,0.00029814
5734.34432007,0.00029108
5736.27312744,0.00028980
5738.20193481,0.00023028
5740.13074219,0.00032143
5742.05954956,0.00031347
5743.98835693,0.00025218
5745.91716431,0.00026158
5747.84597168,0.00024213
5749.77477905,0.00026249
5751.70358643,0.00020847
5753.63239380,0.00023996
5755.56120117,0.00026088
5757.49000854,0.00021079
5759.41881592,0.00025145
5761.34762329,0.00024482
5763.27643066,0.00028152
5765.20523804,0.00028276
5767.13404541,0.00026126
5769.06285278,0.00026913
5770.99166016,0.00025865
5772.92046753,0.00030100
5774.84927490,0.00022419
5776.77808228,0.00021727
5778.70688965,0.00027669
5780.63569702,0.00020204
5782.56450439,0.00022511
5784.49331177,0.00025557
5786.42211914,0.00022921
5788.35092651,0.00024537
5790.27973389,0.00024570
5792.20854126,0.00023272
5794.13734863,0.00026048
5796.06615601,0.00029584
5797.99496338,0.00022045
5799.92377075,0.00017678
5801.85257812,0.00025143
5803.78138550,0.00026181
5805.71019287,0.00027674
5807.63900024,0.00028482
5809.56780762,0.00015332
5811.49661499,0.00014506
5813.42542236,0.00026176
5815.35422974,0.00021148
5817.28303711,0.00018340
5819.21184448,0.00026336
5821.14065186,0.00021883
5823.06945923,0.00017003
5824.99826660,0.00021328
5826.92707397,0.00023306
5828.85588135,0.00024655
5830.78468872,0.00022322
5832.71349609,0.00022363
5834.64230347,0.00024708
5836.57111084,0.00022812
5838.49991821,0.00024624
5840.42872559,0.00023797
5842.35753296,0.00022880
5844.28634033,0.00016545
5846.21514770,0.00014228
5848.14395508,0.00023822
5850.07276245,0.00021596
5852.00156982,0.00025290
5853.93037720,0.00027035
5855.85918457,0.00025074
5857.78799194,0.00029015
5859.71679932,0.00018258
5861.64560669,0.00021331
5863.57441406,0.00027352
5865.50322144,0.00021475
5867.43202881,0.00020039
5869.36083618,0.00020280
5871.28964355,0.00029031
5873.21845093,0.00025057
5875.14725830,0.00021676
5877.07606567,0.00027462
5879.00487305,0.00020468
5880.93368042,0.00018237
5882.86248779,0.00015061
5884.79129517,0.00017931
5886.72010254,0.00026842
5888.64890991,0.00017446
5890.57771728,0.00014301
5892.50652466,0.00020096
5894.43533203,0.00018561
5896.36413940,0.00019898
5898.29294678,0.00020251
5900.22175415,0.00019923
5902.15056152,0.00022070
5904.07936890,0.00017937
5906.00817627,0.00015178
5907.93698364,0.00023255
5909.86579102,0.00024560
5911.79459839,0.00013363
5913.72340576,0.00016228
5915.65221313,0.00023566
5917.58102051,0.00020250
5919.50982788,0.00019696
5921.43863525,0.00021239
5923.36744263,0.00021663
5925.29625000,0.00014757
5927.22505737,0.00018330
5929.15386475,0.00024243
5931.08267212,0.00014354
5933.01147949,0.00021740
5934.94028686,0.00022525
5936.86909424,0.00011586
5938.79790161,0.00019082
5940.72670898,0.00020949
5942.65551636,0.00021144
5944.58432373,0.00024769
5946.51313110,0.00019540
5948.44193848,0.00017822
5950.37074585,0.00020629
5952.29955322,0.00021280
5954.22836060,0.00017225
5956.15716797,0.00011443
5958.08597534,0.00015659
5960.01478271,0.00016379
5961.94359009,0.00019055
5963.87239746,0.00025322
5965.80120483,0.00013056
5967.73001221,0.00015154
5969.65881958,0.00019350
5971.58762695,0.00017845
5973.51643433,0.00026217
5975.44524170,0.00018198
5977.37404907,0.00020085
5979.30285645,0.00014982
5981.23166382,0.00006866
5983.16047119,0.00020575
5985.08927856,0.00017939
5987.01808594,0.00016657
5988.94689331,0.00017299
5990.87570068,0.00017923
5992.80450806,0.00018691
5994.73331543,0.00011463
5996.66212280,0.00014009
5998.59093018,0.00012936
6000.51973755,0.00015862
