399.26312622,0.00033295
401.19193359,0.00032552
403.12074097,0.00074510
405.04954834,0.00021553
406.97835571,0.00037971
408.90716309,0.00085269
410.83597046,0.00074820
412.76477783,0.00056486
414.69358521,0.00018411
416.62239258,0.00077008
418.55119995,0.00014198
420.48000732,0.00045243
422.40881470,0.00157132
424.33762207,0.00037137
426.26642944,0.00076147
428.19523682,0.00083588
430.12404419,0.00063570
432.05285156,0.00098155
433.98165894,0.00014869
435.91046631,0.00070975
437.83927368,0.00067225
439.76808105,0.00057510
441.69688843,0.00106859
443.62569580,0.00081223
445.55450317,0.00078133
447.48331055,0.00043347
449.41211792,0.00069952
451.34092529,0.00071842
453.26973267,0.00038710
455.19854004,0.00053464
457.12734741,0.00070425
459.05615479,0.00068898
460.98496216,0.00042645
462.91376953,0.00085741
464.84257690,0.00046162
466.77138428,0.00008278
468.70019165,0.00054480
470.62899902,0.00010418
472.55780640,-0.00012893
474.48661377,0.00002387
476.41542114,0.00028394
478.34422852,0.00039851
480.27303589,0.00014960
482.20184326,0.00012467
484.13065063,0.00040434
486.05945801,0.00076613
487.98826538,0.00036284
489.91707275,0.00034533
491.84588013,0.00045807
493.77468750,-0.00018882
495.70349487,-0.00010331
497.63230225,0.00005860
499.56110962,0.00051041
501.48991699,0.00081844
503.41872437,0.00040337
505.34753174,0.00028742
507.27633911,0.00013105
509.20514648,0.00032868
511.13395386,0.00032406
513.06276123,-0.00013387
514.99156860,-0.00012984
516.92037598,0.00001015
518.84918335,0.00008261
520.77799072,0.00000946
522.70679810,0.00006760
524.63560547,0.00023614
526.56441284,0.00037725
528.49322021,0.00010963
530.42202759,0.00019813
532.35083496,0.00047935
534.27964233,0.00019555
536.20844971,0.00035047
538.13725708,0.00014953
540.06606445,-0.00006738
541.99487183,-0.00002757
543.92367920,0.00006860
545.85248657,0.00034920
547.78129395,0.00035443
549.71010132,0.00034919
551.63890869,-0.00003558
553.56771606,0.00003164
555.49652344,0.00031763
557.42533081,0.00007586
559.35413818,-0.00000891
561.28294556,0.00023438
563.21175293,0.00046017
565.14056030,-0.00009905
567.06936768,0.00005431
568.99817505,0.00058199
570.92698242,0.00016033
572.85578979,-0.00007286
574.78459717,0.00030675
576.71340454,0.00047778
578.64221191,0.00016563
580.57101929,-0.00006246
582.49982666,0.00009109
584.42863403,0.00032958
586.35744141,0.00013269
588.28624878,-0.00013942
590.21505615,0.00026591
592.14386353,0.00023589
594.07267090,-0.00002502
596.00147827,0.00047846
597.93028564,0.00043010
599.85909302,0.00019863
601.78790039,0.00025629
603.71670776,0.00007131
605.64551514,0.00040867
607.57432251,0.00052333
609.50312988,0.00016800
611.43193726,0.00012533
613.36074463,0.00007600
615.28955200,0.00021399
617.21835938,0.00039147
619.14716675,0.00019345
621.07597412,0.00024877
623.00478149,-0.00002009
624.93358887,-0.00019719
626.86239624,0.00027844
628.79120361,0.00013177
630.72001099,-0.00003593
632.64881836,0.00026531
634.57762573,0.00033858
636.50643311,0.00050236
638.43524048,0.00036256
640.36404785,0.00039454
642.29285522,0.00078745
644.22166260,0.00093810
646.15046997,0.00086343
648.07927734,0.00076919
650.00808472,0.00119947
651.93689209,0.00081393
653.86569946,0.00060462
655.79450684,0.00129517
657.72331421,0.00095691
659.65212158,0.00097703
661.58092896,0.00088189
663.50973633,0.00083201
665.43854370,0.00138488
667.36735107,0.00074524
669.29615845,0.00102778
671.22496582,0.00154892
673.15377319,0.00081541
675.08258057,0.00073886
677.01138794,0.00088983
678.94019531,0.00111164
680.86900269,0.00131292
682.79781006,0.00111085
684.72661743,0.00144271
686.65542480,0.00167047
688.58423218,0.00128278
690.51303955,0.00138803
692.44184692,0.00159648
694.37065430,0.00143906
696.29946167,0.00142520
698.22826904,0.00195470
700.15707642,0.00252400
702.08588379,0.00210234
704.01469116,0.00173878
705.94349854,0.00167413
707.87230591,0.00147911
709.80111328,0.00115910
711.72992065,0.00059635
713.65872803,0.00058847
715.58753540,0.00035420
717.51634277,0.00014992
719.44515015,0.00037343
721.37395752,0.00011720
723.30276489,0.00006126
725.23157227,0.00025598
727.16037964,-0.00001097
729.08918701,-0.00023653
731.01799438,0.00014397
732.94680176,0.00023509
734.87560913,0.00024493
736.80441650,0.00006440
738.73322388,0.00004453
740.66203125,0.00027327
742.59083862,0.00011412
744.51964600,0.00045187
746.44845337,0.00033196
748.37726074,0.00013835
750.30606812,0.00034629
752.23487549,0.00019119
754.16368286,0.00023523
756.09249023,0.00015692
758.02129761,0.00012648
759.95010498,0.00035092
761.87891235,0.00033452
763.80771973,0.00030580
765.73652710,0.00037250
767.66533447,0.00023615
769.59414185,0.00025701
771.52294922,0.00009143
773.45175659,-0.00007751
775.38056396,0.00047232
777.30937134,0.00029703
779.23817871,0.00010339
781.16698608,0.00021448
783.09579346,0.00011031
785.02460083,0.00063910
786.95340820,0.00027554
788.88221558,0.00019750
790.81102295,0.00045120
792.73983032,0.00000524
794.66863770,0.00030839
796.59744507,-0.00002540
798.52625244,0.00018186
800.45505981,0.00023507
802.38386719,-0.00017173
804.31267456,0.00050105
806.24148193,0.00016340
808.17028931,0.00042455
810.09909668,0.00049475
812.02790405,0.00009549
813.95671143,0.00016153
815.88551880,-0.00009439
817.81432617,0.00041797
819.74313354,0.00023926
821.67194092,0.00045433
823.60074829,0.00059442
825.52955566,0.00012253
827.45836304,0.00035267
829.38717041,0.00015377
831.31597778,0.00043613
833.24478516,0.00038226
835.17359253,0.00035836
837.10239990,0.00063628
839.03120728,0.00033501
840.96001465,0.00052237
842.88882202,0.00047727
844.81762939,0.00047684
846.74643677,0.00060233
848.67524414,0.00052154
850.60405151,0.00054391
852.53285889,0.00048522
854.46166626,0.00055129
856.39047363,0.00051816
858.31928101,0.00035770
860.24808838,0.00027204
862.17689575,0.00045606
864.10570313,0.00033871
866.03451050,0.00010058
867.96331787,0.00031733
869.89212524,0.00033945
871.82093262,0.00038401
873.74973999,0.00034620
875.67854736,0.00010589
877.60735474,0.00007330
879.53616211,0.00008246
881.46496948,0.00003260
883.39377686,0.00019726
885.32258423,0.00029325
887.25139160,0.00006852
889.18019897,0.00037684
891.10900635,0.00052208
893.03781372,0.00020373
894.96662109,0.00033886
896.89542847,0.00035202
898.82423584,0.00026083
900.75304321,0.00031157
902.68185059,0.00030671
904.61065796,0.00030009
906.53946533,0.00027699
908.46827271,0.00037893
910.39708008,0.00041762
912.32588745,0.00027723
914.25469482,0.00021602
916.18350220,0.00028189
918.11230957,0.00043578
920.04111694,0.00038878
921.96992432,0.00028330
923.89873169,0.00044500
925.82753906,0.00043658
927.75634644,0.00053792
929.68515381,0.00067585
931.61396118,0.00063169
933.54276855,0.00081269
935.47157593,0.00083392
937.40038330,0.00075790
939.32919067,0.00082348
941.25799805,0.00096720
943.18680542,0.00095575
945.11561279,0.00090690
947.04442017,0.00092520
948.97322754,0.00081344
950.90203491,0.00084388
952.83084229,0.00065786
954.75964966,0.00079467
956.68845703,0.00107631
958.61726440,0.00090566
960.54607178,0.00099421
962.47487915,0.00079226
964.40368652,0.00082271
966.33249390,0.00107200
968.26130127,0.00079374
970.19010864,0.00095395
972.11891602,0.00108199
974.04772339,0.00096139
975.97653076,0.00118130
977.90533813,0.00118946
979.83414551,0.00131634
981.76295288,0.00156934
983.69176025,0.00146284
985.62056763,0.00191909
987.54937500,0.00212931
989.47818237,0.00187586
991.40698975,0.00236844
993.33579712,0.00257964
995.26460449,0.00287326
997.19341187,0.00303365
999.12221924,0.00269235
1001.05102661,0.00331715
1002.97983398,0.00370803
1004.90864136,0.00377482
1006.83744873,0.00400583
1008.76625610,0.00387502
1010.69506348,0.00440420
1012.62387085,0.00500687
1014.55267822,0.00511407
1016.48148560,0.00527047
1018.41029297,0.00550185
1020.33910034,0.00585703
1022.26790771,0.00606056
1024.19671509,0.00631218
1026.12552246,0.00660786
1028.05432983,0.00669688
1029.98313721,0.00693782
1031.91194458,0.00715274
1033.84075195,0.00726072
1035.76955933,0.00749566
1037.69836670,0.00751729
1039.62717407,0.00744788
1041.55598145,0.00741751
1043.48478882,0.00730285
1045.41359619,0.00741829
1047.34240356,0.00729691
1049.27121094,0.00720442
1051.20001831,0.00725091
1053.12882568,0.00677297
1055.05763306,0.00667341
1056.98644043,0.00655092
1058.91524780,0.00623946
1060.84405518,0.00626382
1062.77286255,0.00607135
1064.70166992,0.00598700
1066.63047729,0.00567978
1068.55928467,0.00532152
1070.48809204,0.00506527
1072.41689941,0.00492839
1074.34570679,0.00513754
1076.27451416,0.00478583
1078.20332153,0.00462143
1080.13212891,0.00444417
1082.06093628,0.00387488
1083.98974365,0.00378522
1085.91855103,0.00369497
1087.84735840,0.00361571
1089.77616577,0.00342565
1091.70497314,0.00316807
1093.63378052,0.00310802
1095.56258789,0.00307440
1097.49139526,0.00297630
1099.42020264,0.00285126
1101.34901001,0.00288126
1103.27781738,0.00262302
1105.20662476,0.00262309
1107.13543213,0.00283164
1109.06423950,0.00260896
1110.99304687,0.00256558
1112.92185425,0.00254121
1114.85066162,0.00260981
1116.77946899,0.00268866
1118.70827637,0.00265421
1120.63708374,0.00274486
1122.56589111,0.00254789
1124.49469849,0.00260860
1126.42350586,0.00278226
1128.35231323,0.00253488
1130.28112061,0.00265103
1132.20992798,0.00293611
1134.13873535,0.00291668
1136.06754272,0.00303908
1137.99635010,0.00329988
1139.92515747,0.00354807
1141.85396484,0.00372403
1143.78277222,0.00383888
1145.71157959,0.00408246
1147.64038696,0.00417786
1149.56919434,0.00438420
1151.49800171,0.00471965
1153.42680908,0.00499459
1155.35561646,0.00532457
1157.28442383,0.00538392
1159.21323120,0.00570301
1161.14203857,0.00593695
1163.07084595,0.00598068
1164.99965332,0.00644637
1166.92846069,0.00652580
1168.85726807,0.00667112
1170.78607544,0.00722888
1172.71488281,0.00737361
1174.64369019,0.00736306
1176.57249756,0.00775068
1178.50130493,0.00805458
1180.43011230,0.00832290
1182.35891968,0.00897127
1184.28772705,0.00920687
1186.21653442,0.00950867
1188.14534180,0.01005386
1190.07414917,0.01042328
1192.00295654,0.01103909
1193.93176392,0.01156314
1195.86057129,0.01218499
1197.78937866,0.01269120
1199.71818604,0.01324330
1201.64699341,0.01391040
1203.57580078,0.01418322
1205.50460815,0.01497059
1207.43341553,0.01552738
1209.36222290,0.01571808
1211.29103027,0.01637009
1213.21983765,0.01692480
1215.14864502,0.01749681
1217.07745239,0.01776795
1219.00625977,0.01783463
1220.93506714,0.01811887
1222.86387451,0.01842512
1224.79268188,0.01867586
1226.72148926,0.01887485
1228.65029663,0.01905043
1230.57910400,0.01886626
1232.50791138,0.01902916
1234.43671875,0.01933456
1236.36552612,0.01905524
1238.29433350,0.01904302
1240.22314087,0.01902824
1242.15194824,0.01896697
1244.08075562,0.01907398
1246.00956299,0.01890346
1247.93837036,0.01887101
1249.86717773,0.01878651
1251.79598511,0.01841559
1253.72479248,0.01833257
1255.65359985,0.01830070
1257.58240723,0.01811700
1259.51121460,0.01769859
1261.44002197,0.01715204
1263.36882935,0.01725112
1265.29763672,0.01707248
1267.22644409,0.01659748
1269.15525146,0.01660768
1271.08405884,0.01639658
1273.01286621,0.01621274
1274.94167358,0.01580392
1276.87048096,0.01545020
1278.79928833,0.01519635
1280.72809570,0.01478990
1282.65690308,0.01477233
1284.58571045,0.01439162
1286.51451782,0.01423001
1288.44332520,0.01393028
1290.37213257,0.01355101
1292.30093994,0.01372758
1294.22974731,0.01347771
1296.15855469,0.01355563
1298.08736206,0.01350218
1300.01616943,0.01355753
1301.94497681,0.01387931
1303.87378418,0.01372206
1305.80259155,0.01383464
1307.73139893,0.01392500
1309.66020630,0.01429438
1311.58901367,0.01446616
1313.51782104,0.01462717
1315.44662842,0.01518320
1317.37543579,0.01548906
1319.30424316,0.01600395
1321.23305054,0.01629221
1323.16185791,0.01692127
1325.09066528,0.01759546
1327.01947266,0.01793933
1328.94828003,0.01851512
1330.87708740,0.01879272
1332.80589478,0.01924803
1334.73470215,0.01955035
1336.66350952,0.01979566
1338.59231689,0.01974531
1340.52112427,0.01972908
1342.44993164,0.02085342
1344.37873901,0.02106928
1346.30754639,0.02074508
1348.23635376,0.02094638
1350.16516113,0.02085433
1352.09396851,0.02065105
1354.02277588,0.02030999
1355.95158325,0.02035146
1357.88039062,0.02036721
1359.80919800,0.01988828
1361.73800537,0.01898072
1363.66681274,0.01868535
1365.59562012,0.01974667
1367.52442749,0.01950036
1369.45323486,0.01920768
1371.38204224,0.01949628
1373.31084961,0.01847325
1375.23965698,0.01861868
1377.16846436,0.01908944
1379.09727173,0.01899752
1381.02607910,0.01925322
1382.95488647,0.01915400
1384.88369385,0.01896221
1386.81250122,0.01827646
1388.74130859,0.01854145
1390.67011597,0.01999263
1392.59892334,0.01968152
1394.52773071,0.01849240
1396.45653809,0.01924066
1398.38534546,0.01927328
1400.31415283,0.01924742
1402.24296021,0.02070295
1404.17176758,0.01944363
1406.10057495,0.01958358
1408.02938232,0.02042438
1409.95818970,0.01949977
1411.88699707,0.02007853
1413.81580444,0.01959369
1415.74461182,0.01982229
1417.67341919,0.01781372
1419.60222656,0.01590222
1421.53103394,0.01837380
1423.45984131,0.01773250
1425.38864868,0.01731585
1427.31745605,0.01765002
1429.24626343,0.01616195
1431.17507080,0.01574739
1433.10387817,0.01601689
1435.03268555,0.01464968
1436.96149292,0.01246097
1438.89030029,0.01422182
1440.81910767,0.01455493
1442.74791504,0.01334584
1444.67672241,0.01407368
1446.60552979,0.01297391
1448.53433716,0.01326874
1450.46314453,0.01388129
1452.39195190,0.01406769
1454.32075928,0.01450661
1456.24956665,0.01208030
1458.17837402,0.01254143
1460.10718140,0.01664087
1462.03598877,0.01778143
1463.96479614,0.01777299
1465.89360352,0.01849155
1467.82241089,0.02067976
1469.75121826,0.02247011
1471.68002563,0.02012020
1473.60883301,0.02097636
1475.53764038,0.02404216
1477.46644775,0.02563326
1479.39525513,0.02839457
1481.32406250,0.02884912
1483.25286987,0.03038622
1485.18167725,0.03156193
1487.11048462,0.03101244
1489.03929199,0.03081083
1490.96809937,0.03091302
1492.89690674,0.03600661
1494.82571411,0.03539941
1496.75452148,0.03187560
1498.68332886,0.03592537
1500.61213623,0.03689356
1502.54094360,0.03953329
1504.46975098,0.03772751
1506.39855835,0.02777649
1508.32736572,0.03334563
1510.25617310,0.03920216
1512.18498047,0.03801554
1514.11378784,0.04107805
1516.04259521,0.03736041
1517.97140259,0.03867385
1519.90020996,0.03753833
1521.82901733,0.03275998
1523.75782471,0.03966363
1525.68663208,0.03913473
1527.61543945,0.03899508
1529.54424683,0.04305812
1531.47305420,0.04161610
1533.40186157,0.03814700
1535.33066895,0.04014578
1537.25947632,0.04341245
1539.18828369,0.03167778
1541.11709106,0.03262429
1543.04589844,0.03895237
1544.97470581,0.03721455
1546.90351318,0.04391351
1548.83232056,0.04127226
1550.76112793,0.04242745
1552.68993530,0.04237995
1554.61874268,0.03853243
1556.54755005,0.04121904
1558.47635742,0.02975216
1560.40516479,0.03165055
1562.33397217,0.04436675
1564.26277954,0.04227641
1566.19158691,0.04337315
1568.12039429,0.04308800
1570.04920166,0.03833216
1571.97800903,0.04386857
1573.90681641,0.04474181
1575.83562378,0.03563794
1577.76443115,0.03997596
1579.69323853,0.04525185
1581.62204590,0.04325269
1583.55085327,0.04446170
1585.47966064,0.04398164
1587.40846802,0.04408563
1589.33727539,0.04371008
1591.26608276,0.04387247
1593.19489014,0.04391728
1595.12369751,0.04350755
1597.05250488,0.04404963
1598.98131226,0.04373598
1600.91011963,0.04420080
1602.83892700,0.04327263
1604.76773437,0.04406383
1606.69654175,0.04354237
1608.62534912,0.04341660
1610.55415649,0.04349801
1612.48296387,0.04362137
1614.41177124,0.04443893
1616.34057861,0.03672368
1618.26938599,0.03949010
1620.19819336,0.04591981
1622.12700073,0.04100308
1624.05580811,0.04113194
1625.98461548,0.04313695
1627.91342285,0.04300349
1629.84223022,0.04254936
1631.77103760,0.04542015
1633.69984497,0.04231973
1635.62865234,0.03501233
1637.55745972,0.04034894
1639.48626709,0.04445090
1641.41507446,0.04352190
1643.34388184,0.04471269
1645.27268921,0.04057046
1647.20149658,0.03562864
1649.13030396,0.04386907
1651.05911133,0.04214045
1652.98791870,0.02756318
1654.91672607,0.03653550
1656.84553345,0.04577076
1658.77434082,0.04379436
1660.70314819,0.04520894
1662.63195557,0.04138311
1664.56076294,0.04327310
1666.48957031,0.04662547
1668.41837769,0.04097140
1670.34718506,0.03946993
1672.27599243,0.04476300
1674.20479980,0.04170923
1676.13360718,0.03989468
1678.06241455,0.04574062
1679.99122192,0.04417114
1681.92002930,0.04383887
1683.84883667,0.03610115
1685.77764404,0.03542237
1687.70645142,0.04826938
1689.63525879,0.04205574
1691.56406616,0.04570685
1693.49287354,0.04721431
1695.42168091,0.03473947
1697.35048828,0.04226264
1699.27929565,0.03782368
1701.20810303,0.03371051
1703.13691040,0.04557408
1705.06571777,0.04218974
1706.99452515,0.04223632
1708.92333252,0.04605402
1710.85213989,0.04416522
1712.78094727,0.04495493
1714.70975464,0.04208928
1716.63856201,0.03778272
1718.56736938,0.03701963
1720.49617676,0.04362968
1722.42498413,0.04553492
1724.35379150,0.04229183
1726.28259888,0.04604916
1728.21140625,0.04277907
1730.14021362,0.04277538
1732.06902100,0.04223201
1733.99782837,0.03251278
1735.92663574,0.03957826
1737.85544312,0.04395688
1739.78425049,0.03928753
1741.71305786,0.04260484
1743.64186523,0.04329143
1745.57067261,0.04355579
1747.49947998,0.04375979
1749.42828735,0.04201131
1751.35709473,0.04031469
1753.28590210,0.04408902
1755.21470947,0.04642297
1757.14351685,0.04234510
1759.07232422,0.04645567
1761.00113159,0.04405719
1762.92993896,0.04220184
1764.85874634,0.04843862
1766.78755371,0.04366853
1768.71636108,0.04386464
1770.64516846,0.04394068
1772.57397583,0.03958774
1774.50278320,0.04392700
1776.43159058,0.04631015
1778.36039795,0.04586194
1780.28920532,0.04523701
1782.21801270,0.04553245
1784.14682007,0.04555023
1786.07562744,0.04455385
1788.00443481,0.04694143
1789.93324219,0.04593599
1791.86204956,0.04167721
1793.79085693,0.04321785
1795.71966431,0.04647224
1797.64847168,0.04595948
1799.57727905,0.04512661
1801.50608643,0.04456485
1803.43489380,0.04595046
1805.36370117,0.04704142
1807.29250854,0.04634199
1809.22131592,0.04647153
1811.15012329,0.04545708
1813.07893066,0.04669569
1815.00773804,0.04692794
1816.93654541,0.04641535
1818.86535278,0.04683722
1820.79416016,0.04667885
1822.72296753,0.04756816
1824.65177490,0.04445762
1826.58058228,0.04584089
1828.50938965,0.04616973
1830.43819702,0.04316463
1832.36700439,0.04722223
1834.29581177,0.04699785
1836.22461914,0.04664305
1838.15342651,0.04669282
1840.08223389,0.04672920
1842.01104126,0.04698427
1843.93984863,0.04190059
1845.86865601,0.04447151
1847.79746338,0.04701931
1849.72627075,0.04590024
1851.65507812,0.04730118
1853.58388550,0.04639743
1855.51269287,0.04696771
1857.44150024,0.04671049
1859.37030762,0.04640956
1861.29911499,0.04689862
1863.22792236,0.04628666
1865.15672974,0.04678585
1867.08553711,0.04543097
1869.01434448,0.04357369
1870.94315186,0.04513461
1872.87195923,0.04695228
1874.80076660,0.04618160
1876.72957397,0.04641721
1878.65838135,0.04631709
1880.58718872,0.04595307
1882.51599609,0.04667499
1884.44480347,0.04581300
1886.37361084,0.04625197
1888.30241821,0.04548679
1890.23122559,0.04459821
1892.16003296,0.04625919
1894.08884033,0.04574554
1896.01764771,0.04559335
1897.94645508,0.04600684
1899.87526245,0.04589766
1901.80406982,0.04604679
1903.73287720,0.04559426
1905.66168457,0.04599445
1907.59049194,0.04559186
1909.51929932,0.04526036
1911.44810669,0.04569198
1913.37691406,0.04556739
1915.30572144,0.04587705
1917.23452881,0.04412813
1919.16333618,0.04410636
1921.09214355,0.04581379
1923.02095093,0.04442852
1924.94975830,0.04520399
1926.87856567,0.04584201
1928.80737305,0.04519526
1930.73618042,0.04578706
1932.66498779,0.04531374
1934.59379517,0.04573046
1936.52260254,0.04546347
1938.45140991,0.04545165
1940.38021729,0.04564631
1942.30902466,0.04426975
1944.23783203,0.04484133
1946.16663940,0.04545184
1948.09544678,0.04545459
1950.02425415,0.04556858
1951.95306152,0.04536827
1953.88186890,0.04536923
1955.81067627,0.04534725
1957.73948364,0.04560044
1959.66829102,0.04542654
1961.59709839,0.04541535
1963.52590576,0.04553651
1965.45471313,0.04522248
1967.38352051,0.04479202
1969.31232788,0.04507052
1971.24113525,0.04554514
1973.16994263,0.04523247
1975.09875000,0.04538755
1977.02755737,0.04527259
1978.95636475,0.04521095
1980.88517212,0.04529652
1982.81397949,0.04521018
1984.74278687,0.04545415
1986.67159424,0.04503711
1988.60040161,0.04503504
1990.52920898,0.04476857
1992.45801636,0.04427659
1994.38682373,0.04483752
1996.31563110,0.04498921
1998.24443848,0.04491520
2000.17324585,0.04499317
2002.10205322,0.04471464
2004.03086060,0.04460099
2005.95966797,0.04476514
2007.88847534,0.04459164
2009.81728271,0.04448430
2011.74609009,0.04443585
2013.67489746,0.04445256
2015.60370483,0.04430446
2017.53251221,0.04382502
2019.46131958,0.04424558
2021.39012695,0.04439318
2023.31893433,0.04414186
2025.24774170,0.04419798
2027.17654907,0.04403266
2029.10535645,0.04408281
2031.03416382,0.04397970
2032.96297119,0.04391044
2034.89177856,0.04379069
2036.82058594,0.04370167
2038.74939331,0.04377369
2040.67820068,0.04342834
2042.60700806,0.04335472
2044.53581543,0.04350475
2046.46462280,0.04354434
2048.39343018,0.04350865
2050.32223755,0.04337456
2052.25104492,0.04324773
2054.17985229,0.04311205
2056.10865967,0.04316967
2058.03746704,0.04312922
2059.96627441,0.04291598
2061.89508179,0.04306785
2063.82388916,0.04296911
2065.75269653,0.04264536
2067.68150391,0.04284006
2069.61031128,0.04276489
2071.53911865,0.04276424
2073.46792603,0.04273616
2075.39673340,0.04244204
2077.32554077,0.04262729
2079.25434814,0.04253116
2081.18315552,0.04250666
2083.11196289,0.04247466
2085.04077026,0.04231711
2086.96957764,0.04246272
2088.89838501,0.04228830
2090.82719238,0.04210244
2092.75599976,0.04205106
2094.68480713,0.04217632
2096.61361450,0.04210857
2098.54242187,0.04194574
2100.47122925,0.04204670
2102.40003662,0.04201244
2104.32884399,0.04197150
2106.25765137,0.04182760
2108.18645874,0.04175686
2110.11526611,0.04168981
2112.04407349,0.04178806
2113.97288086,0.04187085
2115.90168823,0.04164969
2117.83049561,0.04167699
2119.75930298,0.04154231
2121.68811035,0.04146565
2123.61691772,0.04148748
2125.54572510,0.04143649
2127.47453247,0.04158583
2129.40333984,0.04154088
2131.33214722,0.04145174
2133.26095459,0.04137535
2135.18976196,0.04122434
2137.11856934,0.04126699
2139.04737671,0.04130765
2140.97618408,0.04119003
2142.90499146,0.04118020
2144.83379883,0.04107901
2146.76260620,0.04098644
2148.69141357,0.04096843
2150.62022095,0.04087530
2152.54902832,0.04100457
2154.47783569,0.04101987
2156.40664307,0.04099485
2158.33545044,0.04096755
2160.26425781,0.04092388
2162.19306519,0.04094056
2164.12187256,0.04088331
2166.05067993,0.04094211
2167.97948730,0.04086087
2169.90829468,0.04089503
2171.83710205,0.04080968
2173.76590942,0.04065026
2175.69471680,0.04076379
2177.62352417,0.04071869
2179.55233154,0.04073937
2181.48113892,0.04075552
2183.40994629,0.04075460
2185.33875366,0.04061776
2187.26756104,0.04056407
2189.19636841,0.04058101
2191.12517578,0.04044829
2193.05398315,0.04050849
2194.98279053,0.04041291
2196.91159790,0.04045834
2198.84040527,0.04045837
2200.76921265,0.04038318
2202.69802002,0.04039356
2204.62682739,0.04027483
2206.55563477,0.04040989
2208.48444214,0.04030531
2210.41324951,0.04015243
2212.34205688,0.04020935
2214.27086426,0.04024608
2216.19967163,0.04019232
2218.12847900,0.04011574
2220.05728638,0.04015310
2221.98609375,0.03999235
2223.91490112,0.04000141
2225.84370850,0.04007046
2227.77251587,0.04001306
2229.70132324,0.04001062
2231.63013062,0.03996528
2233.55893799,0.03983577
2235.48774536,0.03974704
2237.41655273,0.03975929
2239.34536011,0.03967820
2241.27416748,0.03972557
2243.20297485,0.03964071
2245.13178223,0.03968157
2247.06058960,0.03966632
2248.98939697,0.03938716
2250.91820435,0.03954717
2252.84701172,0.03946694
2254.77581909,0.03938868
2256.70462646,0.03946584
2258.63343384,0.03941730
2260.56224121,0.03940306
2262.49104858,0.03930698
2264.41985596,0.03932858
2266.34866333,0.03924310
2268.27747070,0.03925852
2270.20627808,0.03921159
2272.13508545,0.03920818
2274.06389282,0.03924426
2275.99270020,0.03904821
2277.92150757,0.03917391
2279.85031494,0.03911658
2281.77912231,0.03902072
2283.70792969,0.03910044
2285.63673706,0.03900250
2287.56554443,0.03889276
2289.49435181,0.03883716
2291.42315918,0.03887415
2293.35196655,0.03872577
2295.28077393,0.03852802
2297.20958130,0.03847415
2299.13838867,0.03845654
2301.06719604,0.03831147
2302.99600342,0.03806859
2304.92481079,0.03794625
2306.85361816,0.03783491
2308.78242554,0.03760037
2310.71123291,0.03732120
2312.64004028,0.03700374
2314.56884766,0.03661008
2316.49765503,0.03637246
2318.42646240,0.03594577
2320.35526978,0.03539887
2322.28407715,0.03497923
2324.21288452,0.03463339
2326.14169189,0.03433590
2328.07049927,0.03378223
2329.99930664,0.03357798
2331.92811401,0.03339880
2333.85692139,0.03315280
2335.78572876,0.03315704
2337.71453613,0.03298732
2339.64334351,0.03293144
2341.57215088,0.03306755
2343.50095825,0.03358318
2345.42976562,0.03416727
2347.35857300,0.03555128
2349.28738037,0.03672317
2351.21618774,0.03545398
2353.14499512,0.03378589
2355.07380249,0.03269095
2357.00260986,0.03182325
2358.93141724,0.03128597
2360.86022461,0.03092965
2362.78903198,0.03082992
2364.71783936,0.03096521
2366.64664673,0.03147444
2368.57545410,0.03187604
2370.50426147,0.03268929
2372.43306885,0.03363626
2374.36187622,0.03436163
2376.29068359,0.03532552
2378.21949097,0.03600764
2380.14829834,0.03670884
2382.07710571,0.03719251
2384.00591309,0.03731582
2385.93472046,0.03745140
2387.86352783,0.03748264
2389.79233521,0.03742035
2391.72114258,0.03743052
2393.64994995,0.03743146
2395.57875732,0.03734053
2397.50756470,0.03746904
2399.43637207,0.03729948
2401.36517944,0.03720573
2403.29398682,0.03731579
2405.22279419,0.03723868
2407.15160156,0.03733259
2409.08040894,0.03718515
2411.00921631,0.03721555
2412.93802368,0.03728127
2414.86683105,0.03709917
2416.79563843,0.03710063
2418.72444580,0.03706021
2420.65325317,0.03711751
2422.58206055,0.03707703
2424.51086792,0.03691385
2426.43967529,0.03693724
2428.36848267,0.03700507
2430.29729004,0.03691114
2432.22609741,0.03681385
2434.15490479,0.03680594
2436.08371216,0.03675500
2438.01251953,0.03681111
2439.94132690,0.03688273
2441.87013428,0.03678726
2443.79894165,0.03665961
2445.72774902,0.03666773
2447.65655640,0.03658731
2449.58536377,0.03655300
2451.51417114,0.03656381
2453.44297852,0.03646143
2455.37178589,0.03647579
2457.30059326,0.03638995
2459.22940063,0.03640632
2461.15820801,0.03642968
2463.08701538,0.03637436
2465.01582275,0.03635038
2466.94463013,0.03626892
2468.87343750,0.03633735
2470.80224487,0.03631267
2472.73105225,0.03629810
2474.65985962,0.03625647
2476.58866699,0.03619115
2478.51747437,0.03609780
2480.44628174,0.03603327
2482.37508911,0.03614321
2484.30389648,0.03606135
2486.23270386,0.03613497
2488.16151123,0.03610834
2490.09031860,0.03592429
2492.01912598,0.03595760
2493.94793335,0.03602856
2495.87674072,0.03595590
2497.80554810,0.03581501
2499.73435547,0.03589779
2501.66316284,0.03581643
2503.59197021,0.03580085
2505.52077759,0.03575574
2507.44958496,0.03572539
2509.37839233,0.03576648
2511.30719971,0.03562513
2513.23600708,0.03577841
2515.16481445,0.03557894
2517.09362183,0.03549527
2519.02242920,0.03561132
2520.95123657,0.03546974
2522.88004395,0.03544899
2524.80885132,0.03543802
2526.73765869,0.03557913
2528.66646606,0.03538412
2530.59527344,0.03540303
2532.52408081,0.03541155
2534.45288818,0.03526845
2536.38169556,0.03546119
2538.31050293,0.03526902
2540.23931030,0.03530509
2542.16811768,0.03530844
2544.09692505,0.03520820
2546.02573242,0.03511921
2547.95453979,0.03504494
2549.88334717,0.03520387
2551.81215454,0.03501354
2553.74096191,0.03500865
2555.66976929,0.03496388
2557.59857666,0.03497855
2559.52738403,0.03496839
2561.45619141,0.03481213
2563.38499878,0.03493575
2565.31380615,0.03475080
2567.24261353,0.03481785
2569.17142090,0.03490884
2571.10022827,0.03482542
2573.02903564,0.03478675
2574.95784302,0.03469409
2576.88665039,0.03475370
2578.81545776,0.03457602
2580.74426514,0.03461692
2582.67307251,0.03463707
2584.60187988,0.03449402
2586.53068726,0.03460525
2588.45949463,0.03449463
2590.38830200,0.03440051
2592.31710937,0.03452899
2594.24591675,0.03449029
2596.17472412,0.03439859
2598.10353149,0.03440945
2600.03233887,0.03430469
2601.96114624,0.03434998
2603.88995361,0.03436838
2605.81876099,0.03422218
2607.74756836,0.03418953
2609.67637573,0.03419778
2611.60518311,0.03423490
2613.53399048,0.03413638
2615.46279785,0.03415345
2617.39160522,0.03407312
2619.32041260,0.03396891
2621.24921997,0.03400090
2623.17802734,0.03391921
2625.10683472,0.03401974
2627.03564209,0.03395738
2628.96444946,0.03390491
2630.89325684,0.03384629
2632.82206421,0.03381711
2634.75087158,0.03383269
2636.67967895,0.03365115
2638.60848633,0.03386267
2640.53729370,0.03383397
2642.46610107,0.03366708
2644.39490845,0.03369910
2646.32371582,0.03364331
2648.25252319,0.03366360
2650.18133057,0.03352614
2652.11013794,0.03357947
2654.03894531,0.03358420
2655.96775269,0.03333498
2657.89656006,0.03336700
2659.82536743,0.03348064
2661.75417480,0.03329348
2663.68298218,0.03325100
2665.61178955,0.03333542
2667.54059692,0.03316335
2669.46940430,0.03324666
2671.39821167,0.03319571
2673.32701904,0.03309063
2675.25582642,0.03312749
2677.18463379,0.03303335
2679.11344116,0.03314396
2681.04224854,0.03306662
2682.97105591,0.03304470
2684.89986328,0.03308044
2686.82867065,0.03290890
2688.75747803,0.03283135
2690.68628540,0.03286821
2692.61509277,0.03292394
2694.54390015,0.03278911
2696.47270752,0.03280892
2698.40151489,0.03278387
2700.33032227,0.03270399
2702.25912964,0.03271746
2704.18793701,0.03262764
2706.11674438,0.03277276
2708.04555176,0.03275179
2709.97435913,0.03254344
2711.90316650,0.03251446
2713.83197388,0.03255528
2715.76078125,0.03251829
2717.68958862,0.03243471
2719.61839600,0.03245234
2721.54720337,0.03238617
2723.47601074,0.03239401
2725.40481812,0.03244238
2727.33362549,0.03236365
2729.26243286,0.03225379
2731.19124023,0.03225191
2733.12004761,0.03234064
2735.04885498,0.03220548
2736.97766235,0.03211449
2738.90646973,0.03212725
2740.83527710,0.03203559
2742.76408447,0.03197933
2744.69289185,0.03200723
2746.62169922,0.03205131
2748.55050659,0.03198966
2750.47931396,0.03193253
2752.40812134,0.03184461
2754.33692871,0.03175604
2756.26573608,0.03177773
2758.19454346,0.03171538
2760.12335083,0.03165264
2762.05215820,0.03166424
2763.98096558,0.03173207
2765.90977295,0.03172222
2767.83858032,0.03152009
2769.76738770,0.03149322
2771.69619507,0.03154015
2773.62500244,0.03144575
2775.55380981,0.03137917
2777.48261719,0.03138123
2779.41142456,0.03146079
2781.34023193,0.03136258
2783.26903931,0.03126956
2785.19784668,0.03129011
2787.12665405,0.03118834
2789.05546143,0.03118199
2790.98426880,0.03116329
2792.91307617,0.03111161
2794.84188354,0.03104354
2796.77069092,0.03099426
2798.69949829,0.03095589
2800.62830566,0.03086678
2802.55711304,0.03092288
2804.48592041,0.03077327
2806.41472778,0.03070085
2808.34353516,0.03080194
2810.27234253,0.03069395
2812.20114990,0.03066443
2814.12995728,0.03059879
2816.05876465,0.03051397
2817.98757202,0.03047997
2819.91637939,0.03049982
2821.84518677,0.03050555
2823.77399414,0.03041004
2825.70280151,0.03038616
2827.63160889,0.03032814
2829.56041626,0.03029217
2831.48922363,0.03024252
2833.41803101,0.03013528
2835.34683838,0.03009458
2837.27564575,0.03010252
2839.20445312,0.03001097
2841.13326050,0.02994137
2843.06206787,0.02993634
2844.99087524,0.02975158
2846.91968262,0.02966904
2848.84848999,0.02952837
2850.77729736,0.02944189
2852.70610474,0.02947443
2854.63491211,0.02935433
2856.56371948,0.02942824
2858.49252686,0.02934717
2860.42133423,0.02929118
2862.35014160,0.02923170
2864.27894897,0.02903436
2866.20775635,0.02922628
2868.13656372,0.02930785
2870.06537109,0.02921358
2871.99417847,0.02906471
2873.92298584,0.02906248
2875.85179321,0.02914171
2877.78060059,0.02894051
2879.70940796,0.02899767
2881.63821533,0.02901564
2883.56702270,0.02895804
2885.49583008,0.02904764
2887.42463745,0.02890453
2889.35344482,0.02886705
2891.28225220,0.02883109
2893.21105957,0.02872372
2895.13986694,0.02870169
2897.06867432,0.02851267
2898.99748169,0.02847353
2900.92628906,0.02853274
2902.85509644,0.02846073
2904.78390381,0.02836782
2906.71271118,0.02829067
2908.64151855,0.02831482
2910.57032593,0.02815093
2912.49913330,0.02810204
2914.42794067,0.02810967
2916.35674805,0.02786724
2918.28555542,0.02787579
2920.21436279,0.02777469
2922.14317017,0.02769497
2924.07197754,0.02775149
2926.00078491,0.02767541
2927.92959229,0.02770562
2929.85839966,0.02763570
2931.78720703,0.02766018
2933.71601440,0.02766410
2935.64482178,0.02767876
2937.57362915,0.02776555
2939.50243652,0.02766071
2941.43124390,0.02767249
2943.36005127,0.02759836
2945.28885864,0.02758355
2947.21766602,0.02763791
2949.14647339,0.02761705
2951.07528076,0.02762789
2953.00408813,0.02742403
2954.93289551,0.02735494
2956.86170288,0.02730498
2958.79051025,0.02716291
2960.71931763,0.02722009
2962.64812500,0.02716609
2964.57693237,0.02702873
2966.50573975,0.02704715
2968.43454712,0.02712583
2970.36335449,0.02714846
2972.29216187,0.02711926
2974.22096924,0.02719907
2976.14977661,0.02728177
2978.07858398,0.02712802
2980.00739136,0.02714331
2981.93619873,0.02721693
2983.86500610,0.02714325
2985.79381348,0.02725146
2987.72262085,0.02713941
2989.65142822,0.02702382
2991.58023560,0.02719128
2993.50904297,0.02713228
2995.43785034,0.02698573
2997.36665771,0.02706606
2999.29546509,0.02708970
3001.22427246,0.02693311
3003.15307983,0.02693869
3005.08188721,0.02690944
3007.01069458,0.02688592
3008.93950195,0.02688470
3010.86830933,0.02664289
3012.79711670,0.02663825
3014.72592407,0.02667397
3016.65473145,0.02652241
3018.58353882,0.02650123
3020.51234619,0.02656256
3022.44115356,0.02660546
3024.36996094,0.02651545
3026.29876831,0.02641154
3028.22757568,0.02636226
3030.15638306,0.02630476
3032.08519043,0.02630252
3034.01399780,0.02631855
3035.94280518,0.02624713
3037.87161255,0.02612700
3039.80041992,0.02604748
3041.72922729,0.02605411
3043.65803467,0.02611686
3045.58684204,0.02604994
3047.51564941,0.02598314
3049.44445679,0.02594362
3051.37326416,0.02582075
3053.30207153,0.02583223
3055.23087891,0.02586267
3057.15968628,0.02580855
3059.08849365,0.02581309
3061.01730103,0.02578110
3062.94610840,0.02562772
3064.87491577,0.02552632
3066.80372314,0.02558506
3068.73253052,0.02560009
3070.66133789,0.02554227
3072.59014526,0.02553475
3074.51895264,0.02545092
3076.44776001,0.02537245
3078.37656738,0.02534332
3080.30537476,0.02521329
3082.23418213,0.02522369
3084.16298950,0.02527149
3086.09179687,0.02520420
3088.02060425,0.02522681
3089.94941162,0.02514986
3091.87821899,0.02506682
3093.80702637,0.02506544
3095.73583374,0.02493769
3097.66464111,0.02493965
3099.59344849,0.02500191
3101.52225586,0.02484557
3103.45106323,0.02482514
3105.37987061,0.02484790
3107.30867798,0.02465122
3109.23748535,0.02467499
3111.16629272,0.02471069
3113.09510010,0.02455610
3115.02390747,0.02454035
3116.95271484,0.02442179
3118.88152222,0.02440444
3120.81032959,0.02454475
3122.73913696,0.02435874
3124.66794434,0.02428767
3126.59675171,0.02430604
3128.52555908,0.02421020
3130.45436645,0.02436074
3132.38317383,0.02424230
3134.31198120,0.02400376
3136.24078857,0.02404575
3138.16959595,0.02399354
3140.09840332,0.02394167
3142.02721069,0.02392143
3143.95601807,0.02388672
3145.88482544,0.02374182
3147.81363281,0.02369967
3149.74244019,0.02370705
3151.67124756,0.02360325
3153.60005493,0.02366725
3155.52886230,0.02347556
3157.45766968,0.02345973
3159.38647705,0.02363199
3161.31528442,0.02344311
3163.24409180,0.02334103
3165.17289917,0.02327734
3167.10170654,0.02323022
3169.03051392,0.02310726
3170.95932129,0.02308195
3172.88812866,0.02310191
3174.81693604,0.02295158
3176.74574341,0.02290945
3178.67455078,0.02290082
3180.60335815,0.02296213
3182.53216553,0.02276975
3184.46097290,0.02270389
3186.38978027,0.02274773
3188.31858765,0.02252702
3190.24739502,0.02264966
3192.17620239,0.02266591
3194.10500977,0.02252342
3196.03381714,0.02243054
3197.96262451,0.02235691
3199.89143188,0.02240102
3201.82023926,0.02236345
3203.74904663,0.02235397
3205.67785400,0.02228359
3207.60666138,0.02226705
3209.53546875,0.02229052
3211.46427612,0.02219574
3213.39308350,0.02208006
3215.32189087,0.02210538
3217.25069824,0.02209974
3219.17950562,0.02198147
3221.10831299,0.02200038
3223.03712036,0.02186405
3224.96592773,0.02195306
3226.89473511,0.02203416
3228.82354248,0.02177636
3230.75234985,0.02181803
3232.68115723,0.02186141
3234.60996460,0.02183044
3236.53877197,0.02181072
3238.46757935,0.02179821
3240.39638672,0.02177011
3242.32519409,0.02173227
3244.25400146,0.02166665
3246.18280884,0.02150711
3248.11161621,0.02162794
3250.04042358,0.02165870
3251.96923096,0.02156009
3253.89803833,0.02158737
3255.82684570,0.02158809
3257.75565308,0.02155547
3259.68446045,0.02153205
3261.61326782,0.02161840
3263.54207520,0.02154773
3265.47088257,0.02147299
3267.39968994,0.02142985
3269.32849731,0.02135122
3271.25730469,0.02138998
3273.18611206,0.02134982
3275.11491943,0.02130748
3277.04372681,0.02130132
3278.97253418,0.02136724
3280.90134155,0.02138219
3282.83014893,0.02128373
3284.75895630,0.02129456
3286.68776367,0.02128253
3288.61657104,0.02121580
3290.54537842,0.02129640
3292.47418579,0.02124623
3294.40299316,0.02110540
3296.33180054,0.02120184
3298.26060791,0.02107754
3300.18941528,0.02108094
3302.11822266,0.02119512
3304.04703003,0.02102344
3305.97583740,0.02109793
3307.90464478,0.02101206
3309.83345215,0.02089687
3311.76225952,0.02107164
3313.69106689,0.02104251
3315.61987427,0.02095638
3317.54868164,0.02102214
3319.47748901,0.02097045
3321.40629639,0.02089401
3323.33510376,0.02094144
3325.26391113,0.02082952
3327.19271851,0.02089091
3329.12152588,0.02092053
3331.05033325,0.02084777
3332.97914062,0.02089397
3334.90794800,0.02071762
3336.83675537,0.02070758
3338.76556274,0.02069162
3340.69437012,0.02058784
3342.62317749,0.02059015
3344.55198486,0.02063401
3346.48079224,0.02067956
3348.40959961,0.02061135
3350.33840698,0.02061982
3352.26721436,0.02055031
3354.19602173,0.02054208
3356.12482910,0.02048718
3358.05363647,0.02045142
3359.98244385,0.02048276
3361.91125122,0.02034097
3363.84005859,0.02038378
3365.76886597,0.02033484
3367.69767334,0.02029521
3369.62648071,0.02029787
3371.55528809,0.02023002
3373.48409546,0.02016646
3375.41290283,0.02010071
3377.34171020,0.02017992
3379.27051758,0.02013579
3381.19932495,0.02012344
3383.12813232,0.02001024
3385.05693970,0.01995903
3386.98574707,0.01998833
3388.91455444,0.01996401
3390.84336182,0.02003677
3392.77216919,0.01986405
3394.70097656,0.01991576
3396.62978394,0.01986436
3398.55859131,0.01974477
3400.48739868,0.01981662
3402.41620605,0.01965437
3404.34501343,0.01971068
3406.27382080,0.01975632
3408.20262817,0.01969909
3410.13143555,0.01966218
3412.06024292,0.01967308
3413.98905029,0.01962345
3415.91785767,0.01955216
3417.84666504,0.01964474
3419.77547241,0.01951268
3421.70427979,0.01945011
3423.63308716,0.01944995
3425.56189453,0.01944716
3427.49070190,0.01941209
3429.41950928,0.01929705
3431.34831665,0.01938227
3433.27712402,0.01940688
3435.20593140,0.01935836
3437.13473877,0.01933151
3439.06354614,0.01928902
3440.99235352,0.01911854
3442.92116089,0.01910450
3444.84996826,0.01908329
3446.77877563,0.01887827
3448.70758301,0.01901772
3450.63639038,0.01910276
3452.56519775,0.01903168
3454.49400513,0.01900783
3456.42281250,0.01901003
3458.35161987,0.01899874
3460.28042725,0.01895219
3462.20923462,0.01891105
3464.13804199,0.01887854
3466.06684937,0.01893787
3467.99565674,0.01893372
3469.92446411,0.01896732
3471.85327148,0.01885739
3473.78207886,0.01882330
3475.71088623,0.01882492
3477.63969360,0.01876358
3479.56850098,0.01886126
3481.49730835,0.01861417
3483.42611572,0.01865168
3485.35492310,0.01873224
3487.28373047,0.01863032
3489.21253784,0.01869823
3491.14134521,0.01867198
3493.07015259,0.01884750
3494.99895996,0.01868023
3496.92776733,0.01850545
3498.85657471,0.01873059
3500.78538208,0.01877614
3502.71418945,0.01839574
3504.64299683,0.01836190
3506.57180420,0.01879225
3508.50061157,0.01852172
3510.42941895,0.01853569
3512.35822632,0.01878378
3514.28703369,0.01875581
3516.21584106,0.01878107
3518.14464844,0.01852834
3520.07345581,0.01863862
3522.00226318,0.01857069
3523.93107056,0.01824762
3525.85987793,0.01828099
3527.78868530,0.01827214
3529.71749268,0.01842059
3531.64630005,0.01868833
3533.57510742,0.01871416
3535.50391479,0.01856995
3537.43272217,0.01846128
3539.36152954,0.01858651
3541.29033691,0.01871425
3543.21914429,0.01848713
3545.14795166,0.01816068
3547.07675903,0.01796502
3549.00556641,0.01841397
3550.93437378,0.01857676
3552.86318115,0.01818736
3554.79198853,0.01852757
3556.72079590,0.01855125
3558.64960327,0.01855718
3560.57841064,0.01842397
3562.50721802,0.01823594
3564.43602539,0.01847853
3566.36483276,0.01724777
3568.29364014,0.01690166
3570.22244751,0.01824293
3572.15125488,0.01858916
3574.08006226,0.01843428
3576.00886963,0.01840139
3577.93767700,0.01836715
3579.86648437,0.01838846
3581.79529175,0.01834376
3583.72409912,0.01837838
3585.65290649,0.01800187
3587.58171387,0.01679950
3589.51052124,0.01713452
3591.43932861,0.01844797
3593.36813599,0.01812319
3595.29694336,0.01775280
3597.22575073,0.01814037
3599.15455811,0.01829683
3601.08336548,0.01810039
3603.01217285,0.01826476
3604.94098022,0.01857609
3606.86978760,0.01804084
3608.79859497,0.01690163
3610.72740234,0.01727607
3612.65620972,0.01772488
3614.58501709,0.01727999
3616.51382446,0.01845466
3618.44263184,0.01704558
3620.37143921,0.01652491
3622.30024658,0.01846359
3624.22905395,0.01804542
3626.15786133,0.01893863
3628.08666870,0.01615324
3630.01547607,0.01470854
3631.94428345,0.01831155
3633.87309082,0.01788852
3635.80189819,0.01812121
3637.73070557,0.01859285
3639.65951294,0.01828429
3641.58832031,0.01844200
3643.51712769,0.01825760
3645.44593506,0.01840818
3647.37474243,0.01671065
3649.30354980,0.01539829
3651.23235718,0.01548571
3653.16116455,0.01816725
3655.08997192,0.01805444
3657.01877930,0.01616896
3658.94758667,0.01848763
3660.87639404,0.01824825
3662.80520142,0.01840414
3664.73400879,0.01840784
3666.66281616,0.01818241
3668.59162354,0.01773887
3670.52043091,0.01466021
3672.44923828,0.01747468
3674.37804565,0.01675212
3676.30685303,0.01399957
3678.23566040,0.01738754
3680.16446777,0.01769822
3682.09327515,0.01781945
3684.02208252,0.01823638
3685.95088989,0.01791031
3687.87969727,0.01637791
3689.80850464,0.01495887
3691.73731201,0.01703421
3693.66611938,0.01751511
3695.59492676,0.01789184
3697.52373413,0.01789268
3699.45254150,0.01769995
3701.38134888,0.01735976
3703.31015625,0.01660481
3705.23896362,0.01823612
3707.16777100,0.01748415
3709.09657837,0.01711682
3711.02538574,0.01608239
3712.95419312,0.01513257
3714.88300049,0.01767190
3716.81180786,0.01727520
3718.74061523,0.01752055
3720.66942261,0.01717533
3722.59822998,0.01662869
3724.52703735,0.01719114
3726.45584473,0.01592704
3728.38465210,0.01726044
3730.31345947,0.01706783
3732.24226685,0.01595959
3734.17107422,0.01546514
3736.09988159,0.01462285
3738.02868896,0.01542470
3739.95749634,0.01661929
3741.88630371,0.01760402
3743.81511108,0.01370758
3745.74391846,0.01300838
3747.67272583,0.01672351
3749.60153320,0.01445645
3751.53034058,0.01347481
3753.45914795,0.01519934
3755.38795532,0.01631754
3757.31676270,0.01701961
3759.24557007,0.01588857
3761.17437744,0.01636339
3763.10318481,0.01729734
3765.03199219,0.01630499
3766.96079956,0.01647057
3768.88960693,0.01633172
3770.81841431,0.01565643
3772.74722168,0.01684762
3774.67602905,0.01697819
3776.60483643,0.01691881
3778.53364380,0.01644613
3780.46245117,0.01583529
3782.39125854,0.01686628
3784.32006592,0.01654550
3786.24887329,0.01645991
3788.17768066,0.01675991
3790.10648804,0.01663471
3792.03529541,0.01659255
3793.96410278,0.01677397
3795.89291016,0.01583042
3797.82171753,0.01576209
3799.75052490,0.01648208
3801.67933228,0.01318848
3803.60813965,0.01530305
3805.53694702,0.01661488
3807.46575439,0.01383198
3809.39456177,0.01656571
3811.32336914,0.01623107
3813.25217651,0.01669264
3815.18098389,0.01517003
3817.10979126,0.01344864
3819.03859863,0.01675695
3820.96740601,0.01373728
3822.89621338,0.01432806
3824.82502075,0.01662165
3826.75382812,0.01509455
3828.68263550,0.01613031
3830.61144287,0.01568094
3832.54025024,0.01522406
3834.46905762,0.01543228
3836.39786499,0.01473208
3838.32667236,0.01341797
3840.25547974,0.01440473
3842.18428711,0.01551478
3844.11309448,0.01481634
3846.04190186,0.01591765
3847.97070923,0.01574420
3849.89951660,0.01575997
3851.82832397,0.01429699
3853.75713135,0.01082320
3855.68593872,0.01268218
3857.61474609,0.01583149
3859.54355347,0.01538829
3861.47236084,0.01529984
3863.40116821,0.01492706
3865.32997559,0.01384558
3867.25878296,0.01541761
3869.18759033,0.01410694
3871.11639770,0.01318830
3873.04520508,0.01551800
3874.97401245,0.01433812
3876.90281982,0.01541276
3878.83162720,0.01570267
3880.76043457,0.01364673
3882.68924194,0.01538398
3884.61804932,0.01446624
3886.54685669,0.01341107
3888.47566406,0.01538796
3890.40447144,0.01469442
3892.33327881,0.01386486
3894.26208618,0.01503830
3896.19089355,0.01534649
3898.11970093,0.01463795
3900.04850830,0.01387929
3901.97731567,0.01376013
3903.90612305,0.01357955
3905.83493042,0.01380039
3907.76373779,0.01515928
3909.69254517,0.01515791
3911.62135254,0.01496389
3913.55015991,0.01526161
3915.47896728,0.01477686
3917.40777466,0.01435937
3919.33658203,0.01428149
3921.26538940,0.01478345
3923.19419678,0.01474339
3925.12300415,0.01447428
3927.05181152,0.01462703
3928.98061890,0.01473605
3930.90942627,0.01448998
3932.83823364,0.01403371
3934.76704102,0.01452932
3936.69584839,0.01467776
3938.62465576,0.01464405
3940.55346313,0.01468794
3942.48227051,0.01413705
3944.41107788,0.01434403
3946.33988525,0.01457264
3948.26869263,0.01422498
3950.19750000,0.01419574
3952.12630737,0.01447595
3954.05511475,0.01452427
3955.98392212,0.01444945
3957.91272949,0.01443618
3959.84153687,0.01446459
3961.77034424,0.01438511
3963.69915161,0.01428117
3965.62795898,0.01445690
3967.55676636,0.01429943
3969.48557373,0.01420433
3971.41438110,0.01424471
3973.34318848,0.01419790
3975.27199585,0.01418242
3977.20080322,0.01412339
3979.12961060,0.01423388
3981.05841797,0.01409905
3982.98722534,0.01417474
3984.91603271,0.01414987
3986.84484009,0.01407130
3988.77364746,0.01415000
3990.70245483,0.01390892
3992.63126221,0.01406722
3994.56006958,0.01400008
3996.48887695,0.01389376
3998.41768433,0.01405367
4000.34649170,0.01396585
4002.27529907,0.01396150
4004.20410645,0.01391454
4006.13291382,0.01379438
4008.06172119,0.01380877
4009.99052856,0.01388326
4011.91933594,0.01368437
4013.84814331,0.01375867
4015.77695068,0.01378565
4017.70575806,0.01356166
4019.63456543,0.01365541
4021.56337280,0.01360685
4023.49218018,0.01359274
4025.42098755,0.01355143
4027.34979492,0.01362479
4029.27860229,0.01358877
4031.20740967,0.01346381
4033.13621704,0.01358737
4035.06502441,0.01344902
4036.99383179,0.01348726
4038.92263916,0.01344187
4040.85144653,0.01342933
4042.78025391,0.01347337
4044.70906128,0.01329652
4046.63786865,0.01338877
4048.56667603,0.01338397
4050.49548340,0.01338002
4052.42429077,0.01340086
4054.35309814,0.01333839
4056.28190552,0.01324515
4058.21071289,0.01320006
4060.13952026,0.01326209
4062.06832764,0.01320635
4063.99713501,0.01317044
4065.92594238,0.01316712
4067.85474976,0.01318821
4069.78355713,0.01314081
4071.71236450,0.01307903
4073.64117187,0.01302637
4075.56997925,0.01304830
4077.49878662,0.01301459
4079.42759399,0.01289354
4081.35640137,0.01297977
4083.28520874,0.01289593
4085.21401611,0.01285253
4087.14282349,0.01283524
4089.07163086,0.01281514
4091.00043823,0.01284141
4092.92924561,0.01270354
4094.85805298,0.01276645
4096.78686035,0.01275999
4098.71566772,0.01268830
4100.64447510,0.01266253
4102.57328247,0.01269249
4104.50208984,0.01267249
4106.43089722,0.01258367
4108.35970459,0.01266842
4110.28851196,0.01262803
4112.21731934,0.01258922
4114.14612671,0.01252827
4116.07493408,0.01249997
4118.00374145,0.01247234
4119.93254883,0.01248289
4121.86135620,0.01252071
4123.79016357,0.01238024
4125.71897095,0.01243228
4127.64777832,0.01239269
4129.57658569,0.01241280
4131.50539307,0.01242846
4133.43420044,0.01233690
4135.36300781,0.01232694
4137.29181519,0.01224865
4139.22062256,0.01227048
4141.14942993,0.01213000
4143.07823730,0.01216423
4145.00704468,0.01216924
4146.93585205,0.01216084
4148.86465942,0.01224727
4150.79346680,0.01209234
4152.72227417,0.01220842
4154.65108154,0.01208756
4156.57988892,0.01201379
4158.50869629,0.01210983
4160.43750366,0.01202630
4162.36631103,0.01201951
4164.29511841,0.01192505
4166.22392578,0.01198315
4168.15273315,0.01190686
4170.08154053,0.01186902
4172.01034790,0.01190095
4173.93915527,0.01183004
4175.86796265,0.01187297
4177.79677002,0.01182720
4179.72557739,0.01182472
4181.65438477,0.01172430
4183.58319214,0.01173663
4185.51199951,0.01178104
4187.44080688,0.01168946
4189.36961426,0.01174023
4191.29842163,0.01170120
4193.22722900,0.01162189
4195.15603638,0.01160490
4197.08484375,0.01166166
4199.01365112,0.01164257
4200.94245850,0.01155351
4202.87126587,0.01150889
4204.80007324,0.01151235
4206.72888062,0.01154674
4208.65768799,0.01145816
4210.58649536,0.01144800
4212.51530273,0.01144490
4214.44411011,0.01138018
4216.37291748,0.01143540
4218.30172485,0.01142323
4220.23053223,0.01134764
4222.15933960,0.01132955
4224.08814697,0.01118384
4226.01695435,0.01118754
4227.94576172,0.01128171
4229.87456909,0.01115192
4231.80337646,0.01129256
4233.73218384,0.01136651
4235.66099121,0.01121036
4237.58979858,0.01114865
4239.51860596,0.01114516
4241.44741333,0.01119501
4243.37622070,0.01110896
4245.30502808,0.01110876
4247.23383545,0.01105313
4249.16264282,0.01102259
4251.09145020,0.01102640
4253.02025757,0.01097053
4254.94906494,0.01109075
4256.87787231,0.01100276
4258.80667969,0.01096582
4260.73548706,0.01094948
4262.66429443,0.01085903
4264.59310181,0.01085641
4266.52190918,0.01082836
4268.45071655,0.01082237
4270.37952393,0.01071271
4272.30833130,0.01072992
4274.23713867,0.01074794
4276.16594604,0.01077371
4278.09475342,0.01075150
4280.02356079,0.01071184
4281.95236816,0.01079950
4283.88117554,0.01064261
4285.80998291,0.01061757
4287.73879028,0.01060165
4289.66759766,0.01058440
4291.59640503,0.01067775
4293.52521240,0.01059111
4295.45401978,0.01051693
4297.38282715,0.01045872
4299.31163452,0.01049925
4301.24044189,0.01049312
4303.16924927,0.01048050
4305.09805664,0.01050132
4307.02686401,0.01045770
4308.95567139,0.01041318
4310.88447876,0.01039448
4312.81328613,0.01045649
4314.74209351,0.01035474
4316.67090088,0.01026054
4318.59970825,0.01024350
4320.52851562,0.01028719
4322.45732300,0.01028703
4324.38613037,0.01020907
4326.31493774,0.01025826
4328.24374512,0.01021527
4330.17255249,0.01022519
4332.10135986,0.01023483
4334.03016724,0.01021042
4335.95897461,0.01013100
4337.88778198,0.01008959
4339.81658936,0.01010369
4341.74539673,0.00996146
4343.67420410,0.01005764
4345.60301147,0.01004365
4347.53181885,0.01001803
4349.46062622,0.01010095
4351.38943359,0.01003891
4353.31824097,0.01001031
4355.24704834,0.00987225
4357.17585571,0.00996423
4359.10466309,0.00996588
4361.03347046,0.00986086
4362.96227783,0.00989608
4364.89108520,0.00979356
4366.81989258,0.00982511
4368.74869995,0.00982696
4370.67750732,0.00979333
4372.60631470,0.00976208
4374.53512207,0.00977248
4376.46392944,0.00980665
4378.39273682,0.00969981
4380.32154419,0.00969840
4382.25035156,0.00971383
4384.17915894,0.00968773
4386.10796631,0.00962882
4388.03677368,0.00963934
4389.96558105,0.00969437
4391.89438843,0.00961957
4393.82319580,0.00955572
4395.75200317,0.00950885
4397.68081055,0.00947651
4399.60961792,0.00948370
4401.53842529,0.00947197
4403.46723267,0.00941552
4405.39604004,0.00942952
4407.32484741,0.00944176
4409.25365478,0.00941346
4411.18246216,0.00939017
4413.11126953,0.00935547
4415.04007690,0.00939870
4416.96888428,0.00933660
4418.89769165,0.00931333
4420.82649902,0.00936573
4422.75530640,0.00928540
4424.68411377,0.00925029
4426.61292114,0.00927831
4428.54172852,0.00927210
4430.47053589,0.00923038
4432.39934326,0.00919958
4434.32815063,0.00912788
4436.25695801,0.00915295
4438.18576538,0.00913356
4440.11457275,0.00904641
4442.04338013,0.00915924
4443.97218750,0.00906239
4445.90099487,0.00898773
4447.82980225,0.00910131
4449.75860962,0.00905991
4451.68741699,0.00903933
4453.61622437,0.00896384
4455.54503174,0.00894771
4457.47383911,0.00901634
4459.40264648,0.00889789
4461.33145386,0.00887663
4463.26026123,0.00894622
4465.18906860,0.00886978
4467.11787598,0.00887362
4469.04668335,0.00892410
4470.97549072,0.00892152
4472.90429810,0.00885393
4474.83310547,0.00874962
4476.76191284,0.00878793
4478.69072021,0.00875526
4480.61952759,0.00869027
4482.54833496,0.00867640
4484.47714233,0.00866620
4486.40594971,0.00869101
4488.33475708,0.00861086
4490.26356445,0.00867160
4492.19237183,0.00872785
4494.12117920,0.00867839
4496.04998657,0.00870982
4497.97879395,0.00860905
4499.90760132,0.00856758
4501.83640869,0.00858880
4503.76521606,0.00853949
4505.69402344,0.00852750
4507.62283081,0.00848565
4509.55163818,0.00847402
4511.48044556,0.00845882
4513.40925293,0.00841823
4515.33806030,0.00841893
4517.26686768,0.00838650
4519.19567505,0.00839205
4521.12448242,0.00843520
4523.05328979,0.00842533
4524.98209717,0.00840110
4526.91090454,0.00835181
4528.83971191,0.00831470
4530.76851929,0.00832231
4532.69732666,0.00831223
4534.62613403,0.00824788
4536.55494141,0.00822787
4538.48374878,0.00824111
4540.41255615,0.00820648
4542.34136353,0.00819097
4544.27017090,0.00814979
4546.19897827,0.00817013
4548.12778564,0.00817360
4550.05659302,0.00815292
4551.98540039,0.00820816
4553.91420776,0.00810744
4555.84301514,0.00803047
4557.77182251,0.00805813
4559.70062988,0.00812714
4561.62943726,0.00807588
4563.55824463,0.00795750
4565.48705200,0.00808497
4567.41585937,0.00804988
4569.34466675,0.00794625
4571.27347412,0.00794808
4573.20228149,0.00791424
4575.13108887,0.00791418
4577.05989624,0.00788649
4578.98870361,0.00793286
4580.91751099,0.00789541
4582.84631836,0.00780788
4584.77512573,0.00783217
4586.70393311,0.00791147
4588.63274048,0.00786206
4590.56154785,0.00772328
4592.49035522,0.00780761
4594.41916260,0.00779252
4596.34796997,0.00779928
4598.27677734,0.00786691
4600.20558472,0.00771745
4602.13439209,0.00767159
4604.06319946,0.00764713
4605.99200684,0.00766693
4607.92081421,0.00769651
4609.84962158,0.00764636
4611.77842895,0.00768589
4613.70723633,0.00763855
4615.63604370,0.00764348
4617.56485107,0.00766302
4619.49365845,0.00758501
4621.42246582,0.00759349
4623.35127319,0.00750701
4625.28008057,0.00748782
4627.20888794,0.00754745
4629.13769531,0.00752571
4631.06650269,0.00752783
4632.99531006,0.00740285
4634.92411743,0.00743321
4636.85292480,0.00750537
4638.78173218,0.00737223
4640.71053955,0.00735032
4642.63934692,0.00734019
4644.56815430,0.00735247
4646.49696167,0.00734095
4648.42576904,0.00727575
4650.35457642,0.00725961
4652.28338379,0.00730945
4654.21219116,0.00733126
4656.14099853,0.00719646
4658.06980591,0.00720508
4659.99861328,0.00725331
4661.92742065,0.00720240
4663.85622803,0.00712095
4665.78503540,0.00714187
4667.71384277,0.00721798
4669.64265015,0.00712431
4671.57145752,0.00718145
4673.50026489,0.00715536
4675.42907227,0.00706796
4677.35787964,0.00709600
4679.28668701,0.00704333
4681.21549438,0.00709711
4683.14430176,0.00707575
4685.07310913,0.00702259
4687.00191650,0.00701384
4688.93072388,0.00702594
4690.85953125,0.00703042
4692.78833862,0.00697350
4694.71714600,0.00700889
4696.64595337,0.00696808
4698.57476074,0.00691363
4700.50356812,0.00695727
4702.43237549,0.00696281
4704.36118286,0.00687233
4706.28999023,0.00690771
4708.21879761,0.00695768
4710.14760498,0.00688043
4712.07641235,0.00692238
4714.00521973,0.00685778
4715.93402710,0.00683654
4717.86283447,0.00682690
4719.79164185,0.00675307
4721.72044922,0.00684805
4723.64925659,0.00680082
4725.57806396,0.00673656
4727.50687134,0.00676856
4729.43567871,0.00674207
4731.36448608,0.00669259
4733.29329346,0.00669006
4735.22210083,0.00664966
4737.15090820,0.00666013
4739.07971558,0.00677312
4741.00852295,0.00667589
4742.93733032,0.00659038
4744.86613770,0.00659942
4746.79494507,0.00662859
4748.72375244,0.00663162
4750.65255981,0.00652636
4752.58136719,0.00650093
4754.51017456,0.00651238
4756.43898193,0.00654875
4758.36778931,0.00656802
4760.29659668,0.00655495
4762.22540405,0.00650022
4764.15421143,0.00645000
4766.08301880,0.00640507
4768.01182617,0.00640680
4769.94063354,0.00650789
4771.86944092,0.00642779
4773.79824829,0.00641123
4775.72705566,0.00645584
4777.65586304,0.00645087
4779.58467041,0.00641859
4781.51347778,0.00631342
4783.44228516,0.00638495
4785.37109253,0.00637771
4787.29989990,0.00635855
4789.22870728,0.00634311
4791.15751465,0.00626246
4793.08632202,0.00627800
4795.01512939,0.00625408
4796.94393677,0.00628066
4798.87274414,0.00620142
4800.80155151,0.00615350
4802.73035889,0.00621899
4804.65916626,0.00618776
4806.58797363,0.00622613
4808.51678101,0.00621397
4810.44558838,0.00614792
4812.37439575,0.00612800
4814.30320312,0.00611709
4816.23201050,0.00619513
4818.16081787,0.00619453
4820.08962524,0.00611434
4822.01843262,0.00614001
4823.94723999,0.00609520
4825.87604736,0.00607546
4827.80485474,0.00599925
4829.73366211,0.00592707
4831.66246948,0.00606464
4833.59127686,0.00593322
4835.52008423,0.00586814
4837.44889160,0.00596088
4839.37769897,0.00594489
4841.30650635,0.00595443
4843.23531372,0.00594795
4845.16412109,0.00600493
4847.09292847,0.00588951
4849.02173584,0.00589696
4850.95054321,0.00592478
4852.87935059,0.00579161
4854.80815796,0.00584497
4856.73696533,0.00587166
4858.66577270,0.00590605
4860.59458008,0.00584455
4862.52338745,0.00579136
4864.45219482,0.00572247
4866.38100220,0.00572889
4868.30980957,0.00583581
4870.23861694,0.00574482
4872.16742432,0.00581885
4874.09623169,0.00579070
4876.02503906,0.00573744
4877.95384644,0.00574442
4879.88265381,0.00569663
4881.81146118,0.00571484
4883.74026855,0.00563520
4885.66907593,0.00567779
4887.59788330,0.00564573
4889.52669067,0.00567614
4891.45549805,0.00567163
4893.38430542,0.00555835
4895.31311279,0.00567191
4897.24192017,0.00564926
4899.17072754,0.00556907
4901.09953491,0.00553023
4903.02834228,0.00555981
4904.95714966,0.00554734
4906.88595703,0.00552030
4908.81476440,0.00553805
4910.74357178,0.00546798
4912.67237915,0.00547431
4914.60118652,0.00547703
4916.52999390,0.00554153
4918.45880127,0.00548916
4920.38760864,0.00545969
4922.31641602,0.00547345
4924.24522339,0.00539408
4926.17403076,0.00545285
4928.10283813,0.00540206
4930.03164551,0.00543963
4931.96045288,0.00540122
4933.88926025,0.00532707
4935.81806763,0.00537737
4937.74687500,0.00533124
4939.67568237,0.00538855
4941.60448975,0.00527048
4943.53329712,0.00522961
4945.46210449,0.00535578
4947.39091187,0.00530347
4949.31971924,0.00528846
4951.24852661,0.00532103
4953.17733398,0.00525447
4955.10614136,0.00521467
4957.03494873,0.00525102
4958.96375610,0.00520550
4960.89256348,0.00525327
4962.82137085,0.00523102
4964.75017822,0.00521523
4966.67898560,0.00525580
4968.60779297,0.00514123
4970.53660034,0.00518866
4972.46540771,0.00517817
4974.39421509,0.00513778
4976.32302246,0.00517857
4978.25182983,0.00513871
4980.18063721,0.00506235
4982.10944458,0.00502831
4984.03825195,0.00508727
4985.96705933,0.00509784
4987.89586670,0.00509608
4989.82467407,0.00502305
4991.75348145,0.00506292
4993.68228882,0.00505547
4995.61109619,0.00497186
4997.53990356,0.00503330
4999.46871094,0.00491939
5001.39751831,0.00492435
5003.32632568,0.00493695
5005.25513306,0.00491999
5007.18394043,0.00496486
5009.11274780,0.00488857
5011.04155518,0.00493157
5012.97036255,0.00490553
5014.89916992,0.00483964
5016.82797729,0.00483512
5018.75678467,0.00490184
5020.68559204,0.00487664
5022.61439941,0.00475894
5024.54320679,0.00485738
5026.47201416,0.00485180
5028.40082153,0.00476972
5030.32962891,0.00478522
5032.25843628,0.00481335
5034.18724365,0.00478050
5036.11605103,0.00476120
5038.04485840,0.00483429
5039.97366577,0.00483756
5041.90247314,0.00480418
5043.83128052,0.00471841
5045.76008789,0.00466818
5047.68889526,0.00470306
5049.61770264,0.00470417
5051.54651001,0.00466730
5053.47531738,0.00470525
5055.40412476,0.00472914
5057.33293213,0.00465040
5059.26173950,0.00467246
5061.19054687,0.00464394
5063.11935425,0.00462364
5065.04816162,0.00463873
5066.97696899,0.00459926
5068.90577637,0.00464112
5070.83458374,0.00461583
5072.76339111,0.00456773
5074.69219849,0.00456866
5076.62100586,0.00456506
5078.54981323,0.00449242
5080.47862061,0.00448919
5082.40742798,0.00458277
5084.33623535,0.00457916
5086.26504272,0.00454173
5088.19385010,0.00446255
5090.12265747,0.00447366
5092.05146484,0.00447615
5093.98027222,0.00440527
5095.90907959,0.00443117
5097.83788696,0.00440367
5099.76669434,0.00439797
5101.69550171,0.00445121
5103.62430908,0.00442916
5105.55311645,0.00443040
5107.48192383,0.00446539
5109.41073120,0.00440980
5111.33953857,0.00439240
5113.26834595,0.00443882
5115.19715332,0.00442794
5117.12596069,0.00433418
5119.05476807,0.00428353
5120.98357544,0.00433566
5122.91238281,0.00428508
5124.84119019,0.00429859
5126.76999756,0.00427462
5128.69880493,0.00423549
5130.62761230,0.00433530
5132.55641968,0.00425757
5134.48522705,0.00424597
5136.41403442,0.00429745
5138.34284180,0.00425073
5140.27164917,0.00421890
5142.20045654,0.00423962
5144.12926392,0.00421804
5146.05807129,0.00418094
5147.98687866,0.00424315
5149.91568603,0.00417094
5151.84449341,0.00418275
5153.77330078,0.00416051
5155.70210815,0.00409248
5157.63091553,0.00416002
5159.55972290,0.00412404
5161.48853027,0.00415137
5163.41733765,0.00410133
5165.34614502,0.00410629
5167.27495239,0.00412985
5169.20375977,0.00405785
5171.13256714,0.00405500
5173.06137451,0.00404636
5174.99018188,0.00414863
5176.91898926,0.00407838
5178.84779663,0.00402386
5180.77660400,0.00408196
5182.70541138,0.00402339
5184.63421875,0.00396356
5186.56302612,0.00396041
5188.49183350,0.00399433
5190.42064087,0.00391280
5192.34944824,0.00400274
5194.27825562,0.00398840
5196.20706299,0.00390232
5198.13587036,0.00398870
5200.06467773,0.00394637
5201.99348511,0.00399581
5203.92229248,0.00389816
5205.85109985,0.00379700
5207.77990723,0.00384090
5209.70871460,0.00383774
5211.63752197,0.00388275
5213.56632935,0.00390358
5215.49513672,0.00392229
5217.42394409,0.00384457
5219.35275146,0.00384233
5221.28155884,0.00380778
5223.21036621,0.00377901
5225.13917358,0.00378828
5227.06798096,0.00369700
5228.99678833,0.00381073
5230.92559570,0.00382170
5232.85440308,0.00381915
5234.78321045,0.00378989
5236.71201782,0.00368290
5238.64082520,0.00383191
5240.56963257,0.00384475
5242.49843994,0.00376590
5244.42724731,0.00374279
5246.35605469,0.00367850
5248.28486206,0.00363686
5250.21366943,0.00372571
5252.14247681,0.00378320
5254.07128418,0.00365530
5256.00009155,0.00370702
5257.92889893,0.00378044
5259.85770630,0.00370419
5261.78651367,0.00364951
5263.71532104,0.00360935
5265.64412842,0.00362506
5267.57293579,0.00365303
5269.50174316,0.00363146
5271.43055054,0.00362896
5273.35935791,0.00369488
5275.28816528,0.00366239
5277.21697266,0.00360735
5279.14578003,0.00358472
5281.07458740,0.00353887
5283.00339478,0.00363223
5284.93220215,0.00361862
5286.86100952,0.00356293
5288.78981689,0.00363306
5290.71862427,0.00353310
5292.64743164,0.00351735
5294.57623901,0.00359569
5296.50504639,0.00355764
5298.43385376,0.00357697
5300.36266113,0.00353024
5302.29146851,0.00354296
5304.22027588,0.00356341
5306.14908325,0.00344365
5308.07789062,0.00345924
5310.00669800,0.00345332
5311.93550537,0.00350188
5313.86431274,0.00355045
5315.79312012,0.00341471
5317.72192749,0.00345035
5319.65073486,0.00347130
5321.57954224,0.00344516
5323.50834961,0.00353066
5325.43715698,0.00346718
5327.36596436,0.00336655
5329.29477173,0.00334695
5331.22357910,0.00338311
5333.15238647,0.00340451
5335.08119385,0.00336732
5337.01000122,0.00335173
5338.93880859,0.00321770
5340.86761597,0.00324857
5342.79642334,0.00338349
5344.72523071,0.00323691
5346.65403809,0.00326359
5348.58284546,0.00336112
5350.51165283,0.00332488
5352.44046020,0.00323856
5354.36926758,0.00318224
5356.29807495,0.00330782
5358.22688232,0.00329210
5360.15568970,0.00335212
5362.08449707,0.00335015
5364.01330444,0.00320352
5365.94211182,0.00325038
5367.87091919,0.00328524
5369.79972656,0.00334254
5371.72853394,0.00323013
5373.65734131,0.00324478
5375.58614868,0.00326510
5377.51495605,0.00311410
5379.44376343,0.00321372
5381.37257080,0.00318982
5383.30137817,0.00325193
5385.23018555,0.00320206
5387.15899292,0.00310287
5389.08780029,0.00326723
5391.01660767,0.00323185
5392.94541504,0.00315908
5394.87422241,0.00300678
5396.80302978,0.00305364
5398.73183716,0.00311133
5400.66064453,0.00301714
5402.58945190,0.00313100
5404.51825928,0.00308668
5406.44706665,0.00312908
5408.37587402,0.00314283
5410.30468140,0.00302025
5412.23348877,0.00300778
5414.16229614,0.00297501
5416.09110352,0.00302108
5418.01991089,0.00301086
5419.94871826,0.00299016
5421.87752563,0.00301800
5423.80633301,0.00303769
5425.73514038,0.00306482
5427.66394775,0.00301029
5429.59275513,0.00288721
5431.52156250,0.00288702
5433.45036987,0.00299684
5435.37917725,0.00292901
5437.30798462,0.00295765
5439.23679199,0.00300015
5441.16559936,0.00287963
5443.09440674,0.00293822
5445.02321411,0.00292607
5446.95202148,0.00286793
5448.88082886,0.00290928
5450.80963623,0.00287831
5452.73844360,0.00289358
5454.66725098,0.00289211
5456.59605835,0.00289314
5458.52486572,0.00291696
5460.45367310,0.00284868
5462.38248047,0.00288649
5464.31128784,0.00293455
5466.24009521,0.00289340
5468.16890259,0.00290939
5470.09770996,0.00291968
5472.02651733,0.00293316
5473.95532471,0.00290226
5475.88413208,0.00284876
5477.81293945,0.00287807
5479.74174683,0.00287905
5481.67055420,0.00277572
5483.59936157,0.00280766
5485.52816895,0.00291649
5487.45697632,0.00279317
5489.38578369,0.00279120
5491.31459106,0.00284206
5493.24339844,0.00276619
5495.17220581,0.00280006
5497.10101318,0.00279394
5499.02982056,0.00278129
5500.95862793,0.00276666
5502.88743530,0.00277476
5504.81624268,0.00277673
5506.74505005,0.00272816
5508.67385742,0.00274337
5510.60266479,0.00273801
5512.53147217,0.00277374
5514.46027954,0.00276768
5516.38908691,0.00275464
5518.31789429,0.00276725
5520.24670166,0.00268352
5522.17550903,0.00262661
5524.10431641,0.00268331
5526.03312378,0.00274886
5527.96193115,0.00269325
5529.89073853,0.00266517
5531.81954590,0.00263952
5533.74835327,0.00268233
5535.67716064,0.00271333
5537.60596802,0.00265952
5539.53477539,0.00270590
5541.46358276,0.00261820
5543.39239014,0.00263509
5545.32119751,0.00266859
5547.25000488,0.00260487
5549.17881226,0.00265072
5551.10761963,0.00258895
5553.03642700,0.00261865
5554.96523437,0.00260877
5556.89404175,0.00258848
5558.82284912,0.00263185
5560.75165649,0.00254866
5562.68046387,0.00261925
5564.60927124,0.00266583
5566.53807861,0.00256192
5568.46688599,0.00253649
5570.39569336,0.00256743
5572.32450073,0.00254337
5574.25330811,0.00256036
5576.18211548,0.00256614
5578.11092285,0.00249089
5580.03973022,0.00252855
5581.96853760,0.00257098
5583.89734497,0.00259123
5585.82615234,0.00258835
5587.75495972,0.00255404
5589.68376709,0.00253935
5591.61257446,0.00250728
5593.54138184,0.00248317
5595.47018921,0.00248102
5597.39899658,0.00255306
5599.32780395,0.00250330
5601.25661133,0.00245842
5603.18541870,0.00246617
5605.11422607,0.00239175
5607.04303345,0.00247372
5608.97184082,0.00245400
5610.90064819,0.00242146
5612.82945557,0.00252751
5614.75826294,0.00246457
5616.68707031,0.00238521
5618.61587769,0.00237817
5620.54468506,0.00238614
5622.47349243,0.00237150
5624.40229980,0.00235445
5626.33110718,0.00236120
5628.25991455,0.00235960
5630.18872192,0.00240504
5632.11752930,0.00240430
5634.04633667,0.00235157
5635.97514404,0.00233582
5637.90395142,0.00229266
5639.83275879,0.00230368
5641.76156616,0.00242681
5643.69037353,0.00236665
5645.61918091,0.00226134
5647.54798828,0.00238469
5649.47679565,0.00235077
5651.40560303,0.00226958
5653.33441040,0.00232302
5655.26321777,0.00226275
5657.19202515,0.00227667
5659.12083252,0.00232600
5661.04963989,0.00231453
5662.97844727,0.00229940
5664.90725464,0.00226318
5666.83606201,0.00229812
5668.76486938,0.00229078
5670.69367676,0.00227953
5672.62248413,0.00226196
5674.55129150,0.00224403
5676.48009888,0.00228979
5678.40890625,0.00225949
5680.33771362,0.00226431
5682.26652100,0.00222133
5684.19532837,0.00215329
5686.12413574,0.00220766
5688.05294311,0.00221895
5689.98175049,0.00214976
5691.91055786,0.00210255
5693.83936523,0.00211292
5695.76817261,0.00212716
5697.69697998,0.00222927
5699.62578735,0.00216197
5701.55459473,0.00209491
5703.48340210,0.00225526
5705.41220947,0.00218242
5707.34101685,0.00220459
5709.26982422,0.00218364
5711.19863159,0.00201229
5713.12743896,0.00213589
5715.05624634,0.00215087
5716.98505371,0.00209055
5718.91386108,0.00210731
5720.84266846,0.00209105
5722.77147583,0.00209789
5724.70028320,0.00209136
5726.62909058,0.00207971
5728.55789795,0.00207081
5730.48670532,0.00207617
5732.41551270,0.00209206
5734.34432007,0.00206281
5736.27312744,0.00200745
5738.20193481,0.00206800
5740.13074219,0.00206109
5742.05954956,0.00203048
5743.98835693,0.00204762
5745.91716431,0.00202561
5747.84597168,0.00211192
5749.77477905,0.00201626
5751.70358643,0.00197944
5753.63239380,0.00202396
5755.56120117,0.00194374
5757.49000854,0.00205552
5759.41881592,0.00201396
5761.34762329,0.00197320
5763.27643066,0.00205596
5765.20523804,0.00200598
5767.13404541,0.00201090
5769.06285278,0.00205166
5770.99166016,0.00203456
5772.92046753,0.00196885
5774.84927490,0.00197596
5776.77808228,0.00193740
5778.70688965,0.00192379
5780.63569702,0.00198454
5782.56450439,0.00192961
5784.49331177,0.00195045
5786.42211914,0.00200092
5788.35092651,0.00196214
5790.27973389,0.00191956
5792.20854126,0.00194009
5794.13734863,0.00190898
5796.06615601,0.00187328
5797.99496338,0.00190384
5799.92377075,0.00182159
5801.85257812,0.00184445
5803.78138550,0.00193045
5805.71019287,0.00194998
5807.63900024,0.00195241
5809.56780762,0.00187519
5811.49661499,0.00190847
5813.42542236,0.00194062
5815.35422974,0.00190621
5817.28303711,0.00192677
5819.21184448,0.00186754
5821.14065186,0.00184063
5823.06945923,0.00184966
5824.99826660,0.00180467
5826.92707397,0.00185678
5828.85588135,0.00183639
5830.78468872,0.00180421
5832.71349609,0.00190719
5834.64230347,0.00186800
5836.57111084,0.00180674
5838.49991821,0.00183362
5840.42872559,0.00182980
5842.35753296,0.00178820
5844.28634033,0.00181290
5846.21514770,0.00190500
5848.14395508,0.00182728
5850.07276245,0.00176557
5852.00156982,0.00185045
5853.93037720,0.00183862
5855.85918457,0.00175584
5857.78799194,0.00176899
5859.71679932,0.00177557
5861.64560669,0.00173614
5863.57441406,0.00174382
5865.50322144,0.00169280
5867.43202881,0.00174172
5869.36083618,0.00179867
5871.28964355,0.00169276
5873.21845093,0.00169933
5875.14725830,0.00173745
5877.07606567,0.00171818
5879.00487305,0.00174466
5880.93368042,0.00174829
5882.86248779,0.00165607
5884.79129517,0.00164163
5886.72010254,0.00169734
5888.64890991,0.00168216
5890.57771728,0.00172087
5892.50652466,0.00170589
5894.43533203,0.00163829
5896.36413940,0.00165757
5898.29294678,0.00168009
5900.22175415,0.00167246
5902.15056152,0.00167015
5904.07936890,0.00166443
5906.00817627,0.00162786
5907.93698364,0.00162641
5909.86579102,0.00166693
5911.79459839,0.00165448
5913.72340576,0.00160495
5915.65221313,0.00162420
5917.58102051,0.00162184
5919.50982788,0.00164149
5921.43863525,0.00162385
5923.36744263,0.00152684
5925.29625000,0.00160019
5927.22505737,0.00155589
5929.15386475,0.00153096
5931.08267212,0.00160973
5933.01147949,0.00152302
5934.94028686,0.00153108
5936.86909424,0.00156819
5938.79790161,0.00159512
5940.72670898,0.00157114
5942.65551636,0.00156694
5944.58432373,0.00157271
5946.51313110,0.00152010
5948.44193848,0.00156497
5950.37074585,0.00148942
5952.29955322,0.00151615
5954.22836060,0.00158410
5956.15716797,0.00154031
5958.08597534,0.00156022
5960.01478271,0.00154023
5961.94359009,0.00153599
5963.87239746,0.00149963
5965.80120483,0.00153607
5967.73001221,0.00148600
5969.65881958,0.00143990
5971.58762695,0.00156913
5973.51643433,0.00152616
5975.44524170,0.00151527
5977.37404907,0.00153115
5979.30285645,0.00151081
5981.23166382,0.00150806
5983.16047119,0.00145015
5985.08927856,0.00146797
5987.01808594,0.00154423
5988.94689331,0.00152650
5990.87570068,0.00143647
5992.80450806,0.00144775
5994.73331543,0.00144035
5996.66212280,0.00146612
5998.59093018,0.00147150
6000.51973755,0.00144236
