399.26312622,0.00023811
401.19193359,0.00028491
403.12074097,0.00052034
405.04954834,0.00029936
406.97835571,0.00006649
408.90716309,0.00019708
410.83597046,0.00002711
412.76477783,0.00007841
414.69358521,0.00004906
416.62239258,0.00005837
418.55119995,0.00009781
420.48000732,-0.00016959
422.40881470,-0.00024515
424.33762207,0.00006673
426.26642944,0.00027116
428.19523682,0.00008465
430.12404419,0.00002419
432.05285156,0.00016890
433.98165894,0.00029674
435.91046631,0.00000087
437.83927368,0.00008662
439.76808105,0.00003118
441.69688843,-0.00013371
443.62569580,0.00013145
445.55450317,0.00000638
447.48331055,0.00024811
449.41211792,0.00014595
451.34092529,-0.00009513
453.26973267,0.00013022
455.19854004,0.00005315
457.12734741,0.00004410
459.05615479,0.00001176
460.98496216,0.00022026
462.91376953,-0.00001450
464.84257690,-0.00003202
466.77138428,0.00016982
468.70019165,0.00006913
470.62899902,0.00052831
472.55780640,0.00019851
474.48661377,-0.00021328
476.41542114,0.00032811
478.34422852,0.00023815
480.27303589,0.00005412
482.20184326,0.00017320
484.13065063,0.00002762
486.05945801,0.00003640
487.98826538,0.00010074
489.91707275,-0.00000948
491.84588013,-0.00009607
493.77468750,0.00009316
495.70349487,0.00009823
497.63230225,0.00006341
499.56110962,0.00008091
501.48991699,0.00015959
503.41872437,0.00036458
505.34753174,0.00012956
507.27633911,0.00030709
509.20514648,0.00044526
511.13395386,0.00018764
513.06276123,0.00027817
514.99156860,0.00031445
516.92037598,0.00015412
518.84918335,0.00015504
520.77799072,0.00005644
522.70679810,-0.00011862
524.63560547,0.00032230
526.56441284,0.00002490
528.49322021,-0.00021256
530.42202759,0.00018394
532.35083496,-0.00012416
534.27964233,0.00020853
536.20844971,0.00051831
538.13725708,0.00014454
540.06606445,-0.00003404
541.99487183,-0.00000729
543.92367920,0.00010202
545.85248657,-0.00016551
547.78129395,-0.00021915
549.71010132,0.00008439
551.63890869,0.00018696
553.56771606,0.00032219
555.49652344,0.00013209
557.42533081,-0.00007890
559.35413818,0.00002943
561.28294556,0.00016733
563.21175293,0.00032588
565.14056030,-0.00001510
567.06936768,-0.00006669
568.99817505,0.00018079
570.92698242,0.00011132
572.85578979,0.00012710
574.78459717,0.00010656
576.71340454,0.00033451
578.64221191,0.00013704
580.57101929,0.00002368
582.49982666,0.00025845
584.42863403,0.00009148
586.35744141,0.00023782
588.28624878,0.00005332
590.21505615,0.00004922
592.14386353,0.00026611
594.07267090,0.00027170
596.00147827,0.00023947
597.93028564,-0.00008467
599.85909302,0.00032066
601.78790039,0.00020831
603.71670776,-0.00012431
605.64551514,0.00024518
607.57432251,0.00015370
609.50312988,-0.00003497
611.43193726,0.00004582
613.36074463,0.00031735
615.28955200,0.00018810
617.21835938,0.00034499
619.14716675,0.00036070
621.07597412,-0.00002998
623.00478149,0.00036331
624.93358887,0.00036092
626.86239624,0.00015636
628.79120361,0.00008538
630.72001099,0.00003375
632.64881836,0.00000088
634.57762573,-0.00004701
636.50643311,0.00031813
638.43524048,0.00014537
640.36404785,-0.00006342
642.29285522,0.00036039
644.22166260,0.00028820
646.15046997,-0.00005957
648.07927734,-0.00001551
650.00808472,0.00002290
651.93689209,0.00016802
653.86569946,0.00014053
655.79450684,0.00009246
657.72331421,0.00014634
659.65212158,0.00003573
661.58092896,0.00017877
663.50973633,0.00018505
665.43854370,0.00025333
667.36735107,0.00020143
669.29615845,0.00005339
671.22496582,0.00014306
673.15377319,0.00008649
675.08258057,0.00014274
677.01138794,0.00025495
678.94019531,0.00013989
680.86900269,0.00006949
682.79781006,0.00035055
684.72661743,0.00014502
686.65542480,-0.00013444
688.58423218,0.00005450
690.51303955,0.00020735
692.44184692,0.00011412
694.37065430,-0.00006416
696.29946167,0.00007039
698.22826904,-0.00014640
700.15707642,0.00012283
702.08588379,0.00006536
704.01469116,0.00001943
705.94349854,0.00046402
707.87230591,0.00018831
709.80111328,0.00008125
711.72992065,0.00023387
713.65872803,0.00032298
715.58753540,0.00010029
717.51634277,-0.00018553
719.44515015,0.00016409
721.37395752,0.00032379
723.30276489,0.00012520
725.23157227,0.00020662
727.16037964,0.00009374
729.08918701,-0.00005860
731.01799438,0.00010923
732.94680176,0.00015469
734.87560913,0.00016520
736.80441650,0.00037690
738.73322388,0.00018929
740.66203125,0.00001079
742.59083862,0.00022586
744.51964600,0.00020381
746.44845337,0.00022608
748.37726074,0.00009288
750.30606812,0.00001790
752.23487549,0.00020959
754.16368286,0.00023964
756.09249023,0.00018270
758.02129761,-0.00003073
759.95010498,0.00008594
761.87891235,0.00021005
763.80771973,0.00009010
765.73652710,0.00002945
767.66533447,0.00014552
769.59414185,0.00022362
771.52294922,0.00005353
773.45175659,0.00028512
775.38056396,0.00029555
777.30937134,0.00009308
779.23817871,0.00027654
781.16698608,0.00024195
783.09579346,-0.00016279
785.02460083,-0.00008075
786.95340820,0.00015852
788.88221558,0.00003804
790.81102295,0.00029913
792.73983032,0.00005361
794.66863770,-0.00011202
796.59744507,0.00006195
798.52625244,-0.00009668
800.45505981,0.00011905
802.38386719,0.00001921
804.31267456,0.00022928
806.24148193,0.00034788
808.17028931,0.00023030
810.09909668,0.00028400
812.02790405,-0.00006768
813.95671143,0.00020232
815.88551880,0.00022552
817.81432617,0.00022316
819.74313354,0.00002954
821.67194092,-0.00018707
823.60074829,0.00031929
825.52955566,0.00006530
827.45836304,0.00010031
829.38717041,0.00028050
831.31597778,0.00025638
833.24478516,0.00028061
835.17359253,0.00014687
837.10239990,0.00019552
839.03120728,0.00008405
840.96001465,0.00022714
842.88882202,0.00026698
844.81762939,0.00015719
846.74643677,0.00007642
848.67524414,0.00016149
850.60405151,0.00010185
852.53285889,0.00001742
854.46166626,0.00035327
856.39047363,0.00000732
858.31928101,0.00013022
860.24808838,0.00022589
862.17689575,0.00005159
864.10570313,0.00038660
866.03451050,0.00004805
867.96331787,0.00019166
869.89212524,0.00027397
871.82093262,0.00011600
873.74973999,0.00046985
875.67854736,0.00024652
877.60735474,-0.00005997
879.53616211,-0.00001528
881.46496948,0.00017377
883.39377686,0.00031431
885.32258423,0.00011707
887.25139160,-0.00000963
889.18019897,0.00031763
891.10900635,0.00035654
893.03781372,0.00022563
894.96662109,0.00031636
896.89542847,0.00010050
898.82423584,0.00010486
900.75304321,0.00017633
902.68185059,0.00017334
904.61065796,0.00027619
906.53946533,0.00018253
908.46827271,-0.00000163
910.39708008,0.00000143
912.32588745,0.00023210
914.25469482,0.00017478
916.18350220,0.00023487
918.11230957,0.00037533
920.04111694,0.00023154
921.96992432,0.00020936
923.89873169,0.00005292
925.82753906,0.00020456
927.75634644,0.00033487
929.68515381,0.00000763
931.61396118,0.00020765
933.54276855,0.00032341
935.47157593,0.00008408
937.40038330,0.00028256
939.32919067,0.00029363
941.25799805,0.00007397
943.18680542,0.00036223
945.11561279,0.00038533
947.04442017,0.00006036
948.97322754,0.00025644
950.90203491,0.00042138
952.83084229,0.00026368
954.75964966,0.00011774
956.68845703,0.00010870
958.61726440,0.00034812
960.54607178,0.00037365
962.47487915,0.00011234
964.40368652,0.00026606
966.33249390,0.00043215
968.26130127,0.00026026
970.19010864,0.00028987
972.11891602,0.00029497
974.04772339,0.00041116
975.97653076,0.00042262
977.90533813,0.00022519
979.83414551,0.00033538
981.76295288,0.00031426
983.69176025,0.00023322
985.62056763,0.00025479
987.54937500,0.00042318
989.47818237,0.00037111
991.40698975,0.00020530
993.33579712,0.00048329
995.26460449,0.00044702
997.19341187,0.00047900
999.12221924,0.00058764
1001.05102661,0.00041767
1002.97983398,0.00058012
1004.90864136,0.00068245
1006.83744873,0.00060375
1008.76625610,0.00055892
1010.69506348,0.00057647
1012.62387085,0.00056413
1014.55267822,0.00064223
1016.48148560,0.00073530
1018.41029297,0.00052917
1020.33910034,0.00049641
1022.26790771,0.00064855
1024.19671509,0.00080335
1026.12552246,0.00082996
1028.05432983,0.00088117
1029.98313721,0.00096252
1031.91194458,0.00081489
1033.84075195,0.00093837
1035.76955933,0.00088678
1037.69836670,0.00080349
1039.62717407,0.00097901
1041.55598145,0.00092439
1043.48478882,0.00107741
1045.41359619,0.00098593
1047.34240356,0.00081580
1049.27121094,0.00097552
1051.20001831,0.00085192
1053.12882568,0.00087676
1055.05763306,0.00084636
1056.98644043,0.00083502
1058.91524780,0.00105117
1060.84405518,0.00088280
1062.77286255,0.00088275
1064.70166992,0.00085891
1066.63047729,0.00063018
1068.55928467,0.00059437
1070.48809204,0.00061479
1072.41689941,0.00074508
1074.34570679,0.00072828
1076.27451416,0.00081726
1078.20332153,0.00079211
1080.13212891,0.00066358
1082.06093628,0.00066249
1083.98974365,0.00038464
1085.91855103,0.00050207
1087.84735840,0.00065267
1089.77616577,0.00051109
1091.70497314,0.00049898
1093.63378052,0.00048273
1095.56258789,0.00035540
1097.49139526,0.00026329
1099.42020264,0.00060930
1101.34901001,0.00063727
1103.27781738,0.00052313
1105.20662476,0.00067887
1107.13543213,0.00057219
1109.06423950,0.00051765
1110.99304687,0.00040168
1112.92185425,0.00049714
1114.85066162,0.00077117
1116.77946899,0.00047178
1118.70827637,0.00023626
1120.63708374,0.00046062
1122.56589111,0.00052615
1124.49469849,0.00045160
1126.42350586,0.00052380
1128.35231323,0.00059108
1130.28112061,0.00054661
1132.20992798,0.00051612
1134.13873535,0.00060882
1136.06754272,0.00050388
1137.99635010,0.00037187
1139.92515747,0.00070756
1141.85396484,0.00085514
1143.78277222,0.00049326
1145.71157959,0.00059977
1147.64038696,0.00089718
1149.56919434,0.00062946
1151.49800171,0.00077466
1153.42680908,0.00090713
1155.35561646,0.00056200
1157.28442383,0.00071826
1159.21323120,0.00083653
1161.14203857,0.00091719
1163.07084595,0.00100698
1164.99965332,0.00088913
1166.92846069,0.00103338
1168.85726807,0.00094029
1170.78607544,0.00089603
1172.71488281,0.00110881
1174.64369019,0.00103762
1176.57249756,0.00102326
1178.50130493,0.00113026
1180.43011230,0.00116016
1182.35891968,0.00128143
1184.28772705,0.00146495
1186.21653442,0.00144028
1188.14534180,0.00149797
1190.07414917,0.00164207
1192.00295654,0.00148525
1193.93176392,0.00134566
1195.86057129,0.00154192
1197.78937866,0.00182473
1199.71818604,0.00171791
1201.64699341,0.00167894
1203.57580078,0.00207642
1205.50460815,0.00211497
1207.43341553,0.00199655
1209.36222290,0.00229024
1211.29103027,0.00223812
1213.21983765,0.00214840
1215.14864502,0.00257478
1217.07745239,0.00251138
1219.00625977,0.00236494
1220.93506714,0.00237486
1222.86387451,0.00230211
1224.79268188,0.00249578
1226.72148926,0.00245497
1228.65029663,0.00259702
1230.57910400,0.00267932
1232.50791138,0.00261577
1234.43671875,0.00265618
1236.36552612,0.00244880
1238.29433350,0.00264017
1240.22314087,0.00256743
1242.15194824,0.00253169
1244.08075562,0.00269397
1246.00956299,0.00246265
1247.93837036,0.00264829
1249.86717773,0.00259117
1251.79598511,0.00242671
1253.72479248,0.00250105
1255.65359985,0.00251492
1257.58240723,0.00259338
1259.51121460,0.00260325
1261.44002197,0.00263364
1263.36882935,0.00238107
1265.29763672,0.00237012
1267.22644409,0.00244312
1269.15525146,0.00228295
1271.08405884,0.00234548
1273.01286621,0.00233418
1274.94167358,0.00238150
1276.87048096,0.00228865
1278.79928833,0.00225913
1280.72809570,0.00223985
1282.65690308,0.00208445
1284.58571045,0.00221996
1286.51451782,0.00210073
1288.44332520,0.00197998
1290.37213257,0.00202082
1292.30093994,0.00202330
1294.22974731,0.00199502
1296.15855469,0.00198695
1298.08736206,0.00211277
1300.01616943,0.00200191
1301.94497681,0.00206894
1303.87378418,0.00219627
1305.80259155,0.00214850
1307.73139893,0.00208089
1309.66020630,0.00205090
1311.58901367,0.00221595
1313.51782104,0.00211440
1315.44662842,0.00233051
1317.37543579,0.00257553
1319.30424316,0.00230309
1321.23305054,0.00240467
1323.16185791,0.00255997
1325.09066528,0.00257674
1327.01947266,0.00266097
1328.94828003,0.00279178
1330.87708740,0.00284795
1332.80589478,0.00283620
1334.73470215,0.00295403
1336.66350952,0.00298968
1338.59231689,0.00308642
1340.52112427,0.00301719
1342.44993164,0.00303176
1344.37873901,0.00328194
1346.30754639,0.00319615
1348.23635376,0.00321997
1350.16516113,0.00313101
1352.09396851,0.00298990
1354.02277588,0.00314322
1355.95158325,0.00311669
1357.88039062,0.00314501
1359.80919800,0.00305059
1361.73800537,0.00292415
1363.66681274,0.00304217
1365.59562012,0.00293411
1367.52442749,0.00276608
1369.45323486,0.00278170
1371.38204224,0.00286656
1373.31084961,0.00281594
1375.23965698,0.00285798
1377.16846436,0.00314527
1379.09727173,0.00309063
1381.02607910,0.00285330
1382.95488647,0.00293802
1384.88369385,0.00290833
1386.81250122,0.00260209
1388.74130859,0.00281754
1390.67011597,0.00319803
1392.59892334,0.00294156
1394.52773071,0.00288327
1396.45653809,0.00301487
1398.38534546,0.00281484
1400.31415283,0.00297458
1402.24296021,0.00315532
1404.17176758,0.00306909
1406.10057495,0.00323162
1408.02938232,0.00318865
1409.95818970,0.00317983
1411.88699707,0.00319585
1413.81580444,0.00293807
1415.74461182,0.00318616
1417.67341919,0.00305457
1419.60222656,0.00267026
1421.53103394,0.00292545
1423.45984131,0.00291345
1425.38864868,0.00295041
1427.31745605,0.00291199
1429.24626343,0.00264150
1431.17507080,0.00254931
1433.10387817,0.00244472
1435.03268555,0.00255055
1436.96149292,0.00242598
1438.89030029,0.00241571
1440.81910767,0.00253262
1442.74791504,0.00233268
1444.67672241,0.00232700
1446.60552979,0.00216366
1448.53433716,0.00218403
1450.46314453,0.00237021
1452.39195190,0.00246602
1454.32075928,0.00246641
1456.24956665,0.00206535
1458.17837402,0.00251331
1460.10718140,0.00306797
1462.03598877,0.00287412
1463.96479614,0.00295548
1465.89360352,0.00296031
1467.82241089,0.00339055
1469.75121826,0.00373210
1471.68002563,0.00326471
1473.60883301,0.00335299
1475.53764038,0.00362681
1477.46644775,0.00399528
1479.39525513,0.00452720
1481.32406250,0.00454546
1483.25286987,0.00471347
1485.18167725,0.00495075
1487.11048462,0.00503461
1489.03929199,0.00491494
1490.96809937,0.00489201
1492.89690674,0.00556824
1494.82571411,0.00546409
1496.75452148,0.00503279
1498.68332886,0.00561269
1500.61213623,0.00579264
1502.54094360,0.00609670
1504.46975098,0.00586225
1506.39855835,0.00454634
1508.32736572,0.00531415
1510.25617310,0.00613903
1512.18498047,0.00597942
1514.11378784,0.00639776
1516.04259521,0.00596464
1517.97140259,0.00624045
1519.90020996,0.00606107
1521.82901733,0.00541330
1523.75782471,0.00627363
1525.68663208,0.00624278
1527.61543945,0.00628904
1529.54424683,0.00675612
1531.47305420,0.00653493
1533.40186157,0.00594080
1535.33066895,0.00646752
1537.25947632,0.00680410
1539.18828369,0.00492351
1541.11709106,0.00534478
1543.04589844,0.00608951
1544.97470581,0.00612030
1546.90351318,0.00715279
1548.83232056,0.00661370
1550.76112793,0.00699012
1552.68993530,0.00663402
1554.61874268,0.00623169
1556.54755005,0.00665815
1558.47635742,0.00474636
1560.40516479,0.00522592
1562.33397217,0.00698464
1564.26277954,0.00675084
1566.19158691,0.00692070
1568.12039429,0.00682205
1570.04920166,0.00616603
1571.97800903,0.00703753
1573.90681641,0.00727882
1575.83562378,0.00581001
1577.76443115,0.00663501
1579.69323853,0.00732902
1581.62204590,0.00670825
1583.55085327,0.00707440
1585.47966064,0.00715720
1587.40846802,0.00720247
1589.33727539,0.00703620
1591.26608276,0.00709874
1593.19489014,0.00724894
1595.12369751,0.00702906
1597.05250488,0.00710951
1598.98131226,0.00718436
1600.91011963,0.00725109
1602.83892700,0.00718406
1604.76773437,0.00714083
1606.69654175,0.00690790
1608.62534912,0.00720813
1610.55415649,0.00733331
1612.48296387,0.00719767
1614.41177124,0.00714662
1616.34057861,0.00599763
1618.26938599,0.00656801
1620.19819336,0.00737139
1622.12700073,0.00661394
1624.05580811,0.00671398
1625.98461548,0.00707940
1627.91342285,0.00708921
1629.84223022,0.00701170
1631.77103760,0.00748290
1633.69984497,0.00691458
1635.62865234,0.00601417
1637.55745972,0.00684271
1639.48626709,0.00743482
1641.41507446,0.00734602
1643.34388184,0.00733440
1645.27268921,0.00685837
1647.20149658,0.00621734
1649.13030396,0.00750534
1651.05911133,0.00702954
1652.98791870,0.00473208
1654.91672607,0.00623830
1656.84553345,0.00750464
1658.77434082,0.00745249
1660.70314819,0.00757092
1662.63195557,0.00687346
1664.56076294,0.00731211
1666.48957031,0.00765902
1668.41837769,0.00689573
1670.34718506,0.00682665
1672.27599243,0.00756559
1674.20479980,0.00691105
1676.13360718,0.00686947
1678.06241455,0.00780301
1679.99122192,0.00736905
1681.92002930,0.00743404
1683.84883667,0.00615115
1685.77764404,0.00626225
1687.70645142,0.00816346
1689.63525879,0.00708141
1691.56406616,0.00785850
1693.49287354,0.00790147
1695.42168091,0.00607394
1697.35048828,0.00727325
1699.27929565,0.00647655
1701.20810303,0.00598712
1703.13691040,0.00786839
1705.06571777,0.00722725
1706.99452515,0.00721174
1708.92333252,0.00796890
1710.85213989,0.00765015
1712.78094727,0.00770561
1714.70975464,0.00717309
1716.63856201,0.00651609
1718.56736938,0.00667106
1720.49617676,0.00770436
1722.42498413,0.00776854
1724.35379150,0.00720959
1726.28259888,0.00785048
1728.21140625,0.00743172
1730.14021362,0.00748622
1732.06902100,0.00720062
1733.99782837,0.00570523
1735.92663574,0.00689844
1737.85544312,0.00761008
1739.78425049,0.00713428
1741.71305786,0.00750752
1743.64186523,0.00745547
1745.57067261,0.00757801
1747.49947998,0.00761800
1749.42828735,0.00735137
1751.35709473,0.00704295
1753.28590210,0.00764647
1755.21470947,0.00798355
1757.14351685,0.00736905
1759.07232422,0.00796440
1761.00113159,0.00757035
1762.92993896,0.00748760
1764.85874634,0.00847408
1766.78755371,0.00766468
1768.71636108,0.00770498
1770.64516846,0.00768765
1772.57397583,0.00697115
1774.50278320,0.00769450
1776.43159058,0.00820649
1778.36039795,0.00812270
1780.28920532,0.00791883
1782.21801270,0.00814612
1784.14682007,0.00816909
1786.07562744,0.00782865
1788.00443481,0.00833282
1789.93324219,0.00808450
1791.86204956,0.00738265
1793.79085693,0.00777997
1795.71966431,0.00827372
1797.64847168,0.00822445
1799.57727905,0.00791336
1801.50608643,0.00789339
1803.43489380,0.00820123
1805.36370117,0.00814506
1807.29250854,0.00809326
1809.22131592,0.00812983
1811.15012329,0.00797657
1813.07893066,0.00827653
1815.00773804,0.00835037
1816.93654541,0.00830821
1818.86535278,0.00843698
1820.79416016,0.00843968
1822.72296753,0.00837114
1824.65177490,0.00793131
1826.58058228,0.00836457
1828.50938965,0.00821008
1830.43819702,0.00772789
1832.36700439,0.00841914
1834.29581177,0.00827897
1836.22461914,0.00844671
1838.15342651,0.00839439
1840.08223389,0.00829994
1842.01104126,0.00841901
1843.93984863,0.00751926
1845.86865601,0.00813586
1847.79746338,0.00856508
1849.72627075,0.00828514
1851.65507812,0.00863020
1853.58388550,0.00849894
1855.51269287,0.00854019
1857.44150024,0.00839599
1859.37030762,0.00839568
1861.29911499,0.00850100
1863.22792236,0.00841628
1865.15672974,0.00850019
1867.08553711,0.00819395
1869.01434448,0.00790569
1870.94315186,0.00814031
1872.87195923,0.00850167
1874.80076660,0.00837476
1876.72957397,0.00844819
1878.65838135,0.00853405
1880.58718872,0.00844773
1882.51599609,0.00845656
1884.44480347,0.00819674
1886.37361084,0.00846798
1888.30241821,0.00830212
1890.23122559,0.00806836
1892.16003296,0.00857586
1894.08884033,0.00836767
1896.01764771,0.00823775
1897.94645508,0.00848607
1899.87526245,0.00844585
1901.80406982,0.00831513
1903.73287720,0.00837965
1905.66168457,0.00847217
1907.59049194,0.00826073
1909.51929932,0.00825262
1911.44810669,0.00832927
1913.37691406,0.00837121
1915.30572144,0.00829213
1917.23452881,0.00792840
1919.16333618,0.00811742
1921.09214355,0.00839616
1923.02095093,0.00821825
1924.94975830,0.00837006
1926.87856567,0.00844984
1928.80737305,0.00841331
1930.73618042,0.00852914
1932.66498779,0.00835042
1934.59379517,0.00836927
1936.52260254,0.00847985
1938.45140991,0.00844519
1940.38021729,0.00843824
1942.30902466,0.00831566
1944.23783203,0.00836727
1946.16663940,0.00844748
1948.09544678,0.00831349
1950.02425415,0.00832232
1951.95306152,0.00860225
1953.88186890,0.00847717
1955.81067627,0.00827961
1957.73948364,0.00851530
1959.66829102,0.00845307
1961.59709839,0.00846747
1963.52590576,0.00855542
1965.45471313,0.00840958
1967.38352051,0.00847855
1969.31232788,0.00850383
1971.24113525,0.00843070
1973.16994263,0.00848785
1975.09875000,0.00851444
1977.02755737,0.00839514
1978.95636475,0.00842959
1980.88517212,0.00849600
1982.81397949,0.00846029
1984.74278687,0.00848564
1986.67159424,0.00849969
1988.60040161,0.00856967
1990.52920898,0.00840415
1992.45801636,0.00827260
1994.38682373,0.00843538
1996.31563110,0.00846241
1998.24443848,0.00855672
2000.17324585,0.00861357
2002.10205322,0.00844818
2004.03086060,0.00845794
2005.95966797,0.00847178
2007.88847534,0.00830425
2009.81728271,0.00838635
2011.74609009,0.00851201
2013.67489746,0.00842819
2015.60370483,0.00830230
2017.53251221,0.00821317
2019.46131958,0.00829598
2021.39012695,0.00823328
2023.31893433,0.00825602
2025.24774170,0.00844005
2027.17654907,0.00826152
2029.10535645,0.00822176
2031.03416382,0.00839633
2032.96297119,0.00833733
2034.89177856,0.00821768
2036.82058594,0.00823423
2038.74939331,0.00830245
2040.67820068,0.00821920
2042.60700806,0.00818304
2044.53581543,0.00829239
2046.46462280,0.00822751
2048.39343018,0.00819844
2050.32223755,0.00826821
2052.25104492,0.00816975
2054.17985229,0.00807076
2056.10865967,0.00812706
2058.03746704,0.00826576
2059.96627441,0.00818452
2061.89508179,0.00813211
2063.82388916,0.00807237
2065.75269653,0.00795045
2067.68150391,0.00822537
2069.61031128,0.00812569
2071.53911865,0.00808971
2073.46792603,0.00834780
2075.39673340,0.00806176
2077.32554077,0.00810229
2079.25434814,0.00816804
2081.18315552,0.00797988
2083.11196289,0.00810151
2085.04077026,0.00814661
2086.96957764,0.00813567
2088.89838501,0.00811165
2090.82719238,0.00812786
2092.75599976,0.00814726
2094.68480713,0.00804521
2096.61361450,0.00812315
2098.54242187,0.00813949
2100.47122925,0.00798012
2102.40003662,0.00804933
2104.32884399,0.00804540
2106.25765137,0.00798626
2108.18645874,0.00800449
2110.11526611,0.00790033
2112.04407349,0.00803156
2113.97288086,0.00803408
2115.90168823,0.00793051
2117.83049561,0.00799095
2119.75930298,0.00794225
2121.68811035,0.00806526
2123.61691772,0.00809058
2125.54572510,0.00805668
2127.47453247,0.00803936
2129.40333984,0.00790465
2131.33214722,0.00796558
2133.26095459,0.00800123
2135.18976196,0.00805696
2137.11856934,0.00805478
2139.04737671,0.00786310
2140.97618408,0.00792707
2142.90499146,0.00807255
2144.83379883,0.00798346
2146.76260620,0.00795755
2148.69141357,0.00791393
2150.62022095,0.00785175
2152.54902832,0.00798046
2154.47783569,0.00791355
2156.40664307,0.00787341
2158.33545044,0.00805907
2160.26425781,0.00805089
2162.19306519,0.00787846
2164.12187256,0.00792541
2166.05067993,0.00796464
2167.97948730,0.00774751
2169.90829468,0.00793021
2171.83710205,0.00810877
2173.76590942,0.00794642
2175.69471680,0.00789999
2177.62352417,0.00787648
2179.55233154,0.00794934
2181.48113892,0.00798709
2183.40994629,0.00803632
2185.33875366,0.00799664
2187.26756104,0.00787721
2189.19636841,0.00800450
2191.12517578,0.00798301
2193.05398315,0.00782998
2194.98279053,0.00784239
2196.91159790,0.00793684
2198.84040527,0.00798742
2200.76921265,0.00795867
2202.69802002,0.00794590
2204.62682739,0.00797085
2206.55563477,0.00785658
2208.48444214,0.00784040
2210.41324951,0.00792250
2212.34205688,0.00774336
2214.27086426,0.00774288
2216.19967163,0.00785420
2218.12847900,0.00792254
2220.05728638,0.00794973
2221.98609375,0.00793352
2223.91490112,0.00803621
2225.84370850,0.00792072
2227.77251587,0.00792972
2229.70132324,0.00796690
2231.63013062,0.00788709
2233.55893799,0.00785089
2235.48774536,0.00777515
2237.41655273,0.00790244
2239.34536011,0.00784053
2241.27416748,0.00782453
2243.20297485,0.00787707
2245.13178223,0.00778658
2247.06058960,0.00781283
2248.98939697,0.00773587
2250.91820435,0.00783307
2252.84701172,0.00789374
2254.77581909,0.00769874
2256.70462646,0.00769682
2258.63343384,0.00790054
2260.56224121,0.00791376
2262.49104858,0.00769098
2264.41985596,0.00773978
2266.34866333,0.00795357
2268.27747070,0.00785003
2270.20627808,0.00769562
2272.13508545,0.00782358
2274.06389282,0.00776658
2275.99270020,0.00773936
2277.92150757,0.00784234
2279.85031494,0.00769706
2281.77912231,0.00768956
2283.70792969,0.00771453
2285.63673706,0.00781698
2287.56554443,0.00784766
2289.49435181,0.00770539
2291.42315918,0.00776736
2293.35196655,0.00778469
2295.28077393,0.00774046
2297.20958130,0.00759242
2299.13838867,0.00756210
2301.06719604,0.00775157
2302.99600342,0.00776096
2304.92481079,0.00766577
2306.85361816,0.00760108
2308.78242554,0.00754190
2310.71123291,0.00747989
2312.64004028,0.00734984
2314.56884766,0.00731239
2316.49765503,0.00740763
2318.42646240,0.00718908
2320.35526978,0.00710573
2322.28407715,0.00712030
2324.21288452,0.00693816
2326.14169189,0.00695846
2328.07049927,0.00683729
2329.99930664,0.00680882
2331.92811401,0.00673282
2333.85692139,0.00670334
2335.78572876,0.00678536
2337.71453613,0.00663369
2339.64334351,0.00675599
2341.57215088,0.00673395
2343.50095825,0.00683433
2345.42976562,0.00701024
2347.35857300,0.00724429
2349.28738037,0.00751946
2351.21618774,0.00710864
2353.14499512,0.00691944
2355.07380249,0.00663968
2357.00260986,0.00644717
2358.93141724,0.00648891
2360.86022461,0.00625112
2362.78903198,0.00639808
2364.71783936,0.00624664
2366.64664673,0.00629628
2368.57545410,0.00661721
2370.50426147,0.00652339
2372.43306885,0.00674838
2374.36187622,0.00699523
2376.29068359,0.00715362
2378.21949097,0.00731630
2380.14829834,0.00739775
2382.07710571,0.00755241
2384.00591309,0.00760614
2385.93472046,0.00754967
2387.86352783,0.00752001
2389.79233521,0.00751170
2391.72114258,0.00753992
2393.64994995,0.00761911
2395.57875732,0.00759105
2397.50756470,0.00752929
2399.43637207,0.00757878
2401.36517944,0.00767301
2403.29398682,0.00763507
2405.22279419,0.00753942
2407.15160156,0.00753566
2409.08040894,0.00751389
2411.00921631,0.00752985
2412.93802368,0.00759774
2414.86683105,0.00759583
2416.79563843,0.00750368
2418.72444580,0.00750245
2420.65325317,0.00753552
2422.58206055,0.00754653
2424.51086792,0.00756394
2426.43967529,0.00747602
2428.36848267,0.00749426
2430.29729004,0.00752345
2432.22609741,0.00743881
2434.15490479,0.00743221
2436.08371216,0.00756749
2438.01251953,0.00759012
2439.94132690,0.00751708
2441.87013428,0.00748443
2443.79894165,0.00738877
2445.72774902,0.00749550
2447.65655640,0.00742688
2449.58536377,0.00740540
2451.51417114,0.00759530
2453.44297852,0.00740693
2455.37178589,0.00737661
2457.30059326,0.00745496
2459.22940063,0.00751483
2461.15820801,0.00742574
2463.08701538,0.00725792
2465.01582275,0.00744577
2466.94463013,0.00742441
2468.87343750,0.00741014
2470.80224487,0.00746001
2472.73105225,0.00731273
2474.65985962,0.00732000
2476.58866699,0.00739407
2478.51747437,0.00743170
2480.44628174,0.00736032
2482.37508911,0.00728832
2484.30389648,0.00741842
2486.23270386,0.00747336
2488.16151123,0.00744790
2490.09031860,0.00750638
2492.01912598,0.00743296
2493.94793335,0.00736932
2495.87674072,0.00728009
2497.80554810,0.00729027
2499.73435547,0.00741444
2501.66316284,0.00732404
2503.59197021,0.00737234
2505.52077759,0.00732421
2507.44958496,0.00737288
2509.37839233,0.00742362
2511.30719971,0.00721992
2513.23600708,0.00732715
2515.16481445,0.00729914
2517.09362183,0.00733024
2519.02242920,0.00740655
2520.95123657,0.00730874
2522.88004395,0.00727980
2524.80885132,0.00722649
2526.73765869,0.00732424
2528.66646606,0.00735438
2530.59527344,0.00736003
2532.52408081,0.00729603
2534.45288818,0.00729602
2536.38169556,0.00733805
2538.31050293,0.00728520
2540.23931030,0.00737211
2542.16811768,0.00727945
2544.09692505,0.00724145
2546.02573242,0.00726887
2547.95453979,0.00729910
2549.88334717,0.00725662
2551.81215454,0.00725803
2553.74096191,0.00737071
2555.66976929,0.00723301
2557.59857666,0.00733451
2559.52738403,0.00726074
2561.45619141,0.00712227
2563.38499878,0.00723477
2565.31380615,0.00723779
2567.24261353,0.00730503
2569.17142090,0.00726005
2571.10022827,0.00725865
2573.02903564,0.00723846
2574.95784302,0.00726514
2576.88665039,0.00717869
2578.81545776,0.00713718
2580.74426514,0.00733503
2582.67307251,0.00716309
2584.60187988,0.00714805
2586.53068726,0.00723595
2588.45949463,0.00722191
2590.38830200,0.00719410
2592.31710937,0.00714422
2594.24591675,0.00722506
2596.17472412,0.00722220
2598.10353149,0.00718361
2600.03233887,0.00711450
2601.96114624,0.00723760
2603.88995361,0.00721505
2605.81876099,0.00713335
2607.74756836,0.00714446
2609.67637573,0.00701346
2611.60518311,0.00715715
2613.53399048,0.00713122
2615.46279785,0.00701207
2617.39160522,0.00703875
2619.32041260,0.00708760
2621.24921997,0.00711741
2623.17802734,0.00713168
2625.10683472,0.00716914
2627.03564209,0.00703490
2628.96444946,0.00711753
2630.89325684,0.00711810
2632.82206421,0.00706707
2634.75087158,0.00707550
2636.67967895,0.00707292
2638.60848633,0.00720219
2640.53729370,0.00708298
2642.46610107,0.00706175
2644.39490845,0.00704532
2646.32371582,0.00709966
2648.25252319,0.00707594
2650.18133057,0.00700104
2652.11013794,0.00714013
2654.03894531,0.00699482
2655.96775269,0.00711028
2657.89656006,0.00709567
2659.82536743,0.00690213
2661.75417480,0.00697663
2663.68298218,0.00699272
2665.61178955,0.00699455
2667.54059692,0.00695295
2669.46940430,0.00704088
2671.39821167,0.00693636
2673.32701904,0.00694767
2675.25582642,0.00704614
2677.18463379,0.00695548
2679.11344116,0.00699482
2681.04224854,0.00695624
2682.97105591,0.00702374
2684.89986328,0.00697599
2686.82867065,0.00693768
2688.75747803,0.00694690
2690.68628540,0.00692074
2692.61509277,0.00692310
2694.54390015,0.00679569
2696.47270752,0.00683683
2698.40151489,0.00676417
2700.33032227,0.00686753
2702.25912964,0.00697196
2704.18793701,0.00687254
2706.11674438,0.00690995
2708.04555176,0.00681735
2709.97435913,0.00689897
2711.90316650,0.00695381
2713.83197388,0.00688283
2715.76078125,0.00682252
2717.68958862,0.00683988
2719.61839600,0.00677366
2721.54720337,0.00665703
2723.47601074,0.00682044
2725.40481812,0.00669723
2727.33362549,0.00673772
2729.26243286,0.00686782
2731.19124023,0.00678481
2733.12004761,0.00682915
2735.04885498,0.00669688
2736.97766235,0.00673663
2738.90646973,0.00672169
2740.83527710,0.00664581
2742.76408447,0.00677465
2744.69289185,0.00681528
2746.62169922,0.00684693
2748.55050659,0.00674518
2750.47931396,0.00673287
2752.40812134,0.00678031
2754.33692871,0.00666354
2756.26573608,0.00673347
2758.19454346,0.00675327
2760.12335083,0.00662606
2762.05215820,0.00673091
2763.98096558,0.00671428
2765.90977295,0.00660070
2767.83858032,0.00659057
2769.76738770,0.00654088
2771.69619507,0.00662182
2773.62500244,0.00661545
2775.55380981,0.00665580
2777.48261719,0.00671753
2779.41142456,0.00664061
2781.34023193,0.00669241
2783.26903931,0.00667156
2785.19784668,0.00662412
2787.12665405,0.00662864
2789.05546143,0.00663931
2790.98426880,0.00651982
2792.91307617,0.00644472
2794.84188354,0.00654851
2796.77069092,0.00653560
2798.69949829,0.00652751
2800.62830566,0.00648616
2802.55711304,0.00650838
2804.48592041,0.00649594
2806.41472778,0.00644668
2808.34353516,0.00654370
2810.27234253,0.00657228
2812.20114990,0.00654858
2814.12995728,0.00650417
2816.05876465,0.00657321
2817.98757202,0.00646937
2819.91637939,0.00640904
2821.84518677,0.00650403
2823.77399414,0.00640262
2825.70280151,0.00652460
2827.63160889,0.00648616
2829.56041626,0.00635672
2831.48922363,0.00644641
2833.41803101,0.00643359
2835.34683838,0.00638848
2837.27564575,0.00633615
2839.20445312,0.00646444
2841.13326050,0.00649343
2843.06206787,0.00630578
2844.99087524,0.00628575
2846.91968262,0.00630896
2848.84848999,0.00621270
2850.77729736,0.00619310
2852.70610474,0.00627521
2854.63491211,0.00623969
2856.56371948,0.00620530
2858.49252686,0.00621560
2860.42133423,0.00622163
2862.35014160,0.00621933
2864.27894897,0.00619347
2866.20775635,0.00617757
2868.13656372,0.00626194
2870.06537109,0.00635404
2871.99417847,0.00619467
2873.92298584,0.00611079
2875.85179321,0.00618302
2877.78060059,0.00617132
2879.70940796,0.00613175
2881.63821533,0.00613177
2883.56702270,0.00612600
2885.49583008,0.00612970
2887.42463745,0.00619632
2889.35344482,0.00619892
2891.28225220,0.00622576
2893.21105957,0.00601212
2895.13986694,0.00588581
2897.06867432,0.00614064
2898.99748169,0.00607866
2900.92628906,0.00604144
2902.85509644,0.00612470
2904.78390381,0.00611886
2906.71271118,0.00605394
2908.64151855,0.00596789
2910.57032593,0.00605044
2912.49913330,0.00591780
2914.42794067,0.00590455
2916.35674805,0.00601192
2918.28555542,0.00587337
2920.21436279,0.00592698
2922.14317017,0.00594948
2924.07197754,0.00583818
2926.00078491,0.00592021
2927.92959229,0.00600272
2929.85839966,0.00594253
2931.78720703,0.00590285
2933.71601440,0.00594836
2935.64482178,0.00593004
2937.57362915,0.00584855
2939.50243652,0.00591819
2941.43124390,0.00592298
2943.36005127,0.00589156
2945.28885864,0.00594593
2947.21766602,0.00587614
2949.14647339,0.00593530
2951.07528076,0.00591529
2953.00408813,0.00586619
2954.93289551,0.00592978
2956.86170288,0.00587985
2958.79051025,0.00589021
2960.71931763,0.00583344
2962.64812500,0.00585754
2964.57693237,0.00579553
2966.50573975,0.00580442
2968.43454712,0.00591539
2970.36335449,0.00572500
2972.29216187,0.00580558
2974.22096924,0.00579784
2976.14977661,0.00579528
2978.07858398,0.00595548
2980.00739136,0.00577657
2981.93619873,0.00572186
2983.86500610,0.00577668
2985.79381348,0.00584632
2987.72262085,0.00589317
2989.65142822,0.00589105
2991.58023560,0.00580314
2993.50904297,0.00569466
2995.43785034,0.00580183
2997.36665771,0.00579123
2999.29546509,0.00575127
3001.22427246,0.00576557
3003.15307983,0.00582038
3005.08188721,0.00584900
3007.01069458,0.00571854
3008.93950195,0.00573822
3010.86830933,0.00576450
3012.79711670,0.00568411
3014.72592407,0.00567558
3016.65473145,0.00567327
3018.58353882,0.00569221
3020.51234619,0.00573950
3022.44115356,0.00568250
3024.36996094,0.00570387
3026.29876831,0.00571181
3028.22757568,0.00563878
3030.15638306,0.00574314
3032.08519043,0.00568457
3034.01399780,0.00564710
3035.94280518,0.00571399
3037.87161255,0.00557893
3039.80041992,0.00554520
3041.72922729,0.00561367
3043.65803467,0.00559248
3045.58684204,0.00548546
3047.51564941,0.00550341
3049.44445679,0.00556575
3051.37326416,0.00558407
3053.30207153,0.00563687
3055.23087891,0.00565324
3057.15968628,0.00564929
3059.08849365,0.00555441
3061.01730103,0.00554996
3062.94610840,0.00557411
3064.87491577,0.00551701
3066.80372314,0.00548882
3068.73253052,0.00552052
3070.66133789,0.00552879
3072.59014526,0.00543237
3074.51895264,0.00552467
3076.44776001,0.00557534
3078.37656738,0.00552473
3080.30537476,0.00543914
3082.23418213,0.00536713
3084.16298950,0.00549081
3086.09179687,0.00540333
3088.02060425,0.00534736
3089.94941162,0.00538822
3091.87821899,0.00540692
3093.80702637,0.00546766
3095.73583374,0.00544393
3097.66464111,0.00545844
3099.59344849,0.00537897
3101.52225586,0.00541040
3103.45106323,0.00536797
3105.37987061,0.00522879
3107.30867798,0.00536835
3109.23748535,0.00542155
3111.16629272,0.00539107
3113.09510010,0.00536955
3115.02390747,0.00535292
3116.95271484,0.00534204
3118.88152222,0.00531915
3120.81032959,0.00526328
3122.73913696,0.00526235
3124.66794434,0.00535853
3126.59675171,0.00527265
3128.52555908,0.00529381
3130.45436645,0.00528947
3132.38317383,0.00519808
3134.31198120,0.00529351
3136.24078857,0.00523156
3138.16959595,0.00524293
3140.09840332,0.00520306
3142.02721069,0.00504151
3143.95601807,0.00515939
3145.88482544,0.00513731
3147.81363281,0.00510477
3149.74244019,0.00520111
3151.67124756,0.00509227
3153.60005493,0.00508184
3155.52886230,0.00511065
3157.45766968,0.00504205
3159.38647705,0.00509621
3161.31528442,0.00518688
3163.24409180,0.00516602
3165.17289917,0.00503731
3167.10170654,0.00498809
3169.03051392,0.00496312
3170.95932129,0.00496572
3172.88812866,0.00499698
3174.81693604,0.00495212
3176.74574341,0.00497841
3178.67455078,0.00497871
3180.60335815,0.00504877
3182.53216553,0.00499207
3184.46097290,0.00486331
3186.38978027,0.00499980
3188.31858765,0.00490904
3190.24739502,0.00482213
3192.17620239,0.00489797
3194.10500977,0.00487548
3196.03381714,0.00483579
3197.96262451,0.00479678
3199.89143188,0.00485939
3201.82023926,0.00485163
3203.74904663,0.00485164
3205.67785400,0.00485257
3207.60666138,0.00480969
3209.53546875,0.00489007
3211.46427612,0.00486866
3213.39308350,0.00479118
3215.32189087,0.00476860
3217.25069824,0.00474137
3219.17950562,0.00472855
3221.10831299,0.00474661
3223.03712036,0.00478215
3224.96592773,0.00478644
3226.89473511,0.00475377
3228.82354248,0.00480461
3230.75234985,0.00484420
3232.68115723,0.00471060
3234.60996460,0.00467208
3236.53877197,0.00470238
3238.46757935,0.00474533
3240.39638672,0.00478957
3242.32519409,0.00473374
3244.25400146,0.00468963
3246.18280884,0.00467861
3248.11161621,0.00477552
3250.04042358,0.00474194
3251.96923096,0.00466662
3253.89803833,0.00469474
3255.82684570,0.00464844
3257.75565308,0.00467272
3259.68446045,0.00467502
3261.61326782,0.00470007
3263.54207520,0.00468661
3265.47088257,0.00465530
3267.39968994,0.00465408
3269.32849731,0.00457103
3271.25730469,0.00463339
3273.18611206,0.00466048
3275.11491943,0.00464307
3277.04372681,0.00458753
3278.97253418,0.00454601
3280.90134155,0.00465551
3282.83014893,0.00463990
3284.75895630,0.00466223
3286.68776367,0.00468737
3288.61657104,0.00463664
3290.54537842,0.00461205
3292.47418579,0.00454490
3294.40299316,0.00456554
3296.33180054,0.00458654
3298.26060791,0.00453920
3300.18941528,0.00454935
3302.11822266,0.00457345
3304.04703003,0.00455753
3305.97583740,0.00455923
3307.90464478,0.00458595
3309.83345215,0.00463269
3311.76225952,0.00460606
3313.69106689,0.00456834
3315.61987427,0.00461118
3317.54868164,0.00455020
3319.47748901,0.00459658
3321.40629639,0.00463880
3323.33510376,0.00446105
3325.26391113,0.00453199
3327.19271851,0.00467896
3329.12152588,0.00454321
3331.05033325,0.00444309
3332.97914062,0.00445881
3334.90794800,0.00452308
3336.83675537,0.00458491
3338.76556274,0.00446213
3340.69437012,0.00444882
3342.62317749,0.00451055
3344.55198486,0.00447929
3346.48079224,0.00452306
3348.40959961,0.00443272
3350.33840698,0.00444676
3352.26721436,0.00450570
3354.19602173,0.00442624
3356.12482910,0.00444628
3358.05363647,0.00438644
3359.98244385,0.00442830
3361.91125122,0.00447163
3363.84005859,0.00435041
3365.76886597,0.00435534
3367.69767334,0.00441922
3369.62648071,0.00445020
3371.55528809,0.00440611
3373.48409546,0.00440046
3375.41290283,0.00443412
3377.34171020,0.00434291
3379.27051758,0.00434642
3381.19932495,0.00445836
3383.12813232,0.00442563
3385.05693970,0.00442121
3386.98574707,0.00436684
3388.91455444,0.00424683
3390.84336182,0.00434610
3392.77216919,0.00430197
3394.70097656,0.00423235
3396.62978394,0.00429443
3398.55859131,0.00427341
3400.48739868,0.00433506
3402.41620605,0.00430258
3404.34501343,0.00422297
3406.27382080,0.00426607
3408.20262817,0.00432900
3410.13143555,0.00425595
3412.06024292,0.00414561
3413.98905029,0.00423635
3415.91785767,0.00423674
3417.84666504,0.00423805
3419.77547241,0.00429246
3421.70427979,0.00419639
3423.63308716,0.00422500
3425.56189453,0.00427980
3427.49070190,0.00422124
3429.41950928,0.00424455
3431.34831665,0.00429096
3433.27712402,0.00428747
3435.20593140,0.00422059
3437.13473877,0.00412271
3439.06354614,0.00416340
3440.99235352,0.00420357
3442.92116089,0.00418550
3444.84996826,0.00414967
3446.77877563,0.00403712
3448.70758301,0.00409283
3450.63639038,0.00418580
3452.56519775,0.00415809
3454.49400513,0.00419943
3456.42281250,0.00419470
3458.35161987,0.00410969
3460.28042725,0.00415201
3462.20923462,0.00420276
3464.13804199,0.00414677
3466.06684937,0.00413040
3467.99565674,0.00406809
3469.92446411,0.00406545
3471.85327148,0.00408682
3473.78207886,0.00403232
3475.71088623,0.00406167
3477.63969360,0.00404590
3479.56850098,0.00407754
3481.49730835,0.00405554
3483.42611572,0.00400750
3485.35492310,0.00407064
3487.28373047,0.00402040
3489.21253784,0.00406801
3491.14134521,0.00411430
3493.07015259,0.00401945
3494.99895996,0.00400998
3496.92776733,0.00401622
3498.85657471,0.00397481
3500.78538208,0.00402069
3502.71418945,0.00400716
3504.64299683,0.00391520
3506.57180420,0.00405563
3508.50061157,0.00407501
3510.42941895,0.00400627
3512.35822632,0.00405118
3514.28703369,0.00397587
3516.21584106,0.00403141
3518.14464844,0.00406970
3520.07345581,0.00399764
3522.00226318,0.00398338
3523.93107056,0.00397116
3525.85987793,0.00403491
3527.78868530,0.00407303
3529.71749268,0.00404857
3531.64630005,0.00404891
3533.57510742,0.00406129
3535.50391479,0.00398518
3537.43272217,0.00392918
3539.36152954,0.00397856
3541.29033691,0.00400203
3543.21914429,0.00404818
3545.14795166,0.00394244
3547.07675903,0.00387049
3549.00556641,0.00405612
3550.93437378,0.00401075
3552.86318115,0.00396643
3554.79198853,0.00405990
3556.72079590,0.00399327
3558.64960327,0.00401751
3560.57841064,0.00397739
3562.50721802,0.00394543
3564.43602539,0.00393622
3566.36483276,0.00366694
3568.29364014,0.00366425
3570.22244751,0.00399389
3572.15125488,0.00410912
3574.08006226,0.00395356
3576.00886963,0.00400074
3577.93767700,0.00406460
3579.86648437,0.00391450
3581.79529175,0.00403912
3583.72409912,0.00408418
3585.65290649,0.00388640
3587.58171387,0.00366947
3589.51052124,0.00366137
3591.43932861,0.00399434
3593.36813599,0.00397514
3595.29694336,0.00389774
3597.22575073,0.00410286
3599.15455811,0.00398044
3601.08336548,0.00386978
3603.01217285,0.00400836
3604.94098022,0.00397450
3606.86978760,0.00385843
3608.79859497,0.00369535
3610.72740234,0.00377773
3612.65620972,0.00385917
3614.58501709,0.00374830
3616.51382446,0.00401958
3618.44263184,0.00368429
3620.37143921,0.00356871
3622.30024658,0.00404797
3624.22905395,0.00391942
3626.15786133,0.00406897
3628.08666870,0.00353130
3630.01547607,0.00326022
3631.94428345,0.00393825
3633.87309082,0.00383555
3635.80189819,0.00394741
3637.73070557,0.00395357
3639.65951294,0.00390520
3641.58832031,0.00396202
3643.51712769,0.00384807
3645.44593506,0.00394547
3647.37474243,0.00361475
3649.30354980,0.00335081
3651.23235718,0.00344944
3653.16116455,0.00396855
3655.08997192,0.00378520
3657.01877930,0.00345952
3658.94758667,0.00407156
3660.87639404,0.00396226
3662.80520142,0.00401193
3664.73400879,0.00396197
3666.66281616,0.00389126
3668.59162354,0.00383169
3670.52043091,0.00316106
3672.44923828,0.00378162
3674.37804565,0.00358494
3676.30685303,0.00302970
3678.23566040,0.00378886
3680.16446777,0.00381196
3682.09327515,0.00379189
3684.02208252,0.00388856
3685.95088989,0.00384857
3687.87969727,0.00351890
3689.80850464,0.00332500
3691.73731201,0.00369756
3693.66611938,0.00369488
3695.59492676,0.00387452
3697.52373413,0.00383920
3699.45254150,0.00379770
3701.38134888,0.00379132
3703.31015625,0.00359899
3705.23896362,0.00392574
3707.16777100,0.00376425
3709.09657837,0.00364085
3711.02538574,0.00338445
3712.95419312,0.00330433
3714.88300049,0.00390023
3716.81180786,0.00368479
3718.74061523,0.00373708
3720.66942261,0.00366411
3722.59822998,0.00352165
3724.52703735,0.00375260
3726.45584473,0.00346217
3728.38465210,0.00372354
3730.31345947,0.00368154
3732.24226685,0.00336198
3734.17107422,0.00326961
3736.09988159,0.00312265
3738.02868896,0.00339958
3739.95749634,0.00362072
3741.88630371,0.00365763
3743.81511108,0.00287002
3745.74391846,0.00280165
3747.67272583,0.00357975
3749.60153320,0.00306139
3751.53034058,0.00289140
3753.45914795,0.00335141
3755.38795532,0.00359047
3757.31676270,0.00367759
3759.24557007,0.00346528
3761.17437744,0.00350906
3763.10318481,0.00367154
3765.03199219,0.00356588
3766.96079956,0.00349064
3768.88960693,0.00353728
3770.81841431,0.00346767
3772.74722168,0.00358370
3774.67602905,0.00368580
3776.60483643,0.00363688
3778.53364380,0.00354671
3780.46245117,0.00343152
3782.39125854,0.00361599
3784.32006592,0.00354271
3786.24887329,0.00340037
3788.17768066,0.00360185
3790.10648804,0.00362930
3792.03529541,0.00351705
3793.96410278,0.00363558
3795.89291016,0.00345213
3797.82171753,0.00341490
3799.75052490,0.00353307
3801.67933228,0.00281949
3803.60813965,0.00334725
3805.53694702,0.00363878
3807.46575439,0.00300985
3809.39456177,0.00353549
3811.32336914,0.00340077
3813.25217651,0.00356854
3815.18098389,0.00322673
3817.10979126,0.00288914
3819.03859863,0.00369639
3820.96740601,0.00290094
3822.89621338,0.00298774
3824.82502075,0.00348704
3826.75382812,0.00320113
3828.68263550,0.00347499
3830.61144287,0.00329084
3832.54025024,0.00323804
3834.46905762,0.00329183
3836.39786499,0.00313765
3838.32667236,0.00283214
3840.25547974,0.00309593
3842.18428711,0.00334111
3844.11309448,0.00304331
3846.04190186,0.00342085
3847.97070923,0.00343019
3849.89951660,0.00339115
3851.82832397,0.00310095
3853.75713135,0.00238003
3855.68593872,0.00283690
3857.61474609,0.00340601
3859.54355347,0.00332484
3861.47236084,0.00328695
3863.40116821,0.00311492
3865.32997559,0.00293692
3867.25878296,0.00331081
3869.18759033,0.00302122
3871.11639770,0.00279375
3873.04520508,0.00328478
3874.97401245,0.00299877
3876.90281982,0.00325780
3878.83162720,0.00332816
3880.76043457,0.00290082
3882.68924194,0.00335359
3884.61804932,0.00310222
3886.54685669,0.00284177
3888.47566406,0.00324610
3890.40447144,0.00305542
3892.33327881,0.00294192
3894.26208618,0.00324207
3896.19089355,0.00326305
3898.11970093,0.00316848
3900.04850830,0.00302855
3901.97731567,0.00291013
3903.90612305,0.00293012
3905.83493042,0.00299858
3907.76373779,0.00324045
3909.69254517,0.00318983
3911.62135254,0.00316118
3913.55015991,0.00325845
3915.47896728,0.00309975
3917.40777466,0.00305578
3919.33658203,0.00298664
3921.26538940,0.00303620
3923.19419678,0.00312133
3925.12300415,0.00312624
3927.05181152,0.00306709
3928.98061890,0.00301058
3930.90942627,0.00309050
3932.83823364,0.00299365
3934.76704102,0.00305936
3936.69584839,0.00305960
3938.62465576,0.00303737
3940.55346313,0.00310740
3942.48227051,0.00296448
3944.41107788,0.00306953
3946.33988525,0.00307074
3948.26869263,0.00297796
3950.19750000,0.00302268
3952.12630737,0.00303395
3954.05511475,0.00308918
3955.98392212,0.00304366
3957.91272949,0.00301503
3959.84153687,0.00299879
3961.77034424,0.00293835
3963.69915161,0.00295519
3965.62795898,0.00305005
3967.55676636,0.00301097
3969.48557373,0.00299443
3971.41438110,0.00308368
3973.34318848,0.00296495
3975.27199585,0.00297292
3977.20080322,0.00304176
3979.12961060,0.00296815
3981.05841797,0.00295273
3982.98722534,0.00293661
3984.91603271,0.00296532
3986.84484009,0.00301260
3988.77364746,0.00298007
3990.70245483,0.00292087
3992.63126221,0.00297332
3994.56006958,0.00300318
3996.48887695,0.00296575
3998.41768433,0.00293033
4000.34649170,0.00279904
4002.27529907,0.00284014
4004.20410645,0.00292864
4006.13291382,0.00280339
4008.06172119,0.00279071
4009.99052856,0.00288323
4011.91933594,0.00287578
4013.84814331,0.00288898
4015.77695068,0.00292943
4017.70575806,0.00285718
4019.63456543,0.00280282
4021.56337280,0.00283064
4023.49218018,0.00281748
4025.42098755,0.00276031
4027.34979492,0.00272207
4029.27860229,0.00283360
4031.20740967,0.00285136
4033.13621704,0.00273351
4035.06502441,0.00287038
4036.99383179,0.00292964
4038.92263916,0.00282065
4040.85144653,0.00278295
4042.78025391,0.00276724
4044.70906128,0.00278847
4046.63786865,0.00272387
4048.56667603,0.00278207
4050.49548340,0.00284132
4052.42429077,0.00275132
4054.35309814,0.00275452
4056.28190552,0.00275993
4058.21071289,0.00278136
4060.13952026,0.00276080
4062.06832764,0.00283382
4063.99713501,0.00285041
4065.92594238,0.00269848
4067.85474976,0.00271475
4069.78355713,0.00274010
4071.71236450,0.00275212
4073.64117187,0.00272704
4075.56997925,0.00269553
4077.49878662,0.00268895
4079.42759399,0.00273682
4081.35640137,0.00274104
4083.28520874,0.00259754
4085.21401611,0.00267057
4087.14282349,0.00264753
4089.07163086,0.00266163
4091.00043823,0.00273408
4092.92924561,0.00257928
4094.85805298,0.00268787
4096.78686035,0.00272802
4098.71566772,0.00264563
4100.64447510,0.00269056
4102.57328247,0.00269298
4104.50208984,0.00268066
4106.43089722,0.00264938
4108.35970459,0.00262254
4110.28851196,0.00258053
4112.21731934,0.00257116
4114.14612671,0.00256890
4116.07493408,0.00260192
4118.00374145,0.00263561
4119.93254883,0.00264413
4121.86135620,0.00263088
4123.79016357,0.00259067
4125.71897095,0.00263665
4127.64777832,0.00264927
4129.57658569,0.00264655
4131.50539307,0.00258862
4133.43420044,0.00258961
4135.36300781,0.00259867
4137.29181519,0.00254119
4139.22062256,0.00258552
4141.14942993,0.00247171
4143.07823730,0.00245503
4145.00704468,0.00245712
4146.93585205,0.00238484
4148.86465942,0.00248805
4150.79346680,0.00248087
4152.72227417,0.00250636
4154.65108154,0.00253898
4156.57988892,0.00250008
4158.50869629,0.00249507
4160.43750366,0.00247564
4162.36631103,0.00251586
4164.29511841,0.00257304
4166.22392578,0.00251985
4168.15273315,0.00245041
4170.08154053,0.00246843
4172.01034790,0.00237600
4173.93915527,0.00237218
4175.86796265,0.00242007
4177.79677002,0.00238807
4179.72557739,0.00249162
4181.65438477,0.00246440
4183.58319214,0.00236748
4185.51199951,0.00238943
4187.44080688,0.00242059
4189.36961426,0.00243643
4191.29842163,0.00243761
4193.22722900,0.00242153
4195.15603638,0.00249306
4197.08484375,0.00250162
4199.01365112,0.00235116
4200.94245850,0.00239708
4202.87126587,0.00236673
4204.80007324,0.00232757
4206.72888062,0.00240083
4208.65768799,0.00227809
4210.58649536,0.00228389
4212.51530273,0.00233333
4214.44411011,0.00230858
4216.37291748,0.00228683
4218.30172485,0.00228057
4220.23053223,0.00229837
4222.15933960,0.00227487
4224.08814697,0.00230095
4226.01695435,0.00227631
4227.94576172,0.00224159
4229.87456909,0.00226924
4231.80337646,0.00234793
4233.73218384,0.00230071
4235.66099121,0.00222807
4237.58979858,0.00232310
4239.51860596,0.00230688
4241.44741333,0.00233853
4243.37622070,0.00234007
4245.30502808,0.00224086
4247.23383545,0.00226553
4249.16264282,0.00229246
4251.09145020,0.00226950
4253.02025757,0.00217767
4254.94906494,0.00218309
4256.87787231,0.00222734
4258.80667969,0.00221170
4260.73548706,0.00225917
4262.66429443,0.00221597
4264.59310181,0.00217937
4266.52190918,0.00221224
4268.45071655,0.00213296
4270.37952393,0.00221946
4272.30833130,0.00229921
4274.23713867,0.00212646
4276.16594604,0.00217727
4278.09475342,0.00223188
4280.02356079,0.00218604
4281.95236816,0.00219547
4283.88117554,0.00220972
4285.80998291,0.00225461
4287.73879028,0.00210433
4289.66759766,0.00212716
4291.59640503,0.00216252
4293.52521240,0.00208821
4295.45401978,0.00218445
4297.38282715,0.00211389
4299.31163452,0.00209897
4301.24044189,0.00205587
4303.16924927,0.00200867
4305.09805664,0.00211813
4307.02686401,0.00211049
4308.95567139,0.00209534
4310.88447876,0.00206658
4312.81328613,0.00208374
4314.74209351,0.00211621
4316.67090088,0.00208666
4318.59970825,0.00206833
4320.52851562,0.00211241
4322.45732300,0.00210024
4324.38613037,0.00202584
4326.31493774,0.00203360
4328.24374512,0.00200769
4330.17255249,0.00213346
4332.10135986,0.00215302
4334.03016724,0.00201753
4335.95897461,0.00203498
4337.88778198,0.00198947
4339.81658936,0.00206787
4341.74539673,0.00212965
4343.67420410,0.00202199
4345.60301147,0.00198286
4347.53181885,0.00200399
4349.46062622,0.00201614
4351.38943359,0.00200485
4353.31824097,0.00199336
4355.24704834,0.00196797
4357.17585571,0.00200154
4359.10466309,0.00195575
4361.03347046,0.00197305
4362.96227783,0.00205698
4364.89108520,0.00196430
4366.81989258,0.00193472
4368.74869995,0.00190854
4370.67750732,0.00194150
4372.60631470,0.00204627
4374.53512207,0.00199958
4376.46392944,0.00192626
4378.39273682,0.00197318
4380.32154419,0.00203758
4382.25035156,0.00198943
4384.17915894,0.00201284
4386.10796631,0.00196178
4388.03677368,0.00185544
4389.96558105,0.00194790
4391.89438843,0.00198570
4393.82319580,0.00196317
4395.75200317,0.00193402
4397.68081055,0.00187044
4399.60961792,0.00190178
4401.53842529,0.00191124
4403.46723267,0.00185125
4405.39604004,0.00190432
4407.32484741,0.00193076
4409.25365478,0.00189097
4411.18246216,0.00188901
4413.11126953,0.00184708
4415.04007690,0.00193551
4416.96888428,0.00195678
4418.89769165,0.00186956
4420.82649902,0.00192422
4422.75530640,0.00183421
4424.68411377,0.00176893
4426.61292114,0.00186141
4428.54172852,0.00187788
4430.47053589,0.00186012
4432.39934326,0.00180508
4434.32815063,0.00178707
4436.25695801,0.00181708
4438.18576538,0.00184747
4440.11457275,0.00182530
4442.04338013,0.00179181
4443.97218750,0.00187152
4445.90099487,0.00180289
4447.82980225,0.00174688
4449.75860962,0.00185770
4451.68741699,0.00177910
4453.61622437,0.00176982
4455.54503174,0.00182304
4457.47383911,0.00169845
4459.40264648,0.00168766
4461.33145386,0.00175951
4463.26026123,0.00175597
4465.18906860,0.00174626
4467.11787598,0.00178125
4469.04668335,0.00178677
4470.97549072,0.00179760
4472.90429810,0.00179279
4474.83310547,0.00169950
4476.76191284,0.00171643
4478.69072021,0.00174691
4480.61952759,0.00171953
4482.54833496,0.00174070
4484.47714233,0.00174965
4486.40594971,0.00172548
4488.33475708,0.00166997
4490.26356445,0.00169285
4492.19237183,0.00174833
4494.12117920,0.00174151
4496.04998657,0.00171709
4497.97879395,0.00167645
4499.90760132,0.00166146
4501.83640869,0.00168900
4503.76521606,0.00168779
4505.69402344,0.00165487
4507.62283081,0.00171188
4509.55163818,0.00171004
4511.48044556,0.00163746
4513.40925293,0.00169548
4515.33806030,0.00166387
4517.26686768,0.00162878
4519.19567505,0.00171818
4521.12448242,0.00166338
4523.05328979,0.00162883
4524.98209717,0.00164508
4526.91090454,0.00162458
4528.83971191,0.00168222
4530.76851929,0.00160298
4532.69732666,0.00156947
4534.62613403,0.00161714
4536.55494141,0.00154691
4538.48374878,0.00164934
4540.41255615,0.00166690
4542.34136353,0.00154600
4544.27017090,0.00157525
4546.19897827,0.00159626
4548.12778564,0.00157022
4550.05659302,0.00155643
4551.98540039,0.00157295
4553.91420776,0.00156427
4555.84301514,0.00162373
4557.77182251,0.00164730
4559.70062988,0.00158964
4561.62943726,0.00164516
4563.55824463,0.00162821
4565.48705200,0.00160664
4567.41585937,0.00157862
4569.34466675,0.00152958
4571.27347412,0.00161164
4573.20228149,0.00157374
4575.13108887,0.00151068
4577.05989624,0.00156874
4578.98870361,0.00153356
4580.91751099,0.00153790
4582.84631836,0.00161067
4584.77512573,0.00154731
4586.70393311,0.00155458
4588.63274048,0.00155783
4590.56154785,0.00151396
4592.49035522,0.00155462
4594.41916260,0.00145296
4596.34796997,0.00150947
4598.27677734,0.00157424
4600.20558472,0.00139692
4602.13439209,0.00145998
4604.06319946,0.00154131
4605.99200684,0.00151946
4607.92081421,0.00156993
4609.84962158,0.00151897
4611.77842895,0.00143790
4613.70723633,0.00145770
4615.63604370,0.00151191
4617.56485107,0.00146139
4619.49365845,0.00140665
4621.42246582,0.00150648
4623.35127319,0.00147019
4625.28008057,0.00139250
4627.20888794,0.00148635
4629.13769531,0.00142504
4631.06650269,0.00144356
4632.99531006,0.00147137
4634.92411743,0.00133371
4636.85292480,0.00144199
4638.78173218,0.00145383
4640.71053955,0.00137853
4642.63934692,0.00147414
4644.56815430,0.00142652
4646.49696167,0.00134596
4648.42576904,0.00141651
4650.35457642,0.00142345
4652.28338379,0.00139443
4654.21219116,0.00145876
4656.14099853,0.00134827
4658.06980591,0.00128380
4659.99861328,0.00138212
4661.92742065,0.00140885
4663.85622803,0.00143867
4665.78503540,0.00136747
4667.71384277,0.00132070
4669.64265015,0.00137745
4671.57145752,0.00144377
4673.50026489,0.00139013
4675.42907227,0.00131793
4677.35787964,0.00136709
4679.28668701,0.00131728
4681.21549438,0.00135976
4683.14430176,0.00138777
4685.07310913,0.00138307
4687.00191650,0.00139492
4688.93072388,0.00132835
4690.85953125,0.00141474
4692.78833862,0.00132544
4694.71714600,0.00126691
4696.64595337,0.00140924
4698.57476074,0.00138103
4700.50356812,0.00132275
4702.43237549,0.00131841
4704.36118286,0.00134174
4706.28999023,0.00127510
4708.21879761,0.00128848
4710.14760498,0.00136761
4712.07641235,0.00132627
4714.00521973,0.00132605
4715.93402710,0.00133582
4717.86283447,0.00130446
4719.79164185,0.00117248
4721.72044922,0.00123887
4723.64925659,0.00139356
4725.57806396,0.00126342
4727.50687134,0.00124854
4729.43567871,0.00127970
4731.36448608,0.00129364
4733.29329346,0.00132657
4735.22210083,0.00123914
4737.15090820,0.00127104
4739.07971558,0.00127041
4741.00852295,0.00126833
4742.93733032,0.00130397
4744.86613770,0.00122271
4746.79494507,0.00123870
4748.72375244,0.00124580
4750.65255981,0.00124988
4752.58136719,0.00125814
4754.51017456,0.00123198
4756.43898193,0.00126502
4758.36778931,0.00124196
4760.29659668,0.00122050
4762.22540405,0.00120650
4764.15421143,0.00128124
4766.08301880,0.00127737
4768.01182617,0.00118773
4769.94063354,0.00122691
4771.86944092,0.00117004
4773.79824829,0.00122267
4775.72705566,0.00125298
4777.65586304,0.00122360
4779.58467041,0.00122661
4781.51347778,0.00114380
4783.44228516,0.00125853
4785.37109253,0.00120850
4787.29989990,0.00113840
4789.22870728,0.00120280
4791.15751465,0.00122011
4793.08632202,0.00128715
4795.01512939,0.00113767
4796.94393677,0.00114451
4798.87274414,0.00120839
4800.80155151,0.00117018
4802.73035889,0.00121272
4804.65916626,0.00113514
4806.58797363,0.00115205
4808.51678101,0.00118094
4810.44558838,0.00118763
4812.37439575,0.00114005
4814.30320312,0.00111903
4816.23201050,0.00121019
4818.16081787,0.00114978
4820.08962524,0.00114662
4822.01843262,0.00108844
4823.94723999,0.00107458
4825.87604736,0.00115467
4827.80485474,0.00107707
4829.73366211,0.00117646
4831.66246948,0.00118259
4833.59127686,0.00106386
4835.52008423,0.00116668
4837.44889160,0.00116284
4839.37769897,0.00116251
4841.30650635,0.00122341
4843.23531372,0.00109552
4845.16412109,0.00103813
4847.09292847,0.00106378
4849.02173584,0.00104989
4850.95054321,0.00106889
4852.87935059,0.00107501
4854.80815796,0.00106998
4856.73696533,0.00104275
4858.66577270,0.00105370
4860.59458008,0.00106107
4862.52338745,0.00105069
4864.45219482,0.00109261
4866.38100220,0.00108274
4868.30980957,0.00104848
4870.23861694,0.00102090
4872.16742432,0.00106764
4874.09623169,0.00107990
4876.02503906,0.00097789
4877.95384644,0.00104065
4879.88265381,0.00107044
4881.81146118,0.00097319
4883.74026855,0.00105956
4885.66907593,0.00107198
4887.59788330,0.00098714
4889.52669067,0.00104420
4891.45549805,0.00097778
4893.38430542,0.00096833
4895.31311279,0.00104670
4897.24192017,0.00098648
4899.17072754,0.00103032
4901.09953491,0.00102325
4903.02834228,0.00097068
4904.95714966,0.00099981
4906.88595703,0.00102831
4908.81476440,0.00108274
4910.74357178,0.00106232
4912.67237915,0.00100890
4914.60118652,0.00097001
4916.52999390,0.00095603
4918.45880127,0.00092667
4920.38760864,0.00101059
4922.31641602,0.00109280
4924.24522339,0.00094669
4926.17403076,0.00097831
4928.10283813,0.00102404
4930.03164551,0.00092704
4931.96045288,0.00095925
4933.88926025,0.00098662
4935.81806763,0.00099473
4937.74687500,0.00100875
4939.67568237,0.00099607
4941.60448975,0.00099684
4943.53329712,0.00099619
4945.46210449,0.00099342
4947.39091187,0.00102232
4949.31971924,0.00095350
4951.24852661,0.00093217
4953.17733398,0.00101171
4955.10614136,0.00091921
4957.03494873,0.00095800
4958.96375610,0.00100851
4960.89256348,0.00089906
4962.82137085,0.00092185
4964.75017822,0.00096527
4966.67898560,0.00102522
4968.60779297,0.00099647
4970.53660034,0.00090155
4972.46540771,0.00093975
4974.39421509,0.00096644
4976.32302246,0.00090904
4978.25182983,0.00088592
4980.18063721,0.00088158
4982.10944458,0.00083739
4984.03825195,0.00092647
4985.96705933,0.00095560
4987.89586670,0.00091438
4989.82467407,0.00100421
4991.75348145,0.00093011
4993.68228882,0.00084998
4995.61109619,0.00091733
4997.53990356,0.00092347
4999.46871094,0.00090880
5001.39751831,0.00092413
5003.32632568,0.00094674
5005.25513306,0.00090535
5007.18394043,0.00087187
5009.11274780,0.00093275
5011.04155518,0.00095801
5012.97036255,0.00090319
5014.89916992,0.00086734
5016.82797729,0.00090435
5018.75678467,0.00094833
5020.68559204,0.00093918
5022.61439941,0.00086726
5024.54320679,0.00081974
5026.47201416,0.00089338
5028.40082153,0.00084839
5030.32962891,0.00080012
5032.25843628,0.00090804
5034.18724365,0.00081871
5036.11605103,0.00085380
5038.04485840,0.00095394
5039.97366577,0.00082682
5041.90247314,0.00086861
5043.83128052,0.00086065
5045.76008789,0.00084018
5047.68889526,0.00084082
5049.61770264,0.00075639
5051.54651001,0.00080939
5053.47531738,0.00078707
5055.40412476,0.00085791
5057.33293213,0.00086924
5059.26173950,0.00079287
5061.19054687,0.00092727
5063.11935425,0.00086257
5065.04816162,0.00080191
5066.97696899,0.00081123
5068.90577637,0.00077787
5070.83458374,0.00081934
5072.76339111,0.00078386
5074.69219849,0.00083079
5076.62100586,0.00083523
5078.54981323,0.00080274
5080.47862061,0.00080054
5082.40742798,0.00074526
5084.33623535,0.00079745
5086.26504272,0.00075208
5088.19385010,0.00076059
5090.12265747,0.00084877
5092.05146484,0.00075792
5093.98027222,0.00078266
5095.90907959,0.00081960
5097.83788696,0.00077733
5099.76669434,0.00083272
5101.69550171,0.00078213
5103.62430908,0.00071726
5105.55311645,0.00077346
5107.48192383,0.00077653
5109.41073120,0.00082945
5111.33953857,0.00079966
5113.26834595,0.00066161
5115.19715332,0.00071074
5117.12596069,0.00074905
5119.05476807,0.00076709
5120.98357544,0.00076580
5122.91238281,0.00073155
5124.84119019,0.00078014
5126.76999756,0.00079304
5128.69880493,0.00080361
5130.62761230,0.00071637
5132.55641968,0.00072468
5134.48522705,0.00075265
5136.41403442,0.00065808
5138.34284180,0.00075598
5140.27164917,0.00077739
5142.20045654,0.00078164
5144.12926392,0.00076874
5146.05807129,0.00073461
5147.98687866,0.00078140
5149.91568603,0.00067484
5151.84449341,0.00075080
5153.77330078,0.00081129
5155.70210815,0.00070521
5157.63091553,0.00073901
5159.55972290,0.00076335
5161.48853027,0.00071778
5163.41733765,0.00068171
5165.34614502,0.00069283
5167.27495239,0.00070912
5169.20375977,0.00074158
5171.13256714,0.00063982
5173.06137451,0.00066510
5174.99018188,0.00078876
5176.91898926,0.00067108
5178.84779663,0.00072366
5180.77660400,0.00075296
5182.70541138,0.00072679
5184.63421875,0.00071523
5186.56302612,0.00064012
5188.49183350,0.00071717
5190.42064087,0.00067354
5192.34944824,0.00070654
5194.27825562,0.00074936
5196.20706299,0.00064780
5198.13587036,0.00069803
5200.06467773,0.00070374
5201.99348511,0.00064607
5203.92229248,0.00065595
5205.85109985,0.00069475
5207.77990723,0.00066321
5209.70871460,0.00063342
5211.63752197,0.00066604
5213.56632935,0.00066858
5215.49513672,0.00063606
5217.42394409,0.00067574
5219.35275146,0.00071542
5221.28155884,0.00060931
5223.21036621,0.00064758
5225.13917358,0.00067800
5227.06798096,0.00060608
5228.99678833,0.00066186
5230.92559570,0.00068309
5232.85440308,0.00065809
5234.78321045,0.00062844
5236.71201782,0.00066024
5238.64082520,0.00065849
5240.56963257,0.00063809
5242.49843994,0.00065443
5244.42724731,0.00067463
5246.35605469,0.00073269
5248.28486206,0.00065568
5250.21366943,0.00065166
5252.14247681,0.00065558
5254.07128418,0.00061974
5256.00009155,0.00071684
5257.92889893,0.00067781
5259.85770630,0.00060711
5261.78651367,0.00060989
5263.71532104,0.00063135
5265.64412842,0.00064023
5267.57293579,0.00060322
5269.50174316,0.00063722
5271.43055054,0.00067191
5273.35935791,0.00058862
5275.28816528,0.00058999
5277.21697266,0.00068572
5279.14578003,0.00062221
5281.07458740,0.00062951
5283.00339478,0.00069602
5284.93220215,0.00059750
5286.86100952,0.00049461
5288.78981689,0.00055759
5290.71862427,0.00065811
5292.64743164,0.00062161
5294.57623901,0.00063368
5296.50504639,0.00060122
5298.43385376,0.00057334
5300.36266113,0.00058634
5302.29146851,0.00054767
5304.22027588,0.00057482
5306.14908325,0.00055480
5308.07789062,0.00064081
5310.00669800,0.00062712
5311.93550537,0.00053936
5313.86431274,0.00059545
5315.79312012,0.00055706
5317.72192749,0.00056483
5319.65073486,0.00056670
5321.57954224,0.00058986
5323.50834961,0.00062005
5325.43715698,0.00058847
5327.36596436,0.00052834
5329.29477173,0.00050228
5331.22357910,0.00054139
5333.15238647,0.00045541
5335.08119385,0.00053663
5337.01000122,0.00053671
5338.93880859,0.00045491
5340.86761597,0.00056475
5342.79642334,0.00052407
5344.72523071,0.00053473
5346.65403809,0.00051112
5348.58284546,0.00048934
5350.51165283,0.00052421
5352.44046020,0.00048403
5354.36926758,0.00050991
5356.29807495,0.00049746
5358.22688232,0.00054467
5360.15568970,0.00055956
5362.08449707,0.00054907
5364.01330444,0.00054976
5365.94211182,0.00053032
5367.87091919,0.00055096
5369.79972656,0.00050350
5371.72853394,0.00053632
5373.65734131,0.00053740
5375.58614868,0.00054256
5377.51495605,0.00055773
5379.44376343,0.00049159
5381.37257080,0.00049231
5383.30137817,0.00047529
5385.23018555,0.00056764
5387.15899292,0.00055692
5389.08780029,0.00049308
5391.01660767,0.00058569
5392.94541504,0.00050813
5394.87422241,0.00047522
5396.80302978,0.00050996
5398.73183716,0.00049541
5400.66064453,0.00051413
5402.58945190,0.00047837
5404.51825928,0.00050760
5406.44706665,0.00054530
5408.37587402,0.00052698
5410.30468140,0.00051856
5412.23348877,0.00049219
5414.16229614,0.00050689
5416.09110352,0.00050245
5418.01991089,0.00046081
5419.94871826,0.00050820
5421.87752563,0.00054993
5423.80633301,0.00050334
5425.73514038,0.00051580
5427.66394775,0.00045290
5429.59275513,0.00034846
5431.52156250,0.00048906
5433.45036987,0.00050708
5435.37917725,0.00046135
5437.30798462,0.00054287
5439.23679199,0.00042522
5441.16559936,0.00039460
5443.09440674,0.00045169
5445.02321411,0.00043251
5446.95202148,0.00040059
5448.88082886,0.00036586
5450.80963623,0.00049361
5452.73844360,0.00052056
5454.66725098,0.00048101
5456.59605835,0.00048116
5458.52486572,0.00043574
5460.45367310,0.00046921
5462.38248047,0.00050545
5464.31128784,0.00053991
5466.24009521,0.00044269
5468.16890259,0.00040715
5470.09770996,0.00050003
5472.02651733,0.00042723
5473.95532471,0.00042218
5475.88413208,0.00045769
5477.81293945,0.00043053
5479.74174683,0.00044466
5481.67055420,0.00049729
5483.59936157,0.00048676
5485.52816895,0.00044108
5487.45697632,0.00047151
5489.38578369,0.00044313
5491.31459106,0.00043824
5493.24339844,0.00044789
5495.17220581,0.00040605
5497.10101318,0.00041953
5499.02982056,0.00046557
5500.95862793,0.00043431
5502.88743530,0.00040661
5504.81624268,0.00052755
5506.74505005,0.00046681
5508.67385742,0.00034620
5510.60266479,0.00038827
5512.53147217,0.00036740
5514.46027954,0.00039983
5516.38908691,0.00045715
5518.31789429,0.00044366
5520.24670166,0.00043366
5522.17550903,0.00044753
5524.10431641,0.00041835
5526.03312378,0.00043976
5527.96193115,0.00044380
5529.89073853,0.00032973
5531.81954590,0.00041628
5533.74835327,0.00043571
5535.67716064,0.00037862
5537.60596802,0.00046058
5539.53477539,0.00044327
5541.46358276,0.00046880
5543.39239014,0.00044926
5545.32119751,0.00039130
5547.25000488,0.00039961
5549.17881226,0.00039832
5551.10761963,0.00041162
5553.03642700,0.00039005
5554.96523437,0.00044480
5556.89404175,0.00040169
5558.82284912,0.00034250
5560.75165649,0.00047097
5562.68046387,0.00045773
5564.60927124,0.00039685
5566.53807861,0.00041707
5568.46688599,0.00041013
5570.39569336,0.00040032
5572.32450073,0.00036404
5574.25330811,0.00035883
5576.18211548,0.00040468
5578.11092285,0.00041498
5580.03973022,0.00038776
5581.96853760,0.00039842
5583.89734497,0.00042499
5585.82615234,0.00042099
5587.75495972,0.00043909
5589.68376709,0.00040819
5591.61257446,0.00036283
5593.54138184,0.00039293
5595.47018921,0.00036316
5597.39899658,0.00034524
5599.32780395,0.00041223
5601.25661133,0.00043770
5603.18541870,0.00037680
5605.11422607,0.00035361
5607.04303345,0.00040336
5608.97184082,0.00036904
5610.90064819,0.00036317
5612.82945557,0.00035966
5614.75826294,0.00038191
5616.68707031,0.00043735
5618.61587769,0.00033335
5620.54468506,0.00038074
5622.47349243,0.00042314
5624.40229980,0.00038741
5626.33110718,0.00041373
5628.25991455,0.00031721
5630.18872192,0.00033870
5632.11752930,0.00035457
5634.04633667,0.00037336
5635.97514404,0.00035320
5637.90395142,0.00026484
5639.83275879,0.00036169
5641.76156616,0.00031561
5643.69037353,0.00031374
5645.61918091,0.00036146
5647.54798828,0.00034929
5649.47679565,0.00036997
5651.40560303,0.00029056
5653.33441040,0.00034595
5655.26321777,0.00030088
5657.19202515,0.00025544
5659.12083252,0.00033143
5661.04963989,0.00025344
5662.97844727,0.00029083
5664.90725464,0.00035651
5666.83606201,0.00031452
5668.76486938,0.00029253
5670.69367676,0.00032321
5672.62248413,0.00035301
5674.55129150,0.00037087
5676.48009888,0.00033448
5678.40890625,0.00027592
5680.33771362,0.00031738
5682.26652100,0.00027675
5684.19532837,0.00025648
5686.12413574,0.00026937
5688.05294311,0.00029167
5689.98175049,0.00042241
5691.91055786,0.00041882
5693.83936523,0.00034166
5695.76817261,0.00030507
5697.69697998,0.00032639
5699.62578735,0.00035078
5701.55459473,0.00032849
5703.48340210,0.00031016
5705.41220947,0.00033151
5707.34101685,0.00039226
5709.26982422,0.00032780
5711.19863159,0.00031905
5713.12743896,0.00033529
5715.05624634,0.00027928
5716.98505371,0.00031478
5718.91386108,0.00031585
5720.84266846,0.00033195
5722.77147583,0.00030714
5724.70028320,0.00025766
5726.62909058,0.00035428
5728.55789795,0.00037177
5730.48670532,0.00030246
5732.41551270,0.00035651
5734.34432007,0.00033210
5736.27312744,0.00027833
5738.20193481,0.00033336
5740.13074219,0.00023762
5742.05954956,0.00026116
5743.98835693,0.00030952
5745.91716431,0.00025707
5747.84597168,0.00035927
5749.77477905,0.00031845
5751.70358643,0.00026291
5753.63239380,0.00023711
5755.56120117,0.00026009
5757.49000854,0.00035289
5759.41881592,0.00031182
5761.34762329,0.00031877
5763.27643066,0.00030580
5765.20523804,0.00030317
5767.13404541,0.00023760
5769.06285278,0.00021539
5770.99166016,0.00027263
5772.92046753,0.00019636
5774.84927490,0.00027096
5776.77808228,0.00026700
5778.70688965,0.00026146
5780.63569702,0.00029828
5782.56450439,0.00025287
5784.49331177,0.00030985
5786.42211914,0.00021619
5788.35092651,0.00027139
5790.27973389,0.00034603
5792.20854126,0.00025316
5794.13734863,0.00028700
5796.06615601,0.00027254
5797.99496338,0.00026846
5799.92377075,0.00025667
5801.85257812,0.00031134
5803.78138550,0.00035065
5805.71019287,0.00026085
5807.63900024,0.00023688
5809.56780762,0.00026704
5811.49661499,0.00033732
5813.42542236,0.00025446
5815.35422974,0.00019323
5817.28303711,0.00020972
5819.21184448,0.00018762
5821.14065186,0.00024378
5823.06945923,0.00019278
5824.99826660,0.00023160
5826.92707397,0.00028818
5828.85588135,0.00022780
5830.78468872,0.00027516
5832.71349609,0.00025557
5834.64230347,0.00023091
5836.57111084,0.00026341
5838.49991821,0.00026984
5840.42872559,0.00026375
5842.35753296,0.00023316
5844.28634033,0.00024545
5846.21514770,0.00030205
5848.14395508,0.00029710
5850.07276245,0.00022529
5852.00156982,0.00026918
5853.93037720,0.00031835
5855.85918457,0.00027533
5857.78799194,0.00023890
5859.71679932,0.00024150
5861.64560669,0.00030656
5863.57441406,0.00025990
5865.50322144,0.00023550
5867.43202881,0.00027296
5869.36083618,0.00024282
5871.28964355,0.00025987
5873.21845093,0.00024972
5875.14725830,0.00027822
5877.07606567,0.00022013
5879.00487305,0.00013038
5880.93368042,0.00024683
5882.86248779,0.00025284
5884.79129517,0.00022565
5886.72010254,0.00024592
5888.64890991,0.00021985
5890.57771728,0.00025120
5892.50652466,0.00021623
5894.43533203,0.00020283
5896.36413940,0.00022357
5898.29294678,0.00019757
5900.22175415,0.00025539
5902.15056152,0.00023992
5904.07936890,0.00019424
5906.00817627,0.00023808
5907.93698364,0.00018241
5909.86579102,0.00017881
5911.79459839,0.00022288
5913.72340576,0.00019661
5915.65221313,0.00023357
5917.58102051,0.00022627
5919.50982788,0.00021709
5921.43863525,0.00022753
5923.36744263,0.00019545
5925.29625000,0.00019103
5927.22505737,0.00019695
5929.15386475,0.00024027
5931.08267212,0.00020079
5933.01147949,0.00018705
5934.94028686,0.00025670
5936.86909424,0.00021810
5938.79790161,0.00028369
5940.72670898,0.00030141
5942.65551636,0.00017915
5944.58432373,0.00025155
5946.51313110,0.00027681
5948.44193848,0.00022310
5950.37074585,0.00024972
5952.29955322,0.00021822
5954.22836060,0.00023000
5956.15716797,0.00023819
5958.08597534,0.00025386
5960.01478271,0.00026512
5961.94359009,0.00017550
5963.87239746,0.00018502
5965.80120483,0.00020553
5967.73001221,0.00019954
5969.65881958,0.00018494
5971.58762695,0.00017981
5973.51643433,0.00019301
5975.44524170,0.00017620
5977.37404907,0.00025927
5979.30285645,0.00017604
5981.23166382,0.00015435
5983.16047119,0.00022384
5985.08927856,0.00014510
5987.01808594,0.00028268
5988.94689331,0.00022481
5990.87570068,0.00015738
5992.80450806,0.00028937
5994.73331543,0.00019907
5996.66212280,0.00020007
5998.59093018,0.00020894
6000.51973755,0.00020492
