399.26312622,0.00046156
401.19193359,0.00014119
403.12074097,0.00051180
405.04954834,0.00048373
406.97835571,0.00064351
408.90716309,0.00052399
410.83597046,0.00008061
412.76477783,0.00057606
414.69358521,0.00085295
416.62239258,0.00063579
418.55119995,0.00058402
420.48000732,0.00041583
422.40881470,0.00058248
424.33762207,0.00064354
426.26642944,0.00013737
428.19523682,0.00052358
430.12404419,0.00083197
432.05285156,0.00056312
433.98165894,0.00098297
435.91046631,0.00086590
437.83927368,0.00064768
439.76808105,0.00071910
441.69688843,0.00057552
443.62569580,0.00074544
445.55450317,0.00055268
447.48331055,0.00038395
449.41211792,0.00049264
451.34092529,0.00043419
453.26973267,0.00051327
455.19854004,0.00044344
457.12734741,0.00009797
459.05615479,0.00011398
460.98496216,0.00020372
462.91376953,0.00021323
464.84257690,0.00022431
466.77138428,-0.00006974
468.70019165,0.00025303
470.62899902,0.00049203
472.55780640,0.00047397
474.48661377,0.00076429
476.41542114,0.00048391
478.34422852,0.00045385
480.27303589,0.00035691
482.20184326,0.00003179
484.13065063,0.00021147
486.05945801,0.00000138
487.98826538,-0.00002187
489.91707275,0.00021306
491.84588013,-0.00029062
493.77468750,-0.00013805
495.70349487,0.00038818
497.63230225,-0.00001128
499.56110962,0.00018583
501.48991699,0.00023286
503.41872437,0.00021512
505.34753174,0.00072914
507.27633911,-0.00002299
509.20514648,-0.00004265
511.13395386,0.00042803
513.06276123,0.00007899
514.99156860,0.00019296
516.92037598,0.00011653
518.84918335,0.00013913
520.77799072,0.00015128
522.70679810,-0.00004444
524.63560547,-0.00021201
526.56441284,0.00001717
528.49322021,0.00027653
530.42202759,0.00014534
532.35083496,0.00031455
534.27964233,0.00015557
536.20844971,0.00013937
538.13725708,0.00018383
540.06606445,0.00009022
541.99487183,0.00069609
543.92367920,0.00019642
545.85248657,-0.00036364
547.78129395,-0.00016428
549.71010132,-0.00018767
551.63890869,0.00023014
553.56771606,0.00026667
555.49652344,-0.00005294
557.42533081,-0.00016482
559.35413818,-0.00006593
561.28294556,0.00019963
563.21175293,0.00014629
565.14056030,0.00008931
567.06936768,0.00000436
568.99817505,-0.00018507
570.92698242,0.00037594
572.85578979,0.00042355
574.78459717,-0.00018808
576.71340454,0.00019695
578.64221191,0.00047256
580.57101929,0.00016412
582.49982666,-0.00002877
584.42863403,0.00009239
586.35744141,-0.00005234
588.28624878,-0.00023815
590.21505615,0.00006080
592.14386353,0.00010514
594.07267090,0.00014988
596.00147827,0.00045119
597.93028564,0.00031519
599.85909302,-0.00002381
601.78790039,-0.00011605
603.71670776,-0.00014039
605.64551514,-0.00011442
607.57432251,0.00013833
609.50312988,0.00011915
611.43193726,-0.00004169
613.36074463,0.00028871
615.28955200,-0.00017460
617.21835938,0.00003090
619.14716675,0.00033568
621.07597412,-0.00005450
623.00478149,-0.00016379
624.93358887,-0.00023474
626.86239624,0.00015080
628.79120361,-0.00005188
630.72001099,-0.00011849
632.64881836,0.00027403
634.57762573,0.00036777
636.50643311,0.00042884
638.43524048,0.00072360
640.36404785,0.00075038
642.29285522,0.00054426
644.22166260,0.00066745
646.15046997,0.00072490
648.07927734,0.00088904
650.00808472,0.00062512
651.93689209,0.00050589
653.86569946,0.00084265
655.79450684,0.00080637
657.72331421,0.00095152
659.65212158,0.00084205
661.58092896,0.00094154
663.50973633,0.00121959
665.43854370,0.00111775
667.36735107,0.00083681
669.29615845,0.00088885
671.22496582,0.00142908
673.15377319,0.00115378
675.08258057,0.00120897
677.01138794,0.00146722
678.94019531,0.00135608
680.86900269,0.00152092
682.79781006,0.00122588
684.72661743,0.00132987
686.65542480,0.00125647
688.58423218,0.00105747
690.51303955,0.00150399
692.44184692,0.00138337
694.37065430,0.00139534
696.29946167,0.00191906
698.22826904,0.00198558
700.15707642,0.00187906
702.08588379,0.00207972
704.01469116,0.00205273
705.94349854,0.00171809
707.87230591,0.00131676
709.80111328,0.00116135
711.72992065,0.00094329
713.65872803,0.00027474
715.58753540,0.00033761
717.51634277,0.00049633
719.44515015,0.00013799
721.37395752,0.00015204
723.30276489,0.00024302
725.23157227,0.00006817
727.16037964,-0.00003785
729.08918701,0.00024770
731.01799438,0.00017683
732.94680176,-0.00006737
734.87560913,0.00019827
736.80441650,0.00018735
738.73322388,-0.00005083
740.66203125,0.00012872
742.59083862,0.00032188
744.51964600,0.00036103
746.44845337,0.00006391
748.37726074,-0.00012759
750.30606812,0.00015937
752.23487549,0.00001376
754.16368286,0.00001760
756.09249023,0.00005461
758.02129761,-0.00003604
759.95010498,0.00038004
761.87891235,0.00027502
763.80771973,0.00016735
765.73652710,0.00031449
767.66533447,0.00025374
769.59414185,0.00015260
771.52294922,-0.00000778
773.45175659,0.00014755
775.38056396,0.00013692
777.30937134,0.00030914
779.23817871,0.00047069
781.16698608,0.00012681
783.09579346,0.00023893
785.02460083,0.00036029
786.95340820,0.00018761
788.88221558,0.00022083
790.81102295,0.00026420
792.73983032,0.00017778
794.66863770,0.00008982
796.59744507,0.00018999
798.52625244,0.00068829
800.45505981,0.00071438
802.38386719,0.00029758
804.31267456,0.00039817
806.24148193,0.00029497
808.17028931,-0.00009325
810.09909668,-0.00006595
812.02790405,0.00041451
813.95671143,0.00042520
815.88551880,-0.00008021
817.81432617,0.00007758
819.74313354,0.00039090
821.67194092,0.00017154
823.60074829,0.00004353
825.52955566,0.00041115
827.45836304,0.00031212
829.38717041,0.00009236
831.31597778,0.00044950
833.24478516,0.00058406
835.17359253,0.00082581
837.10239990,0.00067405
839.03120728,0.00026690
840.96001465,0.00044357
842.88882202,0.00032404
844.81762939,0.00031222
846.74643677,0.00038770
848.67524414,0.00022556
850.60405151,0.00048118
852.53285889,0.00037178
854.46166626,0.00022783
856.39047363,0.00064522
858.31928101,0.00055435
860.24808838,0.00039642
862.17689575,0.00046858
864.10570313,0.00037391
866.03451050,0.00012213
867.96331787,-0.00002511
869.89212524,0.00042704
871.82093262,0.00052418
873.74973999,0.00039530
875.67854736,0.00039632
877.60735474,0.00019417
879.53616211,0.00046883
881.46496948,0.00035549
883.39377686,0.00008356
885.32258423,0.00032322
887.25139160,0.00008981
889.18019897,0.00002586
891.10900635,0.00030130
893.03781372,0.00016803
894.96662109,0.00004602
896.89542847,0.00024295
898.82423584,0.00043705
900.75304321,0.00028131
902.68185059,0.00022326
904.61065796,0.00039994
906.53946533,0.00016221
908.46827271,0.00011400
910.39708008,0.00028526
912.32588745,0.00029817
914.25469482,0.00047103
916.18350220,0.00021245
918.11230957,0.00023885
920.04111694,0.00065955
921.96992432,0.00053564
923.89873169,0.00038684
925.82753906,0.00043896
927.75634644,0.00055344
929.68515381,0.00059111
931.61396118,0.00102032
933.54276855,0.00084444
935.47157593,0.00035087
937.40038330,0.00086991
939.32919067,0.00084047
941.25799805,0.00086663
943.18680542,0.00091079
945.11561279,0.00074222
947.04442017,0.00109866
948.97322754,0.00081811
950.90203491,0.00056167
952.83084229,0.00069820
954.75964966,0.00091083
956.68845703,0.00087372
958.61726440,0.00064444
960.54607178,0.00085450
962.47487915,0.00089478
964.40368652,0.00069802
966.33249390,0.00081431
968.26130127,0.00111877
970.19010864,0.00084667
972.11891602,0.00082260
974.04772339,0.00113391
975.97653076,0.00110125
977.90533813,0.00123507
979.83414551,0.00120118
981.76295288,0.00134058
983.69176025,0.00153228
985.62056763,0.00169476
987.54937500,0.00193446
989.47818237,0.00212714
991.40698975,0.00229158
993.33579712,0.00237389
995.26460449,0.00278873
997.19341187,0.00278441
999.12221924,0.00315639
1001.05102661,0.00346382
1002.97983398,0.00333691
1004.90864136,0.00385896
1006.83744873,0.00377803
1008.76625610,0.00419067
1010.69506348,0.00465479
1012.62387085,0.00468738
1014.55267822,0.00529337
1016.48148560,0.00525781
1018.41029297,0.00532969
1020.33910034,0.00577975
1022.26790771,0.00611227
1024.19671509,0.00614565
1026.12552246,0.00616737
1028.05432983,0.00659103
1029.98313721,0.00680388
1031.91194458,0.00703742
1033.84075195,0.00708908
1035.76955933,0.00711750
1037.69836670,0.00727003
1039.62717407,0.00732335
1041.55598145,0.00742696
1043.48478882,0.00730415
1045.41359619,0.00724683
1047.34240356,0.00724079
1049.27121094,0.00722787
1051.20001831,0.00702531
1053.12882568,0.00663106
1055.05763306,0.00678275
1056.98644043,0.00669999
1058.91524780,0.00632756
1060.84405518,0.00646793
1062.77286255,0.00620407
1064.70166992,0.00583380
1066.63047729,0.00584011
1068.55928467,0.00563047
1070.48809204,0.00527004
1072.41689941,0.00468128
1074.34570679,0.00451919
1076.27451416,0.00463664
1078.20332153,0.00441150
1080.13212891,0.00421492
1082.06093628,0.00391551
1083.98974365,0.00367231
1085.91855103,0.00350937
1087.84735840,0.00338407
1089.77616577,0.00313322
1091.70497314,0.00307959
1093.63378052,0.00325695
1095.56258789,0.00288005
1097.49139526,0.00283895
1099.42020264,0.00293583
1101.34901001,0.00264426
1103.27781738,0.00275410
1105.20662476,0.00282087
1107.13543213,0.00263349
1109.06423950,0.00266409
1110.99304687,0.00265933
1112.92185425,0.00251864
1114.85066162,0.00258249
1116.77946899,0.00263190
1118.70827637,0.00251697
1120.63708374,0.00253542
1122.56589111,0.00280356
1124.49469849,0.00270282
1126.42350586,0.00241644
1128.35231323,0.00277382
1130.28112061,0.00290364
1132.20992798,0.00263449
1134.13873535,0.00283132
1136.06754272,0.00324468
1137.99635010,0.00328164
1139.92515747,0.00333584
1141.85396484,0.00352694
1143.78277222,0.00369310
1145.71157959,0.00421243
1147.64038696,0.00430096
1149.56919434,0.00442947
1151.49800171,0.00486057
1153.42680908,0.00489897
1155.35561646,0.00513636
1157.28442383,0.00529811
1159.21323120,0.00562160
1161.14203857,0.00595293
1163.07084595,0.00601239
1164.99965332,0.00614961
1166.92846069,0.00643222
1168.85726807,0.00683460
1170.78607544,0.00677745
1172.71488281,0.00705719
1174.64369019,0.00751556
1176.57249756,0.00777131
1178.50130493,0.00802565
1180.43011230,0.00812175
1182.35891968,0.00868664
1184.28772705,0.00911251
1186.21653442,0.00944702
1188.14534180,0.00982103
1190.07414917,0.01017085
1192.00295654,0.01073919
1193.93176392,0.01120559
1195.86057129,0.01174964
1197.78937866,0.01218430
1199.71818604,0.01284247
1201.64699341,0.01349318
1203.57580078,0.01406623
1205.50460815,0.01465636
1207.43341553,0.01492494
1209.36222290,0.01543345
1211.29103027,0.01595111
1213.21983765,0.01645920
1215.14864502,0.01683686
1217.07745239,0.01727522
1219.00625977,0.01763147
1220.93506714,0.01773649
1222.86387451,0.01819484
1224.79268188,0.01812108
1226.72148926,0.01830673
1228.65029663,0.01869299
1230.57910400,0.01843907
1232.50791138,0.01869743
1234.43671875,0.01884056
1236.36552612,0.01866620
1238.29433350,0.01856230
1240.22314087,0.01841885
1242.15194824,0.01854882
1244.08075562,0.01855476
1246.00956299,0.01849637
1247.93837036,0.01843098
1249.86717773,0.01804703
1251.79598511,0.01801031
1253.72479248,0.01799247
1255.65359985,0.01759616
1257.58240723,0.01745135
1259.51121460,0.01710706
1261.44002197,0.01692088
1263.36882935,0.01685350
1265.29763672,0.01652022
1267.22644409,0.01654292
1269.15525146,0.01617071
1271.08405884,0.01574044
1273.01286621,0.01561254
1274.94167358,0.01525428
1276.87048096,0.01512009
1278.79928833,0.01490829
1280.72809570,0.01450687
1282.65690308,0.01427393
1284.58571045,0.01401927
1286.51451782,0.01369894
1288.44332520,0.01355362
1290.37213257,0.01334113
1292.30093994,0.01312427
1294.22974731,0.01321904
1296.15855469,0.01308525
1298.08736206,0.01293232
1300.01616943,0.01316156
1301.94497681,0.01332153
1303.87378418,0.01333794
1305.80259155,0.01349667
1307.73139893,0.01373180
1309.66020630,0.01391606
1311.58901367,0.01406316
1313.51782104,0.01428906
1315.44662842,0.01470452
1317.37543579,0.01497972
1319.30424316,0.01547962
1321.23305054,0.01610085
1323.16185791,0.01643372
1325.09066528,0.01704030
1327.01947266,0.01733780
1328.94828003,0.01758444
1330.87708740,0.01825133
1332.80589478,0.01860683
1334.73470215,0.01903232
1336.66350952,0.01932826
1338.59231689,0.01913897
1340.52112427,0.01927203
1342.44993164,0.02002672
1344.37873901,0.02054181
1346.30754639,0.02043896
1348.23635376,0.02034471
1350.16516113,0.02018384
1352.09396851,0.01984293
1354.02277588,0.01965191
1355.95158325,0.01958964
1357.88039062,0.01947281
1359.80919800,0.01935541
1361.73800537,0.01870046
1363.66681274,0.01830599
1365.59562012,0.01902796
1367.52442749,0.01867247
1369.45323486,0.01844710
1371.38204224,0.01871295
1373.31084961,0.01781976
1375.23965698,0.01809518
1377.16846436,0.01840661
1379.09727173,0.01823579
1381.02607910,0.01846069
1382.95488647,0.01829701
1384.88369385,0.01839232
1386.81250122,0.01762146
1388.74130859,0.01766555
1390.67011597,0.01932884
1392.59892334,0.01893354
1394.52773071,0.01771985
1396.45653809,0.01848054
1398.38534546,0.01847514
1400.31415283,0.01849952
1402.24296021,0.01996480
1404.17176758,0.01896080
1406.10057495,0.01894053
1408.02938232,0.01976401
1409.95818970,0.01917968
1411.88699707,0.01956076
1413.81580444,0.01889219
1415.74461182,0.01911996
1417.67341919,0.01730673
1419.60222656,0.01541415
1421.53103394,0.01775021
1423.45984131,0.01730441
1425.38864868,0.01684888
1427.31745605,0.01695008
1429.24626343,0.01559338
1431.17507080,0.01539507
1433.10387817,0.01542481
1435.03268555,0.01424796
1436.96149292,0.01234085
1438.89030029,0.01373302
1440.81910767,0.01421423
1442.74791504,0.01319529
1444.67672241,0.01384275
1446.60552979,0.01278247
1448.53433716,0.01286223
1450.46314453,0.01326350
1452.39195190,0.01354335
1454.32075928,0.01419517
1456.24956665,0.01188305
1458.17837402,0.01225776
1460.10718140,0.01604112
1462.03598877,0.01720328
1463.96479614,0.01716778
1465.89360352,0.01778259
1467.82241089,0.02010225
1469.75121826,0.02172056
1471.68002563,0.01960373
1473.60883301,0.02036195
1475.53764038,0.02322971
1477.46644775,0.02509053
1479.39525513,0.02736079
1481.32406250,0.02781842
1483.25286987,0.02961582
1485.18167725,0.03045413
1487.11048462,0.02984146
1489.03929199,0.02997080
1490.96809937,0.03019885
1492.89690674,0.03483343
1494.82571411,0.03428904
1496.75452148,0.03086137
1498.68332886,0.03473548
1500.61213623,0.03583877
1502.54094360,0.03828641
1504.46975098,0.03666707
1506.39855835,0.02693611
1508.32736572,0.03224839
1510.25617310,0.03807315
1512.18498047,0.03683113
1514.11378784,0.03987725
1516.04259521,0.03608774
1517.97140259,0.03742067
1519.90020996,0.03649534
1521.82901733,0.03159277
1523.75782471,0.03846037
1525.68663208,0.03794680
1527.61543945,0.03767139
1529.54424683,0.04163671
1531.47305420,0.04022278
1533.40186157,0.03709722
1535.33066895,0.03887895
1537.25947632,0.04195342
1539.18828369,0.03061291
1541.11709106,0.03129761
1543.04589844,0.03762833
1544.97470581,0.03622840
1546.90351318,0.04277264
1548.83232056,0.03989962
1550.76112793,0.04082554
1552.68993530,0.04097716
1554.61874268,0.03730743
1556.54755005,0.04004516
1558.47635742,0.02878215
1560.40516479,0.03051982
1562.33397217,0.04306813
1564.26277954,0.04096452
1566.19158691,0.04190988
1568.12039429,0.04168671
1570.04920166,0.03719582
1571.97800903,0.04242610
1573.90681641,0.04327200
1575.83562378,0.03453425
1577.76443115,0.03867231
1579.69323853,0.04421410
1581.62204590,0.04217326
1583.55085327,0.04276124
1585.47966064,0.04245295
1587.40846802,0.04277522
1589.33727539,0.04238495
1591.26608276,0.04255220
1593.19489014,0.04249785
1595.12369751,0.04205957
1597.05250488,0.04270299
1598.98131226,0.04232256
1600.91011963,0.04266470
1602.83892700,0.04185384
1604.76773437,0.04274386
1606.69654175,0.04218591
1608.62534912,0.04194348
1610.55415649,0.04211753
1612.48296387,0.04219881
1614.41177124,0.04308136
1616.34057861,0.03561480
1618.26938599,0.03799882
1620.19819336,0.04432826
1622.12700073,0.03964869
1624.05580811,0.03981239
1625.98461548,0.04162832
1627.91342285,0.04143007
1629.84223022,0.04128648
1631.77103760,0.04390638
1633.69984497,0.04086193
1635.62865234,0.03393161
1637.55745972,0.03906205
1639.48626709,0.04301117
1641.41507446,0.04190845
1643.34388184,0.04309307
1645.27268921,0.03933700
1647.20149658,0.03451639
1649.13030396,0.04246307
1651.05911133,0.04096078
1652.98791870,0.02666777
1654.91672607,0.03525386
1656.84553345,0.04431261
1658.77434082,0.04241088
1660.70314819,0.04382052
1662.63195557,0.03984924
1664.56076294,0.04178372
1666.48957031,0.04513782
1668.41837769,0.03960656
1670.34718506,0.03839752
1672.27599243,0.04334950
1674.20479980,0.04037527
1676.13360718,0.03850064
1678.06241455,0.04407051
1679.99122192,0.04272897
1681.92002930,0.04236501
1683.84883667,0.03487647
1685.77764404,0.03382902
1687.70645142,0.04641575
1689.63525879,0.04078058
1691.56406616,0.04418193
1693.49287354,0.04570458
1695.42168091,0.03354894
1697.35048828,0.04096565
1699.27929565,0.03678612
1701.20810303,0.03272224
1703.13691040,0.04414539
1705.06571777,0.04075583
1706.99452515,0.04085326
1708.92333252,0.04445916
1710.85213989,0.04274382
1712.78094727,0.04363187
1714.70975464,0.04070446
1716.63856201,0.03667121
1718.56736938,0.03612085
1720.49617676,0.04236673
1722.42498413,0.04409610
1724.35379150,0.04095084
1726.28259888,0.04437422
1728.21140625,0.04129081
1730.14021362,0.04150354
1732.06902100,0.04087990
1733.99782837,0.03121162
1735.92663574,0.03809271
1737.85544312,0.04269753
1739.78425049,0.03808214
1741.71305786,0.04125360
1743.64186523,0.04169784
1745.57067261,0.04172289
1747.49947998,0.04238043
1749.42828735,0.04048716
1751.35709473,0.03869806
1753.28590210,0.04265601
1755.21470947,0.04488378
1757.14351685,0.04097755
1759.07232422,0.04482829
1761.00113159,0.04260068
1762.92993896,0.04086281
1764.85874634,0.04671264
1766.78755371,0.04221599
1768.71636108,0.04244471
1770.64516846,0.04259549
1772.57397583,0.03820392
1774.50278320,0.04230792
1776.43159058,0.04483104
1778.36039795,0.04432817
1780.28920532,0.04394011
1782.21801270,0.04410197
1784.14682007,0.04388252
1786.07562744,0.04329990
1788.00443481,0.04556975
1789.93324219,0.04431435
1791.86204956,0.04025102
1793.79085693,0.04196329
1795.71966431,0.04493377
1797.64847168,0.04439154
1799.57727905,0.04382925
1801.50608643,0.04298871
1803.43489380,0.04429909
1805.36370117,0.04538110
1807.29250854,0.04470714
1809.22131592,0.04498116
1811.15012329,0.04371754
1813.07893066,0.04505743
1815.00773804,0.04536302
1816.93654541,0.04465210
1818.86535278,0.04523562
1820.79416016,0.04500513
1822.72296753,0.04585754
1824.65177490,0.04305825
1826.58058228,0.04420803
1828.50938965,0.04454195
1830.43819702,0.04179944
1832.36700439,0.04544193
1834.29581177,0.04532186
1836.22461914,0.04521205
1838.15342651,0.04504725
1840.08223389,0.04514530
1842.01104126,0.04548636
1843.93984863,0.04046814
1845.86865601,0.04293055
1847.79746338,0.04541823
1849.72627075,0.04443739
1851.65507812,0.04571859
1853.58388550,0.04474460
1855.51269287,0.04543566
1857.44150024,0.04516614
1859.37030762,0.04481683
1861.29911499,0.04528851
1863.22792236,0.04461812
1865.15672974,0.04521664
1867.08553711,0.04382642
1869.01434448,0.04207573
1870.94315186,0.04378527
1872.87195923,0.04530153
1874.80076660,0.04458898
1876.72957397,0.04479819
1878.65838135,0.04461900
1880.58718872,0.04443440
1882.51599609,0.04495704
1884.44480347,0.04419169
1886.37361084,0.04483704
1888.30241821,0.04397340
1890.23122559,0.04315248
1892.16003296,0.04484401
1894.08884033,0.04402817
1896.01764771,0.04378097
1897.94645508,0.04442706
1899.87526245,0.04416929
1901.80406982,0.04433610
1903.73287720,0.04409786
1905.66168457,0.04424617
1907.59049194,0.04390134
1909.51929932,0.04374446
1911.44810669,0.04394802
1913.37691406,0.04398966
1915.30572144,0.04442759
1917.23452881,0.04258297
1919.16333618,0.04274671
1921.09214355,0.04424509
1923.02095093,0.04285592
1924.94975830,0.04386280
1926.87856567,0.04421002
1928.80737305,0.04362249
1930.73618042,0.04432759
1932.66498779,0.04357042
1934.59379517,0.04397433
1936.52260254,0.04386465
1938.45140991,0.04391333
1940.38021729,0.04415082
1942.30902466,0.04265800
1944.23783203,0.04327837
1946.16663940,0.04394279
1948.09544678,0.04367378
1950.02425415,0.04391130
1951.95306152,0.04383088
1953.88186890,0.04384904
1955.81067627,0.04374598
1957.73948364,0.04377588
1959.66829102,0.04385262
1961.59709839,0.04376441
1963.52590576,0.04395588
1965.45471313,0.04387720
1967.38352051,0.04325195
1969.31232788,0.04363425
1971.24113525,0.04403067
1973.16994263,0.04358894
1975.09875000,0.04375102
1977.02755737,0.04366570
1978.95636475,0.04379961
1980.88517212,0.04388002
1982.81397949,0.04365176
1984.74278687,0.04382485
1986.67159424,0.04347277
1988.60040161,0.04347093
1990.52920898,0.04324659
1992.45801636,0.04278002
1994.38682373,0.04334774
1996.31563110,0.04350969
1998.24443848,0.04319934
2000.17324585,0.04328784
2002.10205322,0.04321352
2004.03086060,0.04315044
2005.95966797,0.04317514
2007.88847534,0.04298221
2009.81728271,0.04302627
2011.74609009,0.04296606
2013.67489746,0.04291760
2015.60370483,0.04270326
2017.53251221,0.04236284
2019.46131958,0.04265999
2021.39012695,0.04266068
2023.31893433,0.04256021
2025.24774170,0.04254428
2027.17654907,0.04246990
2029.10535645,0.04243533
2031.03416382,0.04225101
2032.96297119,0.04235817
2034.89177856,0.04221990
2036.82058594,0.04206563
2038.74939331,0.04216614
2040.67820068,0.04203223
2042.60700806,0.04190762
2044.53581543,0.04208960
2046.46462280,0.04207706
2048.39343018,0.04176566
2050.32223755,0.04180918
2052.25104492,0.04168003
2054.17985229,0.04167978
2056.10865967,0.04171611
2058.03746704,0.04146823
2059.96627441,0.04161081
2061.89508179,0.04154387
2063.82388916,0.04124378
2065.75269653,0.04117464
2067.68150391,0.04133198
2069.61031128,0.04129444
2071.53911865,0.04118387
2073.46792603,0.04113449
2075.39673340,0.04098711
2077.32554077,0.04112185
2079.25434814,0.04114373
2081.18315552,0.04102851
2083.11196289,0.04087339
2085.04077026,0.04081851
2086.96957764,0.04070079
2088.89838501,0.04058431
2090.82719238,0.04078525
2092.75599976,0.04064270
2094.68480713,0.04055425
2096.61361450,0.04053953
2098.54242187,0.04057050
2100.47122925,0.04056653
2102.40003662,0.04033129
2104.32884399,0.04033302
2106.25765137,0.04031584
2108.18645874,0.04030719
2110.11526611,0.04021140
2112.04407349,0.04028752
2113.97288086,0.04023033
2115.90168823,0.04006247
2117.83049561,0.04021102
2119.75930298,0.04011367
2121.68811035,0.04013119
2123.61691772,0.04007736
2125.54572510,0.04004722
2127.47453247,0.03994080
2129.40333984,0.03982972
2131.33214722,0.04003282
2133.26095459,0.03994501
2135.18976196,0.03989405
2137.11856934,0.03972245
2139.04737671,0.03968837
2140.97618408,0.03966055
2142.90499146,0.03969864
2144.83379883,0.03994229
2146.76260620,0.03964629
2148.69141357,0.03961546
2150.62022095,0.03964221
2152.54902832,0.03963589
2154.47783569,0.03960266
2156.40664307,0.03943384
2158.33545044,0.03951834
2160.26425781,0.03942377
2162.19306519,0.03951228
2164.12187256,0.03945886
2166.05067993,0.03933626
2167.97948730,0.03945485
2169.90829468,0.03939362
2171.83710205,0.03929532
2173.76590942,0.03922270
2175.69471680,0.03923989
2177.62352417,0.03918267
2179.55233154,0.03926894
2181.48113892,0.03932853
2183.40994629,0.03919166
2185.33875366,0.03915024
2187.26756104,0.03917191
2189.19636841,0.03912139
2191.12517578,0.03898819
2193.05398315,0.03903744
2194.98279053,0.03898677
2196.91159790,0.03904925
2198.84040527,0.03901479
2200.76921265,0.03887103
2202.69802002,0.03903706
2204.62682739,0.03890876
2206.55563477,0.03887390
2208.48444214,0.03888970
2210.41324951,0.03881376
2212.34205688,0.03885354
2214.27086426,0.03883522
2216.19967163,0.03886588
2218.12847900,0.03878953
2220.05728638,0.03871287
2221.98609375,0.03864647
2223.91490112,0.03864853
2225.84370850,0.03863084
2227.77251587,0.03862728
2229.70132324,0.03864232
2231.63013062,0.03853521
2233.55893799,0.03847162
2235.48774536,0.03838208
2237.41655273,0.03847498
2239.34536011,0.03833788
2241.27416748,0.03825208
2243.20297485,0.03836746
2245.13178223,0.03820121
2247.06058960,0.03814831
2248.98939697,0.03798727
2250.91820435,0.03807130
2252.84701172,0.03809877
2254.77581909,0.03793392
2256.70462646,0.03807950
2258.63343384,0.03801364
2260.56224121,0.03798211
2262.49104858,0.03791475
2264.41985596,0.03793261
2266.34866333,0.03796627
2268.27747070,0.03779259
2270.20627808,0.03785181
2272.13508545,0.03780913
2274.06389282,0.03771274
2275.99270020,0.03771095
2277.92150757,0.03773423
2279.85031494,0.03769818
2281.77912231,0.03763487
2283.70792969,0.03760992
2285.63673706,0.03754924
2287.56554443,0.03751964
2289.49435181,0.03736060
2291.42315918,0.03743236
2293.35196655,0.03747359
2295.28077393,0.03722981
2297.20958130,0.03715585
2299.13838867,0.03707043
2301.06719604,0.03693766
2302.99600342,0.03675655
2304.92481079,0.03678278
2306.85361816,0.03661485
2308.78242554,0.03615471
2310.71123291,0.03607646
2312.64004028,0.03564505
2314.56884766,0.03525601
2316.49765503,0.03516605
2318.42646240,0.03461968
2320.35526978,0.03412925
2322.28407715,0.03371258
2324.21288452,0.03344719
2326.14169189,0.03317420
2328.07049927,0.03269853
2329.99930664,0.03242469
2331.92811401,0.03210551
2333.85692139,0.03197762
2335.78572876,0.03188236
2337.71453613,0.03180711
2339.64334351,0.03191097
2341.57215088,0.03189136
2343.50095825,0.03228271
2345.42976562,0.03304076
2347.35857300,0.03434175
2349.28738037,0.03529142
2351.21618774,0.03434478
2353.14499512,0.03269429
2355.07380249,0.03147821
2357.00260986,0.03071653
2358.93141724,0.03012349
2360.86022461,0.02973011
2362.78903198,0.02978282
2364.71783936,0.02993008
2366.64664673,0.03029189
2368.57545410,0.03093961
2370.50426147,0.03159840
2372.43306885,0.03237015
2374.36187622,0.03328214
2376.29068359,0.03403415
2378.21949097,0.03485202
2380.14829834,0.03547655
2382.07710571,0.03569454
2384.00591309,0.03607550
2385.93472046,0.03610479
2387.86352783,0.03605751
2389.79233521,0.03618990
2391.72114258,0.03614012
2393.64994995,0.03621136
2395.57875732,0.03603598
2397.50756470,0.03597365
2399.43637207,0.03604831
2401.36517944,0.03595740
2403.29398682,0.03607561
2405.22279419,0.03590538
2407.15160156,0.03577639
2409.08040894,0.03598564
2411.00921631,0.03582985
2412.93802368,0.03578700
2414.86683105,0.03595865
2416.79563843,0.03582363
2418.72444580,0.03584667
2420.65325317,0.03577218
2422.58206055,0.03558178
2424.51086792,0.03570066
2426.43967529,0.03567640
2428.36848267,0.03557670
2430.29729004,0.03545591
2432.22609741,0.03549767
2434.15490479,0.03557289
2436.08371216,0.03537880
2438.01251953,0.03540694
2439.94132690,0.03549364
2441.87013428,0.03547101
2443.79894165,0.03544382
2445.72774902,0.03544968
2447.65655640,0.03537264
2449.58536377,0.03524337
2451.51417114,0.03527952
2453.44297852,0.03525956
2455.37178589,0.03526335
2457.30059326,0.03523877
2459.22940063,0.03516477
2461.15820801,0.03516192
2463.08701538,0.03516226
2465.01582275,0.03515161
2466.94463013,0.03512309
2468.87343750,0.03506336
2470.80224487,0.03494893
2472.73105225,0.03497412
2474.65985962,0.03489785
2476.58866699,0.03487238
2478.51747437,0.03496448
2480.44628174,0.03480991
2482.37508911,0.03475462
2484.30389648,0.03475676
2486.23270386,0.03473617
2488.16151123,0.03467416
2490.09031860,0.03462387
2492.01912598,0.03457272
2493.94793335,0.03455244
2495.87674072,0.03465203
2497.80554810,0.03452154
2499.73435547,0.03447527
2501.66316284,0.03444192
2503.59197021,0.03451689
2505.52077759,0.03460699
2507.44958496,0.03434274
2509.37839233,0.03439989
2511.30719971,0.03443091
2513.23600708,0.03430772
2515.16481445,0.03427534
2517.09362183,0.03425389
2519.02242920,0.03428282
2520.95123657,0.03417134
2522.88004395,0.03427154
2524.80885132,0.03433027
2526.73765869,0.03417305
2528.66646606,0.03421671
2530.59527344,0.03419156
2532.52408081,0.03407460
2534.45288818,0.03411825
2536.38169556,0.03404255
2538.31050293,0.03397607
2540.23931030,0.03400183
2542.16811768,0.03386202
2544.09692505,0.03393155
2546.02573242,0.03386309
2547.95453979,0.03376740
2549.88334717,0.03394337
2551.81215454,0.03383793
2553.74096191,0.03379057
2555.66976929,0.03378518
2557.59857666,0.03372464
2559.52738403,0.03369017
2561.45619141,0.03367547
2563.38499878,0.03363337
2565.31380615,0.03355709
2567.24261353,0.03369546
2569.17142090,0.03355278
2571.10022827,0.03346638
2573.02903564,0.03353733
2574.95784302,0.03345359
2576.88665039,0.03350566
2578.81545776,0.03341375
2580.74426514,0.03340387
2582.67307251,0.03337171
2584.60187988,0.03329558
2586.53068726,0.03335221
2588.45949463,0.03324550
2590.38830200,0.03322075
2592.31710937,0.03320466
2594.24591675,0.03317587
2596.17472412,0.03318337
2598.10353149,0.03309157
2600.03233887,0.03306469
2601.96114624,0.03308122
2603.88995361,0.03302086
2605.81876099,0.03303162
2607.74756836,0.03309612
2609.67637573,0.03302032
2611.60518311,0.03297073
2613.53399048,0.03295601
2615.46279785,0.03295138
2617.39160522,0.03298008
2619.32041260,0.03292690
2621.24921997,0.03285420
2623.17802734,0.03281748
2625.10683472,0.03278429
2627.03564209,0.03274097
2628.96444946,0.03270965
2630.89325684,0.03262775
2632.82206421,0.03264615
2634.75087158,0.03263766
2636.67967895,0.03254239
2638.60848633,0.03260317
2640.53729370,0.03254275
2642.46610107,0.03242969
2644.39490845,0.03243169
2646.32371582,0.03246181
2648.25252319,0.03236675
2650.18133057,0.03229187
2652.11013794,0.03241086
2654.03894531,0.03240295
2655.96775269,0.03233163
2657.89656006,0.03219658
2659.82536743,0.03218897
2661.75417480,0.03221287
2663.68298218,0.03208138
2665.61178955,0.03217109
2667.54059692,0.03218693
2669.46940430,0.03215395
2671.39821167,0.03213061
2673.32701904,0.03203936
2675.25582642,0.03197894
2677.18463379,0.03187031
2679.11344116,0.03189520
2681.04224854,0.03188961
2682.97105591,0.03183223
2684.89986328,0.03183985
2686.82867065,0.03179337
2688.75747803,0.03171044
2690.68628540,0.03168755
2692.61509277,0.03168048
2694.54390015,0.03170351
2696.47270752,0.03172109
2698.40151489,0.03147198
2700.33032227,0.03144540
2702.25912964,0.03158651
2704.18793701,0.03152204
2706.11674438,0.03154310
2708.04555176,0.03145038
2709.97435913,0.03136550
2711.90316650,0.03141943
2713.83197388,0.03143011
2715.76078125,0.03136466
2717.68958862,0.03131206
2719.61839600,0.03134076
2721.54720337,0.03127630
2723.47601074,0.03123698
2725.40481812,0.03122231
2727.33362549,0.03119214
2729.26243286,0.03115887
2731.19124023,0.03108052
2733.12004761,0.03105808
2735.04885498,0.03099637
2736.97766235,0.03092514
2738.90646973,0.03096040
2740.83527710,0.03097911
2742.76408447,0.03094600
2744.69289185,0.03093663
2746.62169922,0.03079236
2748.55050659,0.03075686
2750.47931396,0.03083646
2752.40812134,0.03068174
2754.33692871,0.03071847
2756.26573608,0.03077780
2758.19454346,0.03067661
2760.12335083,0.03064449
2762.05215820,0.03058182
2763.98096558,0.03060922
2765.90977295,0.03055030
2767.83858032,0.03047915
2769.76738770,0.03045553
2771.69619507,0.03034743
2773.62500244,0.03038868
2775.55380981,0.03039693
2777.48261719,0.03031758
2779.41142456,0.03026454
2781.34023193,0.03018428
2783.26903931,0.03015579
2785.19784668,0.03012199
2787.12665405,0.03011552
2789.05546143,0.03013500
2790.98426880,0.03002145
2792.91307617,0.02993472
2794.84188354,0.02993272
2796.77069092,0.02989267
2798.69949829,0.02988120
2800.62830566,0.02982264
2802.55711304,0.02973781
2804.48592041,0.02978333
2806.41472778,0.02976491
2808.34353516,0.02970442
2810.27234253,0.02975661
2812.20114990,0.02959635
2814.12995728,0.02947765
2816.05876465,0.02959023
2817.98757202,0.02949871
2819.91637939,0.02946012
2821.84518677,0.02940911
2823.77399414,0.02933196
2825.70280151,0.02946076
2827.63160889,0.02941273
2829.56041626,0.02931769
2831.48922363,0.02922453
2833.41803101,0.02910853
2835.34683838,0.02910098
2837.27564575,0.02908975
2839.20445312,0.02904551
2841.13326050,0.02887927
2843.06206787,0.02875582
2844.99087524,0.02872390
2846.91968262,0.02864257
2848.84848999,0.02845068
2850.77729736,0.02829495
2852.70610474,0.02835949
2854.63491211,0.02838979
2856.56371948,0.02835259
2858.49252686,0.02827932
2860.42133423,0.02818402
2862.35014160,0.02820761
2864.27894897,0.02818248
2866.20775635,0.02813730
2868.13656372,0.02820529
2870.06537109,0.02812641
2871.99417847,0.02798298
2873.92298584,0.02800578
2875.85179321,0.02798750
2877.78060059,0.02793643
2879.70940796,0.02792943
2881.63821533,0.02794931
2883.56702270,0.02789925
2885.49583008,0.02782598
2887.42463745,0.02782491
2889.35344482,0.02778465
2891.28225220,0.02783954
2893.21105957,0.02775269
2895.13986694,0.02761267
2897.06867432,0.02761040
2898.99748169,0.02750336
2900.92628906,0.02742684
2902.85509644,0.02742157
2904.78390381,0.02750651
2906.71271118,0.02735705
2908.64151855,0.02722111
2910.57032593,0.02726268
2912.49913330,0.02713342
2914.42794067,0.02712415
2916.35674805,0.02688641
2918.28555542,0.02683755
2920.21436279,0.02700818
2922.14317017,0.02676978
2924.07197754,0.02674313
2926.00078491,0.02675327
2927.92959229,0.02669042
2929.85839966,0.02669806
2931.78720703,0.02666676
2933.71601440,0.02661920
2935.64482178,0.02657669
2937.57362915,0.02668653
2939.50243652,0.02662481
2941.43124390,0.02659655
2943.36005127,0.02670504
2945.28885864,0.02666037
2947.21766602,0.02662816
2949.14647339,0.02666960
2951.07528076,0.02668050
2953.00408813,0.02645196
2954.93289551,0.02639170
2956.86170288,0.02649255
2958.79051025,0.02634678
2960.71931763,0.02626507
2962.64812500,0.02614893
2964.57693237,0.02608285
2966.50573975,0.02613373
2968.43454712,0.02608606
2970.36335449,0.02616582
2972.29216187,0.02621447
2974.22096924,0.02623947
2976.14977661,0.02631907
2978.07858398,0.02627047
2980.00739136,0.02620742
2981.93619873,0.02616354
2983.86500610,0.02618349
2985.79381348,0.02620356
2987.72262085,0.02626878
2989.65142822,0.02622015
2991.58023560,0.02608281
2993.50904297,0.02621883
2995.43785034,0.02614232
2997.36665771,0.02605255
2999.29546509,0.02609251
3001.22427246,0.02603340
3003.15307983,0.02604740
3005.08188721,0.02587999
3007.01069458,0.02592145
3008.93950195,0.02592620
3010.86830933,0.02574607
3012.79711670,0.02572681
3014.72592407,0.02560017
3016.65473145,0.02568998
3018.58353882,0.02567637
3020.51234619,0.02560521
3022.44115356,0.02572597
3024.36996094,0.02560236
3026.29876831,0.02549177
3028.22757568,0.02551551
3030.15638306,0.02547709
3032.08519043,0.02527920
3034.01399780,0.02527257
3035.94280518,0.02529297
3037.87161255,0.02518873
3039.80041992,0.02523890
3041.72922729,0.02512659
3043.65803467,0.02508211
3045.58684204,0.02505368
3047.51564941,0.02505435
3049.44445679,0.02513410
3051.37326416,0.02493812
3053.30207153,0.02493081
3055.23087891,0.02488006
3057.15968628,0.02473732
3059.08849365,0.02486169
3061.01730103,0.02485041
3062.94610840,0.02481569
3064.87491577,0.02477029
3066.80372314,0.02463016
3068.73253052,0.02467577
3070.66133789,0.02471301
3072.59014526,0.02455707
3074.51895264,0.02450537
3076.44776001,0.02454302
3078.37656738,0.02441184
3080.30537476,0.02438607
3082.23418213,0.02440274
3084.16298950,0.02430997
3086.09179687,0.02436462
3088.02060425,0.02426651
3089.94941162,0.02422969
3091.87821899,0.02433248
3093.80702637,0.02412659
3095.73583374,0.02411848
3097.66464111,0.02423831
3099.59344849,0.02411023
3101.52225586,0.02397038
3103.45106323,0.02397095
3105.37987061,0.02398377
3107.30867798,0.02386781
3109.23748535,0.02387902
3111.16629272,0.02383369
3113.09510010,0.02371209
3115.02390747,0.02370324
3116.95271484,0.02364448
3118.88152222,0.02360894
3120.81032959,0.02361727
3122.73913696,0.02359897
3124.66794434,0.02349356
3126.59675171,0.02345335
3128.52555908,0.02340517
3130.45436645,0.02334013
3132.38317383,0.02330381
3134.31198120,0.02320343
3136.24078857,0.02323804
3138.16959595,0.02316284
3140.09840332,0.02310439
3142.02721069,0.02316597
3143.95601807,0.02312533
3145.88482544,0.02301971
3147.81363281,0.02289348
3149.74244019,0.02291033
3151.67124756,0.02283440
3153.60005493,0.02279339
3155.52886230,0.02279571
3157.45766968,0.02267370
3159.38647705,0.02258239
3161.31528442,0.02251178
3163.24409180,0.02248517
3165.17289917,0.02242824
3167.10170654,0.02253439
3169.03051392,0.02247612
3170.95932129,0.02229788
3172.88812866,0.02231094
3174.81693604,0.02222388
3176.74574341,0.02222345
3178.67455078,0.02216779
3180.60335815,0.02208455
3182.53216553,0.02197553
3184.46097290,0.02192719
3186.38978027,0.02204257
3188.31858765,0.02194699
3190.24739502,0.02187455
3192.17620239,0.02181179
3194.10500977,0.02179879
3196.03381714,0.02180846
3197.96262451,0.02168049
3199.89143188,0.02169648
3201.82023926,0.02168590
3203.74904663,0.02150474
3205.67785400,0.02153731
3207.60666138,0.02161321
3209.53546875,0.02144791
3211.46427612,0.02150710
3213.39308350,0.02143037
3215.32189087,0.02130564
3217.25069824,0.02140424
3219.17950562,0.02127005
3221.10831299,0.02125479
3223.03712036,0.02121383
3224.96592773,0.02124570
3226.89473511,0.02126186
3228.82354248,0.02105261
3230.75234985,0.02109845
3232.68115723,0.02109792
3234.60996460,0.02101041
3236.53877197,0.02098513
3238.46757935,0.02099437
3240.39638672,0.02094366
3242.32519409,0.02093321
3244.25400146,0.02096237
3246.18280884,0.02089255
3248.11161621,0.02089827
3250.04042358,0.02087427
3251.96923096,0.02089151
3253.89803833,0.02080346
3255.82684570,0.02077198
3257.75565308,0.02080750
3259.68446045,0.02078416
3261.61326782,0.02086552
3263.54207520,0.02074297
3265.47088257,0.02076134
3267.39968994,0.02078962
3269.32849731,0.02067196
3271.25730469,0.02068994
3273.18611206,0.02071357
3275.11491943,0.02064941
3277.04372681,0.02054865
3278.97253418,0.02060935
3280.90134155,0.02061762
3282.83014893,0.02063091
3284.75895630,0.02055795
3286.68776367,0.02061657
3288.61657104,0.02067254
3290.54537842,0.02046613
3292.47418579,0.02052348
3294.40299316,0.02041205
3296.33180054,0.02050983
3298.26060791,0.02054005
3300.18941528,0.02032364
3302.11822266,0.02050607
3304.04703003,0.02040442
3305.97583740,0.02037480
3307.90464478,0.02038710
3309.83345215,0.02029234
3311.76225952,0.02035012
3313.69106689,0.02028561
3315.61987427,0.02022974
3317.54868164,0.02026845
3319.47748901,0.02031927
3321.40629639,0.02020636
3323.33510376,0.02027258
3325.26391113,0.02031049
3327.19271851,0.02016385
3329.12152588,0.02015131
3331.05033325,0.02013005
3332.97914062,0.02010847
3334.90794800,0.02002466
3336.83675537,0.02005490
3338.76556274,0.02005997
3340.69437012,0.01997793
3342.62317749,0.01996174
3344.55198486,0.01993130
3346.48079224,0.01995675
3348.40959961,0.01999657
3350.33840698,0.01990402
3352.26721436,0.01979790
3354.19602173,0.01984643
3356.12482910,0.01973432
3358.05363647,0.01974233
3359.98244385,0.01970155
3361.91125122,0.01967268
3363.84005859,0.01976378
3365.76886597,0.01956791
3367.69767334,0.01969650
3369.62648071,0.01955739
3371.55528809,0.01955774
3373.48409546,0.01973437
3375.41290283,0.01947703
3377.34171020,0.01958565
3379.27051758,0.01947505
3381.19932495,0.01946785
3383.12813232,0.01946832
3385.05693970,0.01935515
3386.98574707,0.01942335
3388.91455444,0.01927697
3390.84336182,0.01930059
3392.77216919,0.01918871
3394.70097656,0.01919325
3396.62978394,0.01917552
3398.55859131,0.01909105
3400.48739868,0.01916299
3402.41620605,0.01905688
3404.34501343,0.01901998
3406.27382080,0.01893902
3408.20262817,0.01900391
3410.13143555,0.01899752
3412.06024292,0.01895883
3413.98905029,0.01900030
3415.91785767,0.01901357
3417.84666504,0.01892313
3419.77547241,0.01868489
3421.70427979,0.01880572
3423.63308716,0.01884099
3425.56189453,0.01882821
3427.49070190,0.01869614
3429.41950928,0.01866679
3431.34831665,0.01871857
3433.27712402,0.01854348
3435.20593140,0.01869750
3437.13473877,0.01857337
3439.06354614,0.01868377
3440.99235352,0.01864191
3442.92116089,0.01840379
3444.84996826,0.01855021
3446.77877563,0.01825849
3448.70758301,0.01844725
3450.63639038,0.01859703
3452.56519775,0.01841966
3454.49400513,0.01840713
3456.42281250,0.01834324
3458.35161987,0.01849870
3460.28042725,0.01834149
3462.20923462,0.01820257
3464.13804199,0.01830259
3466.06684937,0.01826826
3467.99565674,0.01822161
3469.92446411,0.01824135
3471.85327148,0.01821201
3473.78207886,0.01821032
3475.71088623,0.01817816
3477.63969360,0.01819548
3479.56850098,0.01825967
3481.49730835,0.01793593
3483.42611572,0.01805517
3485.35492310,0.01814630
3487.28373047,0.01795400
3489.21253784,0.01813081
3491.14134521,0.01804988
3493.07015259,0.01808793
3494.99895996,0.01814015
3496.92776733,0.01804506
3498.85657471,0.01810180
3500.78538208,0.01814315
3502.71418945,0.01778331
3504.64299683,0.01768853
3506.57180420,0.01817822
3508.50061157,0.01797638
3510.42941895,0.01788472
3512.35822632,0.01804172
3514.28703369,0.01811482
3516.21584106,0.01821734
3518.14464844,0.01799223
3520.07345581,0.01805652
3522.00226318,0.01789099
3523.93107056,0.01772207
3525.85987793,0.01784174
3527.78868530,0.01774833
3529.71749268,0.01777102
3531.64630005,0.01798572
3533.57510742,0.01811151
3535.50391479,0.01791566
3537.43272217,0.01784820
3539.36152954,0.01800005
3541.29033691,0.01809056
3543.21914429,0.01801571
3545.14795166,0.01766062
3547.07675903,0.01730217
3549.00556641,0.01773913
3550.93437378,0.01807163
3552.86318115,0.01765141
3554.79198853,0.01781055
3556.72079590,0.01792558
3558.64960327,0.01791131
3560.57841064,0.01773546
3562.50721802,0.01769746
3564.43602539,0.01790854
3566.36483276,0.01666039
3568.29364014,0.01630535
3570.22244751,0.01756792
3572.15125488,0.01802838
3574.08006226,0.01791439
3576.00886963,0.01794863
3577.93767700,0.01792823
3579.86648437,0.01781980
3581.79529175,0.01781502
3583.72409912,0.01785301
3585.65290649,0.01755560
3587.58171387,0.01632950
3589.51052124,0.01665243
3591.43932861,0.01799304
3593.36813599,0.01750655
3595.29694336,0.01717860
3597.22575073,0.01745619
3599.15455811,0.01762898
3601.08336548,0.01754602
3603.01217285,0.01768802
3604.94098022,0.01802909
3606.86978760,0.01736226
3608.79859497,0.01640880
3610.72740234,0.01682090
3612.65620972,0.01719490
3614.58501709,0.01676489
3616.51382446,0.01784692
3618.44263184,0.01661038
3620.37143921,0.01600418
3622.30024658,0.01794202
3624.22905395,0.01750938
3626.15786133,0.01827198
3628.08666870,0.01572210
3630.01547607,0.01420261
3631.94428345,0.01764126
3633.87309082,0.01731176
3635.80189819,0.01763486
3637.73070557,0.01799859
3639.65951294,0.01762554
3641.58832031,0.01793253
3643.51712769,0.01772507
3645.44593506,0.01776945
3647.37474243,0.01604497
3649.30354980,0.01483400
3651.23235718,0.01499392
3653.16116455,0.01764099
3655.08997192,0.01755070
3657.01877930,0.01573881
3658.94758667,0.01800971
3660.87639404,0.01764596
3662.80520142,0.01786406
3664.73400879,0.01783691
3666.66281616,0.01752993
3668.59162354,0.01722179
3670.52043091,0.01418026
3672.44923828,0.01692446
3674.37804565,0.01631754
3676.30685303,0.01354400
3678.23566040,0.01686992
3680.16446777,0.01729718
3682.09327515,0.01731492
3684.02208252,0.01778005
3685.95088989,0.01739876
3687.87969727,0.01582109
3689.80850464,0.01462601
3691.73731201,0.01651642
3693.66611938,0.01696884
3695.59492676,0.01738549
3697.52373413,0.01737306
3699.45254150,0.01724578
3701.38134888,0.01688372
3703.31015625,0.01618493
3705.23896362,0.01771054
3707.16777100,0.01688692
3709.09657837,0.01648139
3711.02538574,0.01565824
3712.95419312,0.01472307
3714.88300049,0.01707826
3716.81180786,0.01683221
3718.74061523,0.01693288
3720.66942261,0.01666344
3722.59822998,0.01614435
3724.52703735,0.01667117
3726.45584473,0.01547424
3728.38465210,0.01668835
3730.31345947,0.01658904
3732.24226685,0.01530094
3734.17107422,0.01496023
3736.09988159,0.01425291
3738.02868896,0.01501374
3739.95749634,0.01624890
3741.88630371,0.01696774
3743.81511108,0.01345633
3745.74391846,0.01268923
3747.67272583,0.01613702
3749.60153320,0.01409503
3751.53034058,0.01298077
3753.45914795,0.01482424
3755.38795532,0.01592302
3757.31676270,0.01647514
3759.24557007,0.01532212
3761.17437744,0.01584245
3763.10318481,0.01685775
3765.03199219,0.01578137
3766.96079956,0.01596545
3768.88960693,0.01582630
3770.81841431,0.01524827
3772.74722168,0.01640411
3774.67602905,0.01648814
3776.60483643,0.01643988
3778.53364380,0.01590734
3780.46245117,0.01540054
3782.39125854,0.01636619
3784.32006592,0.01602618
3786.24887329,0.01584588
3788.17768066,0.01623632
3790.10648804,0.01625455
3792.03529541,0.01599422
3793.96410278,0.01638377
3795.89291016,0.01552291
3797.82171753,0.01524236
3799.75052490,0.01598056
3801.67933228,0.01284823
3803.60813965,0.01492587
3805.53694702,0.01612163
3807.46575439,0.01344278
3809.39456177,0.01598350
3811.32336914,0.01566254
3813.25217651,0.01621189
3815.18098389,0.01467489
3817.10979126,0.01307557
3819.03859863,0.01619762
3820.96740601,0.01334129
3822.89621338,0.01396358
3824.82502075,0.01606916
3826.75382812,0.01469292
3828.68263550,0.01568174
3830.61144287,0.01518910
3832.54025024,0.01468061
3834.46905762,0.01494957
3836.39786499,0.01432509
3838.32667236,0.01297830
3840.25547974,0.01398152
3842.18428711,0.01500348
3844.11309448,0.01438444
3846.04190186,0.01542949
3847.97070923,0.01522731
3849.89951660,0.01530409
3851.82832397,0.01377395
3853.75713135,0.01051506
3855.68593872,0.01232348
3857.61474609,0.01529106
3859.54355347,0.01485728
3861.47236084,0.01474091
3863.40116821,0.01450226
3865.32997559,0.01341156
3867.25878296,0.01499538
3869.18759033,0.01384070
3871.11639770,0.01280602
3873.04520508,0.01500893
3874.97401245,0.01387638
3876.90281982,0.01496807
3878.83162720,0.01522939
3880.76043457,0.01319472
3882.68924194,0.01499151
3884.61804932,0.01406406
3886.54685669,0.01295870
3888.47566406,0.01504819
3890.40447144,0.01438201
3892.33327881,0.01341680
3894.26208618,0.01469877
3896.19089355,0.01500918
3898.11970093,0.01412533
3900.04850830,0.01349133
3901.97731567,0.01351620
3903.90612305,0.01326804
3905.83493042,0.01340053
3907.76373779,0.01464075
3909.69254517,0.01460516
3911.62135254,0.01451020
3913.55015991,0.01473985
3915.47896728,0.01429676
3917.40777466,0.01398114
3919.33658203,0.01377435
3921.26538940,0.01433437
3923.19419678,0.01424946
3925.12300415,0.01395077
3927.05181152,0.01427482
3928.98061890,0.01428604
3930.90942627,0.01406001
3932.83823364,0.01368329
3934.76704102,0.01417558
3936.69584839,0.01432354
3938.62465576,0.01423662
3940.55346313,0.01433933
3942.48227051,0.01373839
3944.41107788,0.01390203
3946.33988525,0.01416226
3948.26869263,0.01385336
3950.19750000,0.01383329
3952.12630737,0.01403934
3954.05511475,0.01409144
3955.98392212,0.01400269
3957.91272949,0.01408153
3959.84153687,0.01400954
3961.77034424,0.01379685
3963.69915161,0.01385496
3965.62795898,0.01394404
3967.55676636,0.01382180
3969.48557373,0.01386697
3971.41438110,0.01386262
3973.34318848,0.01382555
3975.27199585,0.01380851
3977.20080322,0.01371479
3979.12961060,0.01379387
3981.05841797,0.01374351
3982.98722534,0.01375085
3984.91603271,0.01372042
3986.84484009,0.01371937
3988.77364746,0.01373401
3990.70245483,0.01362334
3992.63126221,0.01364338
3994.56006958,0.01355960
3996.48887695,0.01356357
3998.41768433,0.01348551
4000.34649170,0.01352839
4002.27529907,0.01351016
4004.20410645,0.01343094
4006.13291382,0.01356751
4008.06172119,0.01335046
4009.99052856,0.01338364
4011.91933594,0.01342802
4013.84814331,0.01339145
4015.77695068,0.01341738
4017.70575806,0.01332920
4019.63456543,0.01332768
4021.56337280,0.01320642
4023.49218018,0.01330968
4025.42098755,0.01322162
4027.34979492,0.01314814
4029.27860229,0.01327382
4031.20740967,0.01317851
4033.13621704,0.01314433
4035.06502441,0.01310499
4036.99383179,0.01312376
4038.92263916,0.01305829
4040.85144653,0.01308328
4042.78025391,0.01311938
4044.70906128,0.01308243
4046.63786865,0.01304371
4048.56667603,0.01293189
4050.49548340,0.01290806
4052.42429077,0.01283569
4054.35309814,0.01291163
4056.28190552,0.01282394
4058.21071289,0.01281462
4060.13952026,0.01289359
4062.06832764,0.01281008
4063.99713501,0.01287036
4065.92594238,0.01270569
4067.85474976,0.01271713
4069.78355713,0.01275034
4071.71236450,0.01271828
4073.64117187,0.01270305
4075.56997925,0.01259422
4077.49878662,0.01267830
4079.42759399,0.01260354
4081.35640137,0.01262285
4083.28520874,0.01262053
4085.21401611,0.01254016
4087.14282349,0.01245986
4089.07163086,0.01235770
4091.00043823,0.01245618
4092.92924561,0.01241796
4094.85805298,0.01243707
4096.78686035,0.01243725
4098.71566772,0.01232027
4100.64447510,0.01227812
4102.57328247,0.01234547
4104.50208984,0.01234275
4106.43089722,0.01223048
4108.35970459,0.01227092
4110.28851196,0.01222465
4112.21731934,0.01223825
4114.14612671,0.01223279
4116.07493408,0.01216829
4118.00374145,0.01217058
4119.93254883,0.01212428
4121.86135620,0.01213090
4123.79016357,0.01211904
4125.71897095,0.01209448
4127.64777832,0.01202711
4129.57658569,0.01206763
4131.50539307,0.01195580
4133.43420044,0.01190329
4135.36300781,0.01204172
4137.29181519,0.01189690
4139.22062256,0.01194276
4141.14942993,0.01194541
4143.07823730,0.01180546
4145.00704468,0.01184202
4146.93585205,0.01192731
4148.86465942,0.01182813
4150.79346680,0.01167660
4152.72227417,0.01180102
4154.65108154,0.01174698
4156.57988892,0.01175660
4158.50869629,0.01178975
4160.43750366,0.01171915
4162.36631103,0.01177611
4164.29511841,0.01165766
4166.22392578,0.01161231
4168.15273315,0.01162150
4170.08154053,0.01162148
4172.01034790,0.01157652
4173.93915527,0.01151597
4175.86796265,0.01154482
4177.79677002,0.01148954
4179.72557739,0.01151667
4181.65438477,0.01155241
4183.58319214,0.01150476
4185.51199951,0.01146988
4187.44080688,0.01140868
4189.36961426,0.01136811
4191.29842163,0.01143395
4193.22722900,0.01134937
4195.15603638,0.01129364
4197.08484375,0.01135626
4199.01365112,0.01127711
4200.94245850,0.01131699
4202.87126587,0.01122398
4204.80007324,0.01120398
4206.72888062,0.01122874
4208.65768799,0.01110030
4210.58649536,0.01115327
4212.51530273,0.01109151
4214.44411011,0.01109909
4216.37291748,0.01106496
4218.30172485,0.01106616
4220.23053223,0.01113394
4222.15933960,0.01102380
4224.08814697,0.01106453
4226.01695435,0.01102499
4227.94576172,0.01098428
4229.87456909,0.01095971
4231.80337646,0.01096496
4233.73218384,0.01098193
4235.66099121,0.01090117
4237.58979858,0.01089013
4239.51860596,0.01084638
4241.44741333,0.01089899
4243.37622070,0.01083491
4245.30502808,0.01076055
4247.23383545,0.01077813
4249.16264282,0.01070237
4251.09145020,0.01065817
4253.02025757,0.01064291
4254.94906494,0.01067414
4256.87787231,0.01060798
4258.80667969,0.01067347
4260.73548706,0.01068900
4262.66429443,0.01061008
4264.59310181,0.01064937
4266.52190918,0.01056663
4268.45071655,0.01060461
4270.37952393,0.01055842
4272.30833130,0.01050636
4274.23713867,0.01060091
4276.16594604,0.01051074
4278.09475342,0.01043610
4280.02356079,0.01045857
4281.95236816,0.01042971
4283.88117554,0.01036578
4285.80998291,0.01034680
4287.73879028,0.01032558
4289.66759766,0.01036188
4291.59640503,0.01034390
4293.52521240,0.01029975
4295.45401978,0.01028603
4297.38282715,0.01019920
4299.31163452,0.01026205
4301.24044189,0.01028693
4303.16924927,0.01022631
4305.09805664,0.01021423
4307.02686401,0.01020582
4308.95567139,0.01014549
4310.88447876,0.01011380
4312.81328613,0.01016108
4314.74209351,0.01007613
4316.67090088,0.01009201
4318.59970825,0.01006967
4320.52851562,0.01000571
4322.45732300,0.01005055
4324.38613037,0.01002100
4326.31493774,0.01005380
4328.24374512,0.00998561
4330.17255249,0.00997170
4332.10135986,0.00994704
4334.03016724,0.00983358
4335.95897461,0.00992722
4337.88778198,0.00990596
4339.81658936,0.00983838
4341.74539673,0.00985988
4343.67420410,0.00985613
4345.60301147,0.00982524
4347.53181885,0.00974585
4349.46062622,0.00976164
4351.38943359,0.00978074
4353.31824097,0.00972371
4355.24704834,0.00971681
4357.17585571,0.00967361
4359.10466309,0.00960810
4361.03347046,0.00963973
4362.96227783,0.00971006
4364.89108520,0.00966151
4366.81989258,0.00954734
4368.74869995,0.00960771
4370.67750732,0.00954918
4372.60631470,0.00947351
4374.53512207,0.00959258
4376.46392944,0.00951862
4378.39273682,0.00950095
4380.32154419,0.00950916
4382.25035156,0.00944584
4384.17915894,0.00946939
4386.10796631,0.00941792
4388.03677368,0.00936220
4389.96558105,0.00932261
4391.89438843,0.00931631
4393.82319580,0.00931514
4395.75200317,0.00938291
4397.68081055,0.00934712
4399.60961792,0.00923389
4401.53842529,0.00931465
4403.46723267,0.00923257
4405.39604004,0.00918192
4407.32484741,0.00921568
4409.25365478,0.00911971
4411.18246216,0.00912365
4413.11126953,0.00911643
4415.04007690,0.00912073
4416.96888428,0.00919746
4418.89769165,0.00916350
4420.82649902,0.00909183
4422.75530640,0.00907273
4424.68411377,0.00906878
4426.61292114,0.00906223
4428.54172852,0.00893104
4430.47053589,0.00890874
4432.39934326,0.00898203
4434.32815063,0.00897281
4436.25695801,0.00904005
4438.18576538,0.00898493
4440.11457275,0.00893516
4442.04338013,0.00889121
4443.97218750,0.00889997
4445.90099487,0.00896348
4447.82980225,0.00884978
4449.75860962,0.00883950
4451.68741699,0.00877393
4453.61622437,0.00878344
4455.54503174,0.00879316
4457.47383911,0.00873270
4459.40264648,0.00879511
4461.33145386,0.00866755
4463.26026123,0.00866184
4465.18906860,0.00867991
4467.11787598,0.00863907
4469.04668335,0.00866737
4470.97549072,0.00859664
4472.90429810,0.00858215
4474.83310547,0.00862521
4476.76191284,0.00862784
4478.69072021,0.00857197
4480.61952759,0.00859171
4482.54833496,0.00853088
4484.47714233,0.00852310
4486.40594971,0.00854883
4488.33475708,0.00843353
4490.26356445,0.00844903
4492.19237183,0.00844199
4494.12117920,0.00847413
4496.04998657,0.00842964
4497.97879395,0.00841919
4499.90760132,0.00846854
4501.83640869,0.00835161
4503.76521606,0.00833200
4505.69402344,0.00830060
4507.62283081,0.00837428
4509.55163818,0.00835835
4511.48044556,0.00828343
4513.40925293,0.00831703
4515.33806030,0.00824905
4517.26686768,0.00827352
4519.19567505,0.00823769
4521.12448242,0.00818943
4523.05328979,0.00815223
4524.98209717,0.00815347
4526.91090454,0.00814248
4528.83971191,0.00804566
4530.76851929,0.00810672
4532.69732666,0.00814317
4534.62613403,0.00812828
4536.55494141,0.00803930
4538.48374878,0.00804107
4540.41255615,0.00804957
4542.34136353,0.00795330
4544.27017090,0.00800806
4546.19897827,0.00795538
4548.12778564,0.00794044
4550.05659302,0.00797683
4551.98540039,0.00794353
4553.91420776,0.00794665
4555.84301514,0.00785540
4557.77182251,0.00785732
4559.70062988,0.00792184
4561.62943726,0.00786766
4563.55824463,0.00789415
4565.48705200,0.00788993
4567.41585937,0.00776955
4569.34466675,0.00779380
4571.27347412,0.00780525
4573.20228149,0.00776921
4575.13108887,0.00775943
4577.05989624,0.00776025
4578.98870361,0.00771714
4580.91751099,0.00768200
4582.84631836,0.00777105
4584.77512573,0.00763182
4586.70393311,0.00765274
4588.63274048,0.00769972
4590.56154785,0.00754918
4592.49035522,0.00765799
4594.41916260,0.00760914
4596.34796997,0.00756121
4598.27677734,0.00751234
4600.20558472,0.00749750
4602.13439209,0.00757716
4604.06319946,0.00746906
4605.99200684,0.00751192
4607.92081421,0.00751320
4609.84962158,0.00748687
4611.77842895,0.00749894
4613.70723633,0.00750529
4615.63604370,0.00748145
4617.56485107,0.00745193
4619.49365845,0.00748521
4621.42246582,0.00737029
4623.35127319,0.00739352
4625.28008057,0.00733787
4627.20888794,0.00725464
4629.13769531,0.00730110
4631.06650269,0.00726063
4632.99531006,0.00728956
4634.92411743,0.00729699
4636.85292480,0.00729921
4638.78173218,0.00723728
4640.71053955,0.00726398
4642.63934692,0.00724516
4644.56815430,0.00712866
4646.49696167,0.00714879
4648.42576904,0.00720870
4650.35457642,0.00722517
4652.28338379,0.00707966
4654.21219116,0.00717270
4656.14099853,0.00716824
4658.06980591,0.00710206
4659.99861328,0.00717874
4661.92742065,0.00703207
4663.85622803,0.00705284
4665.78503540,0.00701667
4667.71384277,0.00705171
4669.64265015,0.00701893
4671.57145752,0.00689704
4673.50026489,0.00701185
4675.42907227,0.00690145
4677.35787964,0.00690666
4679.28668701,0.00696673
4681.21549438,0.00695579
4683.14430176,0.00690230
4685.07310913,0.00683964
4687.00191650,0.00692405
4688.93072388,0.00686970
4690.85953125,0.00684845
4692.78833862,0.00685646
4694.71714600,0.00683211
4696.64595337,0.00679440
4698.57476074,0.00680228
4700.50356812,0.00678429
4702.43237549,0.00679604
4704.36118286,0.00686836
4706.28999023,0.00670632
4708.21879761,0.00670409
4710.14760498,0.00672108
4712.07641235,0.00669129
4714.00521973,0.00672100
4715.93402710,0.00669706
4717.86283447,0.00673736
4719.79164185,0.00667621
4721.72044922,0.00670400
4723.64925659,0.00664430
4725.57806396,0.00658131
4727.50687134,0.00659517
4729.43567871,0.00656112
4731.36448608,0.00660609
4733.29329346,0.00646143
4735.22210083,0.00650082
4737.15090820,0.00660064
4739.07971558,0.00653299
4741.00852295,0.00654697
4742.93733032,0.00653113
4744.86613770,0.00652094
4746.79494507,0.00645750
4748.72375244,0.00641143
4750.65255981,0.00642748
4752.58136719,0.00651425
4754.51017456,0.00650658
4756.43898193,0.00640305
4758.36778931,0.00643227
4760.29659668,0.00641034
4762.22540405,0.00636317
4764.15421143,0.00635630
4766.08301880,0.00632636
4768.01182617,0.00632205
4769.94063354,0.00633980
4771.86944092,0.00623242
4773.79824829,0.00626631
4775.72705566,0.00636557
4777.65586304,0.00621425
4779.58467041,0.00625365
4781.51347778,0.00629703
4783.44228516,0.00623615
4785.37109253,0.00618689
4787.29989990,0.00612987
4789.22870728,0.00620129
4791.15751465,0.00618724
4793.08632202,0.00621861
4795.01512939,0.00617138
4796.94393677,0.00609935
4798.87274414,0.00619368
4800.80155151,0.00616230
4802.73035889,0.00609200
4804.65916626,0.00608808
4806.58797363,0.00612752
4808.51678101,0.00604132
4810.44558838,0.00601376
4812.37439575,0.00613602
4814.30320312,0.00604612
4816.23201050,0.00595271
4818.16081787,0.00600523
4820.08962524,0.00601359
4822.01843262,0.00597563
4823.94723999,0.00598256
4825.87604736,0.00596230
4827.80485474,0.00590720
4829.73366211,0.00592176
4831.66246948,0.00592745
4833.59127686,0.00588913
4835.52008423,0.00585182
4837.44889160,0.00583618
4839.37769897,0.00585587
4841.30650635,0.00589154
4843.23531372,0.00591816
4845.16412109,0.00586017
4847.09292847,0.00576670
4849.02173584,0.00582670
4850.95054321,0.00581781
4852.87935059,0.00576184
4854.80815796,0.00581537
4856.73696533,0.00575137
4858.66577270,0.00579123
4860.59458008,0.00579766
4862.52338745,0.00565162
4864.45219482,0.00565061
4866.38100220,0.00570265
4868.30980957,0.00571092
4870.23861694,0.00564640
4872.16742432,0.00563327
4874.09623169,0.00562811
4876.02503906,0.00564460
4877.95384644,0.00557293
4879.88265381,0.00549456
4881.81146118,0.00562466
4883.74026855,0.00553494
4885.66907593,0.00552348
4887.59788330,0.00561640
4889.52669067,0.00555338
4891.45549805,0.00551054
4893.38430542,0.00547980
4895.31311279,0.00555426
4897.24192017,0.00546075
4899.17072754,0.00545716
4901.09953491,0.00554673
4903.02834228,0.00541919
4904.95714966,0.00545001
4906.88595703,0.00551794
4908.81476440,0.00546962
4910.74357178,0.00536661
4912.67237915,0.00538365
4914.60118652,0.00544992
4916.52999390,0.00541905
4918.45880127,0.00545303
4920.38760864,0.00539224
4922.31641602,0.00532819
4924.24522339,0.00538023
4926.17403076,0.00533122
4928.10283813,0.00526794
4930.03164551,0.00530194
4931.96045288,0.00525680
4933.88926025,0.00522554
4935.81806763,0.00528471
4937.74687500,0.00530089
4939.67568237,0.00525255
4941.60448975,0.00521322
4943.53329712,0.00530328
4945.46210449,0.00523801
4947.39091187,0.00515064
4949.31971924,0.00517790
4951.24852661,0.00512722
4953.17733398,0.00521087
4955.10614136,0.00520907
4957.03494873,0.00514993
4958.96375610,0.00517818
4960.89256348,0.00517034
4962.82137085,0.00513229
4964.75017822,0.00508322
4966.67898560,0.00512475
4968.60779297,0.00505114
4970.53660034,0.00499867
4972.46540771,0.00504554
4974.39421509,0.00500865
4976.32302246,0.00505717
4978.25182983,0.00509240
4980.18063721,0.00503423
4982.10944458,0.00506402
4984.03825195,0.00506907
4985.96705933,0.00495027
4987.89586670,0.00495371
4989.82467407,0.00495957
4991.75348145,0.00493057
4993.68228882,0.00492235
4995.61109619,0.00487907
4997.53990356,0.00489759
4999.46871094,0.00485883
5001.39751831,0.00493943
5003.32632568,0.00490689
5005.25513306,0.00477816
5007.18394043,0.00487263
5009.11274780,0.00488148
5011.04155518,0.00491965
5012.97036255,0.00483951
5014.89916992,0.00479593
5016.82797729,0.00488252
5018.75678467,0.00478544
5020.68559204,0.00478697
5022.61439941,0.00477180
5024.54320679,0.00473361
5026.47201416,0.00475827
5028.40082153,0.00480491
5030.32962891,0.00477168
5032.25843628,0.00467669
5034.18724365,0.00475979
5036.11605103,0.00472335
5038.04485840,0.00469006
5039.97366577,0.00469639
5041.90247314,0.00463558
5043.83128052,0.00471871
5045.76008789,0.00469444
5047.68889526,0.00467847
5049.61770264,0.00467347
5051.54651001,0.00455639
5053.47531738,0.00458972
5055.40412476,0.00462116
5057.33293213,0.00459516
5059.26173950,0.00452539
5061.19054687,0.00450042
5063.11935425,0.00463133
5065.04816162,0.00457050
5066.97696899,0.00452076
5068.90577637,0.00455043
5070.83458374,0.00448896
5072.76339111,0.00453537
5074.69219849,0.00445654
5076.62100586,0.00447420
5078.54981323,0.00454133
5080.47862061,0.00442465
5082.40742798,0.00447699
5084.33623535,0.00448375
5086.26504272,0.00448202
5088.19385010,0.00444646
5090.12265747,0.00437105
5092.05146484,0.00441635
5093.98027222,0.00437688
5095.90907959,0.00444086
5097.83788696,0.00445206
5099.76669434,0.00440816
5101.69550171,0.00440075
5103.62430908,0.00429830
5105.55311645,0.00439873
5107.48192383,0.00441543
5109.41073120,0.00430338
5111.33953857,0.00437673
5113.26834595,0.00431089
5115.19715332,0.00421728
5117.12596069,0.00431208
5119.05476807,0.00430677
5120.98357544,0.00428937
5122.91238281,0.00428238
5124.84119019,0.00419840
5126.76999756,0.00425003
5128.69880493,0.00428054
5130.62761230,0.00424077
5132.55641968,0.00422722
5134.48522705,0.00419253
5136.41403442,0.00417684
5138.34284180,0.00417683
5140.27164917,0.00420072
5142.20045654,0.00417899
5144.12926392,0.00419382
5146.05807129,0.00421815
5147.98687866,0.00412092
5149.91568603,0.00407847
5151.84449341,0.00419577
5153.77330078,0.00418499
5155.70210815,0.00399882
5157.63091553,0.00411308
5159.55972290,0.00417439
5161.48853027,0.00398946
5163.41733765,0.00403533
5165.34614502,0.00408667
5167.27495239,0.00404625
5169.20375977,0.00403592
5171.13256714,0.00405447
5173.06137451,0.00399625
5174.99018188,0.00395918
5176.91898926,0.00403409
5178.84779663,0.00396255
5180.77660400,0.00398107
5182.70541138,0.00398941
5184.63421875,0.00387535
5186.56302612,0.00390498
5188.49183350,0.00390382
5190.42064087,0.00390398
5192.34944824,0.00396664
5194.27825562,0.00400985
5196.20706299,0.00390887
5198.13587036,0.00382743
5200.06467773,0.00392897
5201.99348511,0.00391390
5203.92229248,0.00389876
5205.85109985,0.00383623
5207.77990723,0.00372925
5209.70871460,0.00386110
5211.63752197,0.00390299
5213.56632935,0.00383640
5215.49513672,0.00383979
5217.42394409,0.00380739
5219.35275146,0.00379503
5221.28155884,0.00381630
5223.21036621,0.00379819
5225.13917358,0.00373513
5227.06798096,0.00373872
5228.99678833,0.00377259
5230.92559570,0.00374881
5232.85440308,0.00369406
5234.78321045,0.00365829
5236.71201782,0.00372689
5238.64082520,0.00375223
5240.56963257,0.00376231
5242.49843994,0.00374543
5244.42724731,0.00363981
5246.35605469,0.00369826
5248.28486206,0.00366059
5250.21366943,0.00363023
5252.14247681,0.00375679
5254.07128418,0.00364696
5256.00009155,0.00362244
5257.92889893,0.00373607
5259.85770630,0.00373691
5261.78651367,0.00365046
5263.71532104,0.00357233
5265.64412842,0.00358430
5267.57293579,0.00352751
5269.50174316,0.00360412
5271.43055054,0.00369355
5273.35935791,0.00360439
5275.28816528,0.00359232
5277.21697266,0.00356960
5279.14578003,0.00353064
5281.07458740,0.00358031
5283.00339478,0.00361319
5284.93220215,0.00350839
5286.86100952,0.00354412
5288.78981689,0.00361779
5290.71862427,0.00352225
5292.64743164,0.00357972
5294.57623901,0.00351490
5296.50504639,0.00349776
5298.43385376,0.00361747
5300.36266113,0.00347376
5302.29146851,0.00345055
5304.22027588,0.00348544
5306.14908325,0.00340887
5308.07789062,0.00344090
5310.00669800,0.00348376
5311.93550537,0.00343446
5313.86431274,0.00341937
5315.79312012,0.00341237
5317.72192749,0.00339481
5319.65073486,0.00346876
5321.57954224,0.00344922
5323.50834961,0.00342446
5325.43715698,0.00341088
5327.36596436,0.00337696
5329.29477173,0.00337557
5331.22357910,0.00332593
5333.15238647,0.00336198
5335.08119385,0.00335996
5337.01000122,0.00330523
5338.93880859,0.00321365
5340.86761597,0.00328746
5342.79642334,0.00334672
5344.72523071,0.00313811
5346.65403809,0.00322762
5348.58284546,0.00324815
5350.51165283,0.00322660
5352.44046020,0.00327774
5354.36926758,0.00316874
5356.29807495,0.00324150
5358.22688232,0.00320145
5360.15568970,0.00322569
5362.08449707,0.00324128
5364.01330444,0.00319275
5365.94211182,0.00325684
5367.87091919,0.00316143
5369.79972656,0.00321162
5371.72853394,0.00324009
5373.65734131,0.00320783
5375.58614868,0.00313614
5377.51495605,0.00310917
5379.44376343,0.00321208
5381.37257080,0.00313980
5383.30137817,0.00320673
5385.23018555,0.00316108
5387.15899292,0.00307072
5389.08780029,0.00317788
5391.01660767,0.00315059
5392.94541504,0.00308786
5394.87422241,0.00306002
5396.80302978,0.00311120
5398.73183716,0.00309822
5400.66064453,0.00310613
5402.58945190,0.00307172
5404.51825928,0.00303957
5406.44706665,0.00316845
5408.37587402,0.00310162
5410.30468140,0.00307996
5412.23348877,0.00303353
5414.16229614,0.00294995
5416.09110352,0.00306216
5418.01991089,0.00308395
5419.94871826,0.00306052
5421.87752563,0.00302188
5423.80633301,0.00299880
5425.73514038,0.00301156
5427.66394775,0.00297105
5429.59275513,0.00292151
5431.52156250,0.00299617
5433.45036987,0.00303871
5435.37917725,0.00292007
5437.30798462,0.00296671
5439.23679199,0.00298008
5441.16559936,0.00288765
5443.09440674,0.00294792
5445.02321411,0.00292673
5446.95202148,0.00285302
5448.88082886,0.00292231
5450.80963623,0.00291362
5452.73844360,0.00289266
5454.66725098,0.00295413
5456.59605835,0.00285144
5458.52486572,0.00287527
5460.45367310,0.00293700
5462.38248047,0.00285388
5464.31128784,0.00288356
5466.24009521,0.00283261
5468.16890259,0.00278770
5470.09770996,0.00282037
5472.02651733,0.00288679
5473.95532471,0.00287090
5475.88413208,0.00276636
5477.81293945,0.00281074
5479.74174683,0.00279065
5481.67055420,0.00282751
5483.59936157,0.00284922
5485.52816895,0.00275517
5487.45697632,0.00276365
5489.38578369,0.00273610
5491.31459106,0.00273316
5493.24339844,0.00272202
5495.17220581,0.00278127
5497.10101318,0.00280575
5499.02982056,0.00267683
5500.95862793,0.00275088
5502.88743530,0.00277258
5504.81624268,0.00268499
5506.74505005,0.00272130
5508.67385742,0.00268679
5510.60266479,0.00270653
5512.53147217,0.00278699
5514.46027954,0.00270203
5516.38908691,0.00269218
5518.31789429,0.00270873
5520.24670166,0.00262401
5522.17550903,0.00265439
5524.10431641,0.00264427
5526.03312378,0.00268717
5527.96193115,0.00275185
5529.89073853,0.00263898
5531.81954590,0.00264658
5533.74835327,0.00266176
5535.67716064,0.00266371
5537.60596802,0.00270012
5539.53477539,0.00261425
5541.46358276,0.00261296
5543.39239014,0.00262649
5545.32119751,0.00258623
5547.25000488,0.00262761
5549.17881226,0.00264962
5551.10761963,0.00261218
5553.03642700,0.00259263
5554.96523437,0.00261463
5556.89404175,0.00260628
5558.82284912,0.00257625
5560.75165649,0.00259539
5562.68046387,0.00260772
5564.60927124,0.00256528
5566.53807861,0.00257334
5568.46688599,0.00262798
5570.39569336,0.00253370
5572.32450073,0.00249146
5574.25330811,0.00260415
5576.18211548,0.00253418
5578.11092285,0.00248607
5580.03973022,0.00255627
5581.96853760,0.00249987
5583.89734497,0.00250346
5585.82615234,0.00253162
5587.75495972,0.00247668
5589.68376709,0.00248193
5591.61257446,0.00250677
5593.54138184,0.00248905
5595.47018921,0.00245991
5597.39899658,0.00246523
5599.32780395,0.00247861
5601.25661133,0.00245241
5603.18541870,0.00244808
5605.11422607,0.00246671
5607.04303345,0.00244643
5608.97184082,0.00245716
5610.90064819,0.00245947
5612.82945557,0.00242337
5614.75826294,0.00243087
5616.68707031,0.00237387
5618.61587769,0.00233797
5620.54468506,0.00234717
5622.47349243,0.00236733
5624.40229980,0.00246208
5626.33110718,0.00241865
5628.25991455,0.00240836
5630.18872192,0.00245110
5632.11752930,0.00236398
5634.04633667,0.00235761
5635.97514404,0.00238238
5637.90395142,0.00238610
5639.83275879,0.00230411
5641.76156616,0.00228139
5643.69037353,0.00238980
5645.61918091,0.00234026
5647.54798828,0.00237565
5649.47679565,0.00242678
5651.40560303,0.00233280
5653.33441040,0.00234711
5655.26321777,0.00236677
5657.19202515,0.00233236
5659.12083252,0.00231578
5661.04963989,0.00232749
5662.97844727,0.00229219
5664.90725464,0.00226041
5666.83606201,0.00227157
5668.76486938,0.00219986
5670.69367676,0.00220810
5672.62248413,0.00226727
5674.55129150,0.00224108
5676.48009888,0.00226699
5678.40890625,0.00229375
5680.33771362,0.00222050
5682.26652100,0.00221369
5684.19532837,0.00225572
5686.12413574,0.00220715
5688.05294311,0.00225458
5689.98175049,0.00223099
5691.91055786,0.00212191
5693.83936523,0.00221188
5695.76817261,0.00221161
5697.69697998,0.00216548
5699.62578735,0.00213511
5701.55459473,0.00207778
5703.48340210,0.00219503
5705.41220947,0.00218526
5707.34101685,0.00211562
5709.26982422,0.00217314
5711.19863159,0.00213506
5713.12743896,0.00210655
5715.05624634,0.00210845
5716.98505371,0.00209605
5718.91386108,0.00209126
5720.84266846,0.00210997
5722.77147583,0.00212708
5724.70028320,0.00207745
5726.62909058,0.00210502
5728.55789795,0.00209774
5730.48670532,0.00207839
5732.41551270,0.00213127
5734.34432007,0.00205805
5736.27312744,0.00205966
5738.20193481,0.00210227
5740.13074219,0.00204342
5742.05954956,0.00203427
5743.98835693,0.00208484
5745.91716431,0.00212103
5747.84597168,0.00205263
5749.77477905,0.00202802
5751.70358643,0.00205567
5753.63239380,0.00205025
5755.56120117,0.00205428
5757.49000854,0.00203048
5759.41881592,0.00195572
5761.34762329,0.00191296
5763.27643066,0.00202480
5765.20523804,0.00203453
5767.13404541,0.00197818
5769.06285278,0.00196410
5770.99166016,0.00192395
5772.92046753,0.00199125
5774.84927490,0.00198238
5776.77808228,0.00198479
5778.70688965,0.00195264
5780.63569702,0.00190648
5782.56450439,0.00199045
5784.49331177,0.00196981
5786.42211914,0.00198161
5788.35092651,0.00192036
5790.27973389,0.00190930
5792.20854126,0.00198635
5794.13734863,0.00191410
5796.06615601,0.00192991
5797.99496338,0.00195465
5799.92377075,0.00193973
5801.85257812,0.00193424
5803.78138550,0.00192972
5805.71019287,0.00186339
5807.63900024,0.00190505
5809.56780762,0.00197463
5811.49661499,0.00186320
5813.42542236,0.00191687
5815.35422974,0.00185600
5817.28303711,0.00181485
5819.21184448,0.00189279
5821.14065186,0.00183185
5823.06945923,0.00186152
5824.99826660,0.00184765
5826.92707397,0.00187666
5828.85588135,0.00182122
5830.78468872,0.00180768
5832.71349609,0.00187417
5834.64230347,0.00183044
5836.57111084,0.00187612
5838.49991821,0.00177107
5840.42872559,0.00181774
5842.35753296,0.00185667
5844.28634033,0.00177901
5846.21514770,0.00183641
5848.14395508,0.00175141
5850.07276245,0.00179119
5852.00156982,0.00180219
5853.93037720,0.00181055
5855.85918457,0.00181611
5857.78799194,0.00171715
5859.71679932,0.00178560
5861.64560669,0.00177466
5863.57441406,0.00177987
5865.50322144,0.00171075
5867.43202881,0.00162344
5869.36083618,0.00174881
5871.28964355,0.00176812
5873.21845093,0.00169170
5875.14725830,0.00166721
5877.07606567,0.00171796
5879.00487305,0.00173433
5880.93368042,0.00175230
5882.86248779,0.00175056
5884.79129517,0.00172960
5886.72010254,0.00177396
5888.64890991,0.00171606
5890.57771728,0.00169330
5892.50652466,0.00171563
5894.43533203,0.00168624
5896.36413940,0.00169500
5898.29294678,0.00169709
5900.22175415,0.00166472
5902.15056152,0.00168002
5904.07936890,0.00173137
5906.00817627,0.00166166
5907.93698364,0.00164160
5909.86579102,0.00168584
5911.79459839,0.00161919
5913.72340576,0.00163325
5915.65221313,0.00167669
5917.58102051,0.00163904
5919.50982788,0.00163568
5921.43863525,0.00161280
5923.36744263,0.00157922
5925.29625000,0.00159457
5927.22505737,0.00160893
5929.15386475,0.00162600
5931.08267212,0.00159188
5933.01147949,0.00158056
5934.94028686,0.00161557
5936.86909424,0.00161042
5938.79790161,0.00165986
5940.72670898,0.00162189
5942.65551636,0.00153053
5944.58432373,0.00154190
5946.51313110,0.00151942
5948.44193848,0.00153485
5950.37074585,0.00157084
5952.29955322,0.00153894
5954.22836060,0.00155693
5956.15716797,0.00156451
5958.08597534,0.00152861
5960.01478271,0.00158267
5961.94359009,0.00160188
5963.87239746,0.00152370
5965.80120483,0.00153420
5967.73001221,0.00157756
5969.65881958,0.00153204
5971.58762695,0.00150202
5973.51643433,0.00150634
5975.44524170,0.00151924
5977.37404907,0.00158571
5979.30285645,0.00151720
5981.23166382,0.00146978
5983.16047119,0.00155792
5985.08927856,0.00149120
5987.01808594,0.00148755
5988.94689331,0.00151168
5990.87570068,0.00145090
5992.80450806,0.00146504
5994.73331543,0.00148340
5996.66212280,0.00151527
5998.59093018,0.00149879
6000.51973755,0.00148051
