399.26312622,0.00052371
401.19193359,0.00019457
403.12074097,0.00071538
405.04954834,0.00009522
406.97835571,0.00016592
408.90716309,0.00044255
410.83597046,0.00019444
412.76477783,0.00026895
414.69358521,0.00019359
416.62239258,0.00032204
418.55119995,0.00067394
420.48000732,0.00063553
422.40881470,0.00042985
424.33762207,0.00053593
426.26642944,0.00037760
428.19523682,0.00055135
430.12404419,0.00069050
432.05285156,0.00027774
433.98165894,0.00044849
435.91046631,0.00039212
437.83927368,0.00026900
439.76808105,0.00046788
441.69688843,0.00037224
443.62569580,0.00061456
445.55450317,0.00051442
447.48331055,-0.00009070
449.41211792,0.00007733
451.34092529,0.00036802
453.26973267,0.00030864
455.19854004,0.00031775
457.12734741,0.00039777
459.05615479,0.00063382
460.98496216,0.00032917
462.91376953,0.00006628
464.84257690,0.00034019
466.77138428,0.00021931
468.70019165,0.00021995
470.62899902,0.00031593
472.55780640,0.00043429
474.48661377,0.00041009
476.41542114,0.00008842
478.34422852,0.00015978
480.27303589,-0.00001843
482.20184326,0.00006655
484.13065063,0.00023149
486.05945801,-0.00011279
487.98826538,0.00012267
489.91707275,0.00007103
491.84588013,-0.00014190
493.77468750,0.00010739
495.70349487,0.00049229
497.63230225,0.00066620
499.56110962,-0.00003957
501.48991699,-0.00010197
503.41872437,0.00010019
505.34753174,-0.00014109
507.27633911,0.00036180
509.20514648,0.00016872
511.13395386,-0.00043732
513.06276123,-0.00015240
514.99156860,0.00012756
516.92037598,0.00021222
518.84918335,0.00043142
520.77799072,0.00016905
522.70679810,-0.00020106
524.63560547,0.00003129
526.56441284,0.00012647
528.49322021,0.00004648
530.42202759,0.00034553
532.35083496,0.00062331
534.27964233,-0.00015542
536.20844971,-0.00014986
538.13725708,0.00036404
540.06606445,0.00009204
541.99487183,0.00044337
543.92367920,0.00013517
545.85248657,-0.00007538
547.78129395,0.00030048
549.71010132,0.00002602
551.63890869,0.00008899
553.56771606,-0.00008906
555.49652344,-0.00017906
557.42533081,0.00040178
559.35413818,0.00075824
561.28294556,0.00020109
563.21175293,-0.00017877
565.14056030,0.00016774
567.06936768,-0.00000306
568.99817505,-0.00000199
570.92698242,0.00011561
572.85578979,-0.00012709
574.78459717,0.00002168
576.71340454,0.00017882
578.64221191,-0.00012917
580.57101929,-0.00037851
582.49982666,0.00003849
584.42863403,0.00039753
586.35744141,0.00020562
588.28624878,0.00001116
590.21505615,-0.00021525
592.14386353,-0.00014572
594.07267090,0.00026471
596.00147827,0.00014115
597.93028564,0.00005028
599.85909302,0.00035903
601.78790039,-0.00002439
603.71670776,0.00028761
605.64551514,0.00042722
607.57432251,-0.00000932
609.50312988,0.00023924
611.43193726,0.00004910
613.36074463,-0.00009951
615.28955200,0.00006919
617.21835938,0.00000554
619.14716675,-0.00006217
621.07597412,0.00011692
623.00478149,0.00014532
624.93358887,0.00006766
626.86239624,0.00001307
628.79120361,0.00000176
630.72001099,0.00017888
632.64881836,0.00031273
634.57762573,0.00031557
636.50643311,-0.00020281
638.43524048,0.00007134
640.36404785,0.00082009
642.29285522,0.00056042
644.22166260,0.00050894
646.15046997,0.00061535
648.07927734,0.00055755
650.00808472,0.00100327
651.93689209,0.00093114
653.86569946,0.00056525
655.79450684,0.00085238
657.72331421,0.00081888
659.65212158,0.00041765
661.58092896,0.00053191
663.50973633,0.00111244
665.43854370,0.00104213
667.36735107,0.00090765
669.29615845,0.00097040
671.22496582,0.00061757
673.15377319,0.00117575
675.08258057,0.00142926
677.01138794,0.00102028
678.94019531,0.00111478
680.86900269,0.00113853
682.79781006,0.00125485
684.72661743,0.00127571
686.65542480,0.00128485
688.58423218,0.00118804
690.51303955,0.00111220
692.44184692,0.00126749
694.37065430,0.00138129
696.29946167,0.00153161
698.22826904,0.00164553
700.15707642,0.00193436
702.08588379,0.00177677
704.01469116,0.00151993
705.94349854,0.00132400
707.87230591,0.00093416
709.80111328,0.00085540
711.72992065,0.00064790
713.65872803,0.00046995
715.58753540,0.00021259
717.51634277,0.00030371
719.44515015,0.00042344
721.37395752,0.00002872
723.30276489,0.00005470
725.23157227,0.00004408
727.16037964,-0.00005835
729.08918701,-0.00007253
731.01799438,-0.00000755
732.94680176,-0.00018588
734.87560913,0.00016088
736.80441650,0.00036383
738.73322388,0.00003906
740.66203125,0.00020213
742.59083862,0.00018405
744.51964600,0.00019986
746.44845337,0.00006667
748.37726074,0.00001575
750.30606812,0.00009702
752.23487549,0.00010208
754.16368286,0.00033201
756.09249023,0.00039126
758.02129761,0.00011300
759.95010498,0.00010465
761.87891235,0.00029665
763.80771973,0.00010367
765.73652710,-0.00007433
767.66533447,0.00025494
769.59414185,0.00034792
771.52294922,0.00009090
773.45175659,0.00022569
775.38056396,0.00041700
777.30937134,0.00014137
779.23817871,0.00008481
781.16698608,0.00005505
783.09579346,-0.00019561
785.02460083,0.00006748
786.95340820,0.00028579
788.88221558,0.00031079
790.81102295,0.00010430
792.73983032,0.00000500
794.66863770,0.00018548
796.59744507,0.00008398
798.52625244,0.00023935
800.45505981,0.00000081
802.38386719,-0.00002318
804.31267456,0.00018877
806.24148193,0.00007052
808.17028931,0.00038264
810.09909668,0.00036862
812.02790405,0.00034112
813.95671143,0.00004207
815.88551880,0.00010570
817.81432617,0.00048903
819.74313354,0.00003379
821.67194092,0.00016224
823.60074829,0.00021788
825.52955566,0.00003693
827.45836304,0.00008406
829.38717041,0.00005738
831.31597778,0.00035780
833.24478516,0.00043208
835.17359253,0.00049160
837.10239990,0.00051980
839.03120728,0.00042361
840.96001465,0.00040520
842.88882202,0.00027350
844.81762939,0.00001002
846.74643677,0.00012113
848.67524414,0.00043098
850.60405151,0.00024035
852.53285889,0.00024349
854.46166626,0.00025472
856.39047363,0.00032739
858.31928101,0.00050326
860.24808838,0.00039718
862.17689575,0.00024887
864.10570313,0.00006487
866.03451050,0.00026499
867.96331787,0.00034195
869.89212524,0.00029635
871.82093262,0.00019877
873.74973999,0.00026000
875.67854736,0.00033101
877.60735474,-0.00002547
879.53616211,0.00023680
881.46496948,0.00028621
883.39377686,0.00025241
885.32258423,0.00041932
887.25139160,0.00007175
889.18019897,0.00031264
891.10900635,0.00036325
893.03781372,0.00031653
894.96662109,0.00044119
896.89542847,0.00016361
898.82423584,0.00031495
900.75304321,0.00048711
902.68185059,0.00024382
904.61065796,0.00007526
906.53946533,0.00049592
908.46827271,0.00057465
910.39708008,0.00027502
912.32588745,0.00031472
914.25469482,0.00023001
916.18350220,0.00018714
918.11230957,0.00016052
920.04111694,0.00029561
921.96992432,0.00023558
923.89873169,0.00011287
925.82753906,0.00024385
927.75634644,0.00044259
929.68515381,0.00062227
931.61396118,0.00034585
933.54276855,0.00050971
935.47157593,0.00082834
937.40038330,0.00071271
939.32919067,0.00057443
941.25799805,0.00063857
943.18680542,0.00075625
945.11561279,0.00043365
947.04442017,0.00052601
948.97322754,0.00077825
950.90203491,0.00076923
952.83084229,0.00068036
954.75964966,0.00061015
956.68845703,0.00085550
958.61726440,0.00067609
960.54607178,0.00065934
962.47487915,0.00079583
964.40368652,0.00081225
966.33249390,0.00089051
968.26130127,0.00065229
970.19010864,0.00097657
972.11891602,0.00112314
974.04772339,0.00102055
975.97653076,0.00117138
977.90533813,0.00091990
979.83414551,0.00116359
981.76295288,0.00135124
983.69176025,0.00123132
985.62056763,0.00129079
987.54937500,0.00134873
989.47818237,0.00195767
991.40698975,0.00209287
993.33579712,0.00193583
995.26460449,0.00229102
997.19341187,0.00241975
999.12221924,0.00278882
1001.05102661,0.00303821
1002.97983398,0.00308812
1004.90864136,0.00345096
1006.83744873,0.00326544
1008.76625610,0.00342467
1010.69506348,0.00411741
1012.62387085,0.00416981
1014.55267822,0.00442435
1016.48148560,0.00461334
1018.41029297,0.00474626
1020.33910034,0.00520561
1022.26790771,0.00507590
1024.19671509,0.00532766
1026.12552246,0.00560757
1028.05432983,0.00558521
1029.98313721,0.00611097
1031.91194458,0.00619837
1033.84075195,0.00621077
1035.76955933,0.00642586
1037.69836670,0.00640745
1039.62717407,0.00633340
1041.55598145,0.00632630
1043.48478882,0.00644801
1045.41359619,0.00645205
1047.34240356,0.00628102
1049.27121094,0.00594387
1051.20001831,0.00603003
1053.12882568,0.00597416
1055.05763306,0.00568778
1056.98644043,0.00576369
1058.91524780,0.00555973
1060.84405518,0.00554453
1062.77286255,0.00527819
1064.70166992,0.00505610
1066.63047729,0.00515473
1068.55928467,0.00475315
1070.48809204,0.00454749
1072.41689941,0.00424595
1074.34570679,0.00415366
1076.27451416,0.00400871
1078.20332153,0.00359418
1080.13212891,0.00370820
1082.06093628,0.00347467
1083.98974365,0.00332111
1085.91855103,0.00329239
1087.84735840,0.00302146
1089.77616577,0.00300192
1091.70497314,0.00282163
1093.63378052,0.00264666
1095.56258789,0.00250968
1097.49139526,0.00233594
1099.42020264,0.00251010
1101.34901001,0.00255920
1103.27781738,0.00225056
1105.20662476,0.00226231
1107.13543213,0.00233624
1109.06423950,0.00209867
1110.99304687,0.00211729
1112.92185425,0.00230670
1114.85066162,0.00235648
1116.77946899,0.00226375
1118.70827637,0.00217429
1120.63708374,0.00223405
1122.56589111,0.00231057
1124.49469849,0.00240702
1126.42350586,0.00233366
1128.35231323,0.00222182
1130.28112061,0.00243480
1132.20992798,0.00259550
1134.13873535,0.00250096
1136.06754272,0.00260566
1137.99635010,0.00294510
1139.92515747,0.00300889
1141.85396484,0.00304016
1143.78277222,0.00330893
1145.71157959,0.00352403
1147.64038696,0.00382684
1149.56919434,0.00390918
1151.49800171,0.00392868
1153.42680908,0.00436247
1155.35561646,0.00449975
1157.28442383,0.00470497
1159.21323120,0.00516351
1161.14203857,0.00513591
1163.07084595,0.00511742
1164.99965332,0.00556211
1166.92846069,0.00594812
1168.85726807,0.00588245
1170.78607544,0.00610320
1172.71488281,0.00635198
1174.64369019,0.00644738
1176.57249756,0.00695468
1178.50130493,0.00710279
1180.43011230,0.00737342
1182.35891968,0.00783574
1184.28772705,0.00817332
1186.21653442,0.00868221
1188.14534180,0.00886769
1190.07414917,0.00919704
1192.00295654,0.00970984
1193.93176392,0.01026950
1195.86057129,0.01076088
1197.78937866,0.01124219
1199.71818604,0.01182782
1201.64699341,0.01211026
1203.57580078,0.01263113
1205.50460815,0.01314939
1207.43341553,0.01370534
1209.36222290,0.01415581
1211.29103027,0.01437613
1213.21983765,0.01507517
1215.14864502,0.01543664
1217.07745239,0.01559778
1219.00625977,0.01597618
1220.93506714,0.01627429
1222.86387451,0.01635199
1224.79268188,0.01631892
1226.72148926,0.01663172
1228.65029663,0.01680719
1230.57910400,0.01688058
1232.50791138,0.01708296
1234.43671875,0.01706867
1236.36552612,0.01694342
1238.29433350,0.01689044
1240.22314087,0.01671006
1242.15194824,0.01664800
1244.08075562,0.01683521
1246.00956299,0.01667921
1247.93837036,0.01655672
1249.86717773,0.01649819
1251.79598511,0.01641728
1253.72479248,0.01646871
1255.65359985,0.01614427
1257.58240723,0.01579034
1259.51121460,0.01565279
1261.44002197,0.01550406
1263.36882935,0.01523643
1265.29763672,0.01505465
1267.22644409,0.01498435
1269.15525146,0.01469652
1271.08405884,0.01461153
1273.01286621,0.01450231
1274.94167358,0.01399393
1276.87048096,0.01389473
1278.79928833,0.01389961
1280.72809570,0.01350743
1282.65690308,0.01328547
1284.58571045,0.01289292
1286.51451782,0.01264726
1288.44332520,0.01261952
1290.37213257,0.01230837
1292.30093994,0.01221949
1294.22974731,0.01196287
1296.15855469,0.01199561
1298.08736206,0.01223608
1300.01616943,0.01217289
1301.94497681,0.01231419
1303.87378418,0.01232172
1305.80259155,0.01247404
1307.73139893,0.01252363
1309.66020630,0.01273473
1311.58901367,0.01323104
1313.51782104,0.01341326
1315.44662842,0.01375578
1317.37543579,0.01406467
1319.30424316,0.01441980
1321.23305054,0.01469370
1323.16185791,0.01517807
1325.09066528,0.01581698
1327.01947266,0.01611774
1328.94828003,0.01652497
1330.87708740,0.01695739
1332.80589478,0.01765931
1334.73470215,0.01790828
1336.66350952,0.01791294
1338.59231689,0.01785351
1340.52112427,0.01784912
1342.44993164,0.01883195
1344.37873901,0.01902289
1346.30754639,0.01898757
1348.23635376,0.01902651
1350.16516113,0.01871111
1352.09396851,0.01898408
1354.02277588,0.01855219
1355.95158325,0.01834002
1357.88039062,0.01854877
1359.80919800,0.01808945
1361.73800537,0.01722808
1363.66681274,0.01698481
1365.59562012,0.01784308
1367.52442749,0.01750742
1369.45323486,0.01739716
1371.38204224,0.01779466
1373.31084961,0.01679425
1375.23965698,0.01678147
1377.16846436,0.01744274
1379.09727173,0.01739638
1381.02607910,0.01730528
1382.95488647,0.01760796
1384.88369385,0.01741520
1386.81250122,0.01646062
1388.74130859,0.01692098
1390.67011597,0.01816096
1392.59892334,0.01776317
1394.52773071,0.01687695
1396.45653809,0.01763409
1398.38534546,0.01754445
1400.31415283,0.01752023
1402.24296021,0.01880754
1404.17176758,0.01777560
1406.10057495,0.01796318
1408.02938232,0.01864866
1409.95818970,0.01800416
1411.88699707,0.01832842
1413.81580444,0.01775153
1415.74461182,0.01802548
1417.67341919,0.01645076
1419.60222656,0.01494319
1421.53103394,0.01669970
1423.45984131,0.01620829
1425.38864868,0.01591995
1427.31745605,0.01598927
1429.24626343,0.01504035
1431.17507080,0.01458710
1433.10387817,0.01454029
1435.03268555,0.01358825
1436.96149292,0.01170848
1438.89030029,0.01307205
1440.81910767,0.01333823
1442.74791504,0.01234629
1444.67672241,0.01309036
1446.60552979,0.01216140
1448.53433716,0.01221067
1450.46314453,0.01235886
1452.39195190,0.01262484
1454.32075928,0.01331639
1456.24956665,0.01117150
1458.17837402,0.01169060
1460.10718140,0.01520297
1462.03598877,0.01633332
1463.96479614,0.01636288
1465.89360352,0.01695052
1467.82241089,0.01938274
1469.75121826,0.02052464
1471.68002563,0.01845964
1473.60883301,0.01968286
1475.53764038,0.02205586
1477.46644775,0.02363861
1479.39525513,0.02605857
1481.32406250,0.02660175
1483.25286987,0.02817526
1485.18167725,0.02906631
1487.11048462,0.02878232
1489.03929199,0.02853220
1490.96809937,0.02868883
1492.89690674,0.03323010
1494.82571411,0.03248146
1496.75452148,0.02940803
1498.68332886,0.03307148
1500.61213623,0.03410853
1502.54094360,0.03666520
1504.46975098,0.03463217
1506.39855835,0.02540449
1508.32736572,0.03096341
1510.25617310,0.03627079
1512.18498047,0.03517104
1514.11378784,0.03797010
1516.04259521,0.03438774
1517.97140259,0.03589254
1519.90020996,0.03458772
1521.82901733,0.03030420
1523.75782471,0.03688537
1525.68663208,0.03610797
1527.61543945,0.03609868
1529.54424683,0.03961825
1531.47305420,0.03825536
1533.40186157,0.03545700
1535.33066895,0.03735647
1537.25947632,0.03998672
1539.18828369,0.02917617
1541.11709106,0.03049565
1543.04589844,0.03621374
1544.97470581,0.03477062
1546.90351318,0.04095475
1548.83232056,0.03820632
1550.76112793,0.03939748
1552.68993530,0.03922158
1554.61874268,0.03575028
1556.54755005,0.03811692
1558.47635742,0.02725561
1560.40516479,0.02949883
1562.33397217,0.04119527
1564.26277954,0.03915669
1566.19158691,0.04045392
1568.12039429,0.03973144
1570.04920166,0.03555898
1571.97800903,0.04094977
1573.90681641,0.04120872
1575.83562378,0.03318401
1577.76443115,0.03738485
1579.69323853,0.04201677
1581.62204590,0.04035612
1583.55085327,0.04135043
1585.47966064,0.04077187
1587.40846802,0.04105969
1589.33727539,0.04073147
1591.26608276,0.04070125
1593.19489014,0.04102040
1595.12369751,0.04058158
1597.05250488,0.04099254
1598.98131226,0.04091999
1600.91011963,0.04098215
1602.83892700,0.04040374
1604.76773437,0.04128553
1606.69654175,0.04060680
1608.62534912,0.04053269
1610.55415649,0.04037248
1612.48296387,0.04083587
1614.41177124,0.04139981
1616.34057861,0.03408346
1618.26938599,0.03704753
1620.19819336,0.04267765
1622.12700073,0.03812152
1624.05580811,0.03834574
1625.98461548,0.04000226
1627.91342285,0.03999647
1629.84223022,0.03986856
1631.77103760,0.04237816
1633.69984497,0.03924108
1635.62865234,0.03279908
1637.55745972,0.03797824
1639.48626709,0.04163666
1641.41507446,0.04051860
1643.34388184,0.04159381
1645.27268921,0.03768392
1647.20149658,0.03333646
1649.13030396,0.04126638
1651.05911133,0.03889012
1652.98791870,0.02556232
1654.91672607,0.03457507
1656.84553345,0.04285577
1658.77434082,0.04097968
1660.70314819,0.04217505
1662.63195557,0.03871616
1664.56076294,0.04060014
1666.48957031,0.04340231
1668.41837769,0.03823925
1670.34718506,0.03725538
1672.27599243,0.04216502
1674.20479980,0.03897072
1676.13360718,0.03747047
1678.06241455,0.04285331
1679.99122192,0.04114583
1681.92002930,0.04087106
1683.84883667,0.03357529
1685.77764404,0.03337005
1687.70645142,0.04515711
1689.63525879,0.03937234
1691.56406616,0.04325252
1693.49287354,0.04374834
1695.42168091,0.03231806
1697.35048828,0.03985894
1699.27929565,0.03521899
1701.20810303,0.03205856
1703.13691040,0.04311053
1705.06571777,0.03951330
1706.99452515,0.04000559
1708.92333252,0.04332661
1710.85213989,0.04140950
1712.78094727,0.04228005
1714.70975464,0.03944230
1716.63856201,0.03539135
1718.56736938,0.03505343
1720.49617676,0.04126598
1722.42498413,0.04254416
1724.35379150,0.03982346
1726.28259888,0.04318467
1728.21140625,0.03997101
1730.14021362,0.04051640
1732.06902100,0.03934409
1733.99782837,0.03040321
1735.92663574,0.03759100
1737.85544312,0.04133329
1739.78425049,0.03710472
1741.71305786,0.04019972
1743.64186523,0.04069262
1745.57067261,0.04076802
1747.49947998,0.04101738
1749.42828735,0.03928523
1751.35709473,0.03770564
1753.28590210,0.04175641
1755.21470947,0.04353813
1757.14351685,0.03999653
1759.07232422,0.04395381
1761.00113159,0.04127108
1762.92993896,0.04012470
1764.85874634,0.04556116
1766.78755371,0.04099570
1768.71636108,0.04155702
1770.64516846,0.04115196
1772.57397583,0.03723904
1774.50278320,0.04169338
1776.43159058,0.04375523
1778.36039795,0.04312864
1780.28920532,0.04273362
1782.21801270,0.04305727
1784.14682007,0.04309923
1786.07562744,0.04222529
1788.00443481,0.04429397
1789.93324219,0.04328161
1791.86204956,0.03940096
1793.79085693,0.04112139
1795.71966431,0.04383766
1797.64847168,0.04331338
1799.57727905,0.04281186
1801.50608643,0.04210284
1803.43489380,0.04354277
1805.36370117,0.04452833
1807.29250854,0.04391978
1809.22131592,0.04398404
1811.15012329,0.04295180
1813.07893066,0.04428349
1815.00773804,0.04433309
1816.93654541,0.04401499
1818.86535278,0.04448871
1820.79416016,0.04424727
1822.72296753,0.04493865
1824.65177490,0.04206548
1826.58058228,0.04352010
1828.50938965,0.04376313
1830.43819702,0.04120879
1832.36700439,0.04466657
1834.29581177,0.04434727
1836.22461914,0.04421661
1838.15342651,0.04413606
1840.08223389,0.04454520
1842.01104126,0.04451070
1843.93984863,0.03965319
1845.86865601,0.04234371
1847.79746338,0.04455120
1849.72627075,0.04372061
1851.65507812,0.04504091
1853.58388550,0.04408924
1855.51269287,0.04464403
1857.44150024,0.04430665
1859.37030762,0.04409378
1861.29911499,0.04450075
1863.22792236,0.04393949
1865.15672974,0.04446746
1867.08553711,0.04305100
1869.01434448,0.04143132
1870.94315186,0.04299545
1872.87195923,0.04463975
1874.80076660,0.04399818
1876.72957397,0.04401432
1878.65838135,0.04398686
1880.58718872,0.04382873
1882.51599609,0.04422566
1884.44480347,0.04361408
1886.37361084,0.04425862
1888.30241821,0.04330335
1890.23122559,0.04244175
1892.16003296,0.04409937
1894.08884033,0.04348940
1896.01764771,0.04329717
1897.94645508,0.04383398
1899.87526245,0.04361182
1901.80406982,0.04374635
1903.73287720,0.04354862
1905.66168457,0.04383084
1907.59049194,0.04343449
1909.51929932,0.04310630
1911.44810669,0.04327019
1913.37691406,0.04339665
1915.30572144,0.04373560
1917.23452881,0.04181079
1919.16333618,0.04207234
1921.09214355,0.04360299
1923.02095093,0.04233089
1924.94975830,0.04334230
1926.87856567,0.04366231
1928.80737305,0.04319450
1930.73618042,0.04374957
1932.66498779,0.04312866
1934.59379517,0.04361435
1936.52260254,0.04317597
1938.45140991,0.04333577
1940.38021729,0.04354111
1942.30902466,0.04211763
1944.23783203,0.04294718
1946.16663940,0.04334778
1948.09544678,0.04320427
1950.02425415,0.04355342
1951.95306152,0.04335441
1953.88186890,0.04341334
1955.81067627,0.04329739
1957.73948364,0.04332750
1959.66829102,0.04336484
1961.59709839,0.04342306
1963.52590576,0.04356644
1965.45471313,0.04324751
1967.38352051,0.04280762
1969.31232788,0.04323387
1971.24113525,0.04348827
1973.16994263,0.04323469
1975.09875000,0.04344040
1977.02755737,0.04329126
1978.95636475,0.04354166
1980.88517212,0.04338955
1982.81397949,0.04310534
1984.74278687,0.04339388
1986.67159424,0.04299566
1988.60040161,0.04316809
1990.52920898,0.04284378
1992.45801636,0.04238393
1994.38682373,0.04300252
1996.31563110,0.04313092
1998.24443848,0.04295979
2000.17324585,0.04285225
2002.10205322,0.04277832
2004.03086060,0.04277101
2005.95966797,0.04274312
2007.88847534,0.04260299
2009.81728271,0.04265544
2011.74609009,0.04264180
2013.67489746,0.04252911
2015.60370483,0.04230561
2017.53251221,0.04191638
2019.46131958,0.04227061
2021.39012695,0.04233150
2023.31893433,0.04224831
2025.24774170,0.04222983
2027.17654907,0.04185720
2029.10535645,0.04200181
2031.03416382,0.04207102
2032.96297119,0.04191545
2034.89177856,0.04167064
2036.82058594,0.04179535
2038.74939331,0.04177769
2040.67820068,0.04141381
2042.60700806,0.04162839
2044.53581543,0.04163818
2046.46462280,0.04158214
2048.39343018,0.04137648
2050.32223755,0.04126153
2052.25104492,0.04146167
2054.17985229,0.04132341
2056.10865967,0.04122343
2058.03746704,0.04110142
2059.96627441,0.04110549
2061.89508179,0.04107908
2063.82388916,0.04083108
2065.75269653,0.04074755
2067.68150391,0.04093625
2069.61031128,0.04096485
2071.53911865,0.04078775
2073.46792603,0.04079664
2075.39673340,0.04060561
2077.32554077,0.04056798
2079.25434814,0.04060957
2081.18315552,0.04062282
2083.11196289,0.04066395
2085.04077026,0.04036859
2086.96957764,0.04039367
2088.89838501,0.04042314
2090.82719238,0.04028187
2092.75599976,0.04034967
2094.68480713,0.04032701
2096.61361450,0.04017315
2098.54242187,0.04007634
2100.47122925,0.04014669
2102.40003662,0.04007024
2104.32884399,0.03989718
2106.25765137,0.03989491
2108.18645874,0.03994111
2110.11526611,0.03996442
2112.04407349,0.03999353
2113.97288086,0.03985751
2115.90168823,0.03971971
2117.83049561,0.03975624
2119.75930298,0.03970985
2121.68811035,0.03973446
2123.61691772,0.03977760
2125.54572510,0.03973718
2127.47453247,0.03960588
2129.40333984,0.03951626
2131.33214722,0.03956452
2133.26095459,0.03951668
2135.18976196,0.03947354
2137.11856934,0.03936452
2139.04737671,0.03939819
2140.97618408,0.03945672
2142.90499146,0.03935286
2144.83379883,0.03936639
2146.76260620,0.03930837
2148.69141357,0.03925476
2150.62022095,0.03921680
2152.54902832,0.03927676
2154.47783569,0.03941179
2156.40664307,0.03934086
2158.33545044,0.03918128
2160.26425781,0.03914230
2162.19306519,0.03924254
2164.12187256,0.03919303
2166.05067993,0.03908530
2167.97948730,0.03912867
2169.90829468,0.03915351
2171.83710205,0.03901057
2173.76590942,0.03900442
2175.69471680,0.03907334
2177.62352417,0.03897671
2179.55233154,0.03900346
2181.48113892,0.03898666
2183.40994629,0.03897100
2185.33875366,0.03892646
2187.26756104,0.03889150
2189.19636841,0.03894456
2191.12517578,0.03879301
2193.05398315,0.03880199
2194.98279053,0.03885214
2196.91159790,0.03884453
2198.84040527,0.03882720
2200.76921265,0.03870121
2202.69802002,0.03875225
2204.62682739,0.03876869
2206.55563477,0.03870291
2208.48444214,0.03872228
2210.41324951,0.03866313
2212.34205688,0.03853879
2214.27086426,0.03850357
2216.19967163,0.03846226
2218.12847900,0.03851052
2220.05728638,0.03847527
2221.98609375,0.03830108
2223.91490112,0.03846634
2225.84370850,0.03847154
2227.77251587,0.03831011
2229.70132324,0.03835436
2231.63013062,0.03831317
2233.55893799,0.03827678
2235.48774536,0.03824973
2237.41655273,0.03822432
2239.34536011,0.03823085
2241.27416748,0.03811411
2243.20297485,0.03801680
2245.13178223,0.03808338
2247.06058960,0.03796469
2248.98939697,0.03795753
2250.91820435,0.03805801
2252.84701172,0.03782570
2254.77581909,0.03781052
2256.70462646,0.03782665
2258.63343384,0.03781644
2260.56224121,0.03782314
2262.49104858,0.03765335
2264.41985596,0.03760888
2266.34866333,0.03763252
2268.27747070,0.03778666
2270.20627808,0.03764863
2272.13508545,0.03754596
2274.06389282,0.03775048
2275.99270020,0.03761892
2277.92150757,0.03763301
2279.85031494,0.03768783
2281.77912231,0.03753043
2283.70792969,0.03754796
2285.63673706,0.03752393
2287.56554443,0.03738870
2289.49435181,0.03732462
2291.42315918,0.03722422
2293.35196655,0.03717925
2295.28077393,0.03710363
2297.20958130,0.03701258
2299.13838867,0.03704011
2301.06719604,0.03680929
2302.99600342,0.03665071
2304.92481079,0.03642061
2306.85361816,0.03619127
2308.78242554,0.03612248
2310.71123291,0.03568535
2312.64004028,0.03552549
2314.56884766,0.03521756
2316.49765503,0.03467696
2318.42646240,0.03430647
2320.35526978,0.03381509
2322.28407715,0.03354067
2324.21288452,0.03315327
2326.14169189,0.03277205
2328.07049927,0.03231503
2329.99930664,0.03183507
2331.92811401,0.03175777
2333.85692139,0.03162872
2335.78572876,0.03150600
2337.71453613,0.03147645
2339.64334351,0.03142378
2341.57215088,0.03151802
2343.50095825,0.03203297
2345.42976562,0.03275081
2347.35857300,0.03409502
2349.28738037,0.03512056
2351.21618774,0.03393028
2353.14499512,0.03229487
2355.07380249,0.03118248
2357.00260986,0.03018724
2358.93141724,0.02973880
2360.86022461,0.02943995
2362.78903198,0.02935136
2364.71783936,0.02947509
2366.64664673,0.02975993
2368.57545410,0.03047561
2370.50426147,0.03139904
2372.43306885,0.03222000
2374.36187622,0.03312355
2376.29068359,0.03405868
2378.21949097,0.03476954
2380.14829834,0.03525455
2382.07710571,0.03553447
2384.00591309,0.03586679
2385.93472046,0.03596989
2387.86352783,0.03608976
2389.79233521,0.03625479
2391.72114258,0.03605120
2393.64994995,0.03606390
2395.57875732,0.03601394
2397.50756470,0.03592021
2399.43637207,0.03610425
2401.36517944,0.03606225
2403.29398682,0.03583515
2405.22279419,0.03578792
2407.15160156,0.03582732
2409.08040894,0.03579456
2411.00921631,0.03578197
2412.93802368,0.03567922
2414.86683105,0.03574235
2416.79563843,0.03573690
2418.72444580,0.03555851
2420.65325317,0.03570902
2422.58206055,0.03564527
2424.51086792,0.03547772
2426.43967529,0.03562649
2428.36848267,0.03559439
2430.29729004,0.03541256
2432.22609741,0.03551128
2434.15490479,0.03558885
2436.08371216,0.03554584
2438.01251953,0.03553095
2439.94132690,0.03538708
2441.87013428,0.03541874
2443.79894165,0.03542608
2445.72774902,0.03534335
2447.65655640,0.03529272
2449.58536377,0.03524213
2451.51417114,0.03536971
2453.44297852,0.03532165
2455.37178589,0.03525579
2457.30059326,0.03522036
2459.22940063,0.03518710
2461.15820801,0.03513211
2463.08701538,0.03501050
2465.01582275,0.03516776
2466.94463013,0.03512400
2468.87343750,0.03504424
2470.80224487,0.03511595
2472.73105225,0.03501112
2474.65985962,0.03491943
2476.58866699,0.03480750
2478.51747437,0.03484549
2480.44628174,0.03490575
2482.37508911,0.03479629
2484.30389648,0.03473981
2486.23270386,0.03476673
2488.16151123,0.03483753
2490.09031860,0.03475056
2492.01912598,0.03460544
2493.94793335,0.03466944
2495.87674072,0.03465021
2497.80554810,0.03462724
2499.73435547,0.03468044
2501.66316284,0.03448026
2503.59197021,0.03444897
2505.52077759,0.03458616
2507.44958496,0.03459350
2509.37839233,0.03451027
2511.30719971,0.03438236
2513.23600708,0.03441451
2515.16481445,0.03434200
2517.09362183,0.03430405
2519.02242920,0.03431946
2520.95123657,0.03422691
2522.88004395,0.03427338
2524.80885132,0.03425216
2526.73765869,0.03420848
2528.66646606,0.03426378
2530.59527344,0.03426734
2532.52408081,0.03416100
2534.45288818,0.03414401
2536.38169556,0.03407244
2538.31050293,0.03398745
2540.23931030,0.03412358
2542.16811768,0.03406351
2544.09692505,0.03413812
2546.02573242,0.03414750
2547.95453979,0.03388652
2549.88334717,0.03393855
2551.81215454,0.03387038
2553.74096191,0.03382625
2555.66976929,0.03396120
2557.59857666,0.03378920
2559.52738403,0.03373639
2561.45619141,0.03389705
2563.38499878,0.03381192
2565.31380615,0.03377589
2567.24261353,0.03371370
2569.17142090,0.03355961
2571.10022827,0.03360193
2573.02903564,0.03356164
2574.95784302,0.03364379
2576.88665039,0.03359505
2578.81545776,0.03341942
2580.74426514,0.03344741
2582.67307251,0.03333806
2584.60187988,0.03346660
2586.53068726,0.03350898
2588.45949463,0.03329299
2590.38830200,0.03325141
2592.31710937,0.03321009
2594.24591675,0.03318551
2596.17472412,0.03320134
2598.10353149,0.03316963
2600.03233887,0.03303451
2601.96114624,0.03316405
2603.88995361,0.03325474
2605.81876099,0.03302077
2607.74756836,0.03308599
2609.67637573,0.03310732
2611.60518311,0.03291691
2613.53399048,0.03303297
2615.46279785,0.03315012
2617.39160522,0.03296653
2619.32041260,0.03289143
2621.24921997,0.03288307
2623.17802734,0.03278179
2625.10683472,0.03275379
2627.03564209,0.03283221
2628.96444946,0.03289311
2630.89325684,0.03275101
2632.82206421,0.03272566
2634.75087158,0.03273360
2636.67967895,0.03261659
2638.60848633,0.03256886
2640.53729370,0.03262471
2642.46610107,0.03270584
2644.39490845,0.03254693
2646.32371582,0.03249802
2648.25252319,0.03248779
2650.18133057,0.03245351
2652.11013794,0.03246465
2654.03894531,0.03231587
2655.96775269,0.03234649
2657.89656006,0.03224427
2659.82536743,0.03217145
2661.75417480,0.03228701
2663.68298218,0.03223074
2665.61178955,0.03226410
2667.54059692,0.03223707
2669.46940430,0.03211805
2671.39821167,0.03216381
2673.32701904,0.03221862
2675.25582642,0.03204811
2677.18463379,0.03192982
2679.11344116,0.03193163
2681.04224854,0.03189596
2682.97105591,0.03190791
2684.89986328,0.03195138
2686.82867065,0.03198760
2688.75747803,0.03180336
2690.68628540,0.03170139
2692.61509277,0.03172760
2694.54390015,0.03170037
2696.47270752,0.03173655
2698.40151489,0.03168415
2700.33032227,0.03163023
2702.25912964,0.03157672
2704.18793701,0.03158656
2706.11674438,0.03157651
2708.04555176,0.03157031
2709.97435913,0.03149432
2711.90316650,0.03142218
2713.83197388,0.03150368
2715.76078125,0.03131984
2717.68958862,0.03144420
2719.61839600,0.03146537
2721.54720337,0.03121785
2723.47601074,0.03137030
2725.40481812,0.03134543
2727.33362549,0.03138874
2729.26243286,0.03128723
2731.19124023,0.03103473
2733.12004761,0.03109031
2735.04885498,0.03108937
2736.97766235,0.03101615
2738.90646973,0.03090946
2740.83527710,0.03096669
2742.76408447,0.03101145
2744.69289185,0.03100912
2746.62169922,0.03101118
2748.55050659,0.03085087
2750.47931396,0.03083731
2752.40812134,0.03089752
2754.33692871,0.03080711
2756.26573608,0.03069805
2758.19454346,0.03069188
2760.12335083,0.03062911
2762.05215820,0.03061639
2763.98096558,0.03068052
2765.90977295,0.03054598
2767.83858032,0.03038763
2769.76738770,0.03049766
2771.69619507,0.03057655
2773.62500244,0.03041520
2775.55380981,0.03043640
2777.48261719,0.03036671
2779.41142456,0.03027872
2781.34023193,0.03025442
2783.26903931,0.03005808
2785.19784668,0.03011378
2787.12665405,0.03010764
2789.05546143,0.03007106
2790.98426880,0.02998014
2792.91307617,0.02990945
2794.84188354,0.03002474
2796.77069092,0.02985773
2798.69949829,0.02987526
2800.62830566,0.02994636
2802.55711304,0.02985012
2804.48592041,0.02974190
2806.41472778,0.02967797
2808.34353516,0.02966512
2810.27234253,0.02949478
2812.20114990,0.02954617
2814.12995728,0.02955434
2816.05876465,0.02958605
2817.98757202,0.02966135
2819.91637939,0.02944119
2821.84518677,0.02936458
2823.77399414,0.02930810
2825.70280151,0.02931290
2827.63160889,0.02934107
2829.56041626,0.02919630
2831.48922363,0.02904101
2833.41803101,0.02901706
2835.34683838,0.02912556
2837.27564575,0.02901654
2839.20445312,0.02888472
2841.13326050,0.02883369
2843.06206787,0.02870824
2844.99087524,0.02860957
2846.91968262,0.02850337
2848.84848999,0.02845585
2850.77729736,0.02837862
2852.70610474,0.02830225
2854.63491211,0.02841086
2856.56371948,0.02835907
2858.49252686,0.02820172
2860.42133423,0.02829175
2862.35014160,0.02827207
2864.27894897,0.02816695
2866.20775635,0.02816002
2868.13656372,0.02808823
2870.06537109,0.02806287
2871.99417847,0.02809999
2873.92298584,0.02801795
2875.85179321,0.02791339
2877.78060059,0.02806150
2879.70940796,0.02803644
2881.63821533,0.02781490
2883.56702270,0.02779716
2885.49583008,0.02781660
2887.42463745,0.02780886
2889.35344482,0.02765755
2891.28225220,0.02777679
2893.21105957,0.02791639
2895.13986694,0.02760467
2897.06867432,0.02754573
2898.99748169,0.02751834
2900.92628906,0.02736898
2902.85509644,0.02739901
2904.78390381,0.02731097
2906.71271118,0.02720750
2908.64151855,0.02723221
2910.57032593,0.02712450
2912.49913330,0.02701071
2914.42794067,0.02697080
2916.35674805,0.02681413
2918.28555542,0.02679311
2920.21436279,0.02679905
2922.14317017,0.02669526
2924.07197754,0.02666751
2926.00078491,0.02665032
2927.92959229,0.02660437
2929.85839966,0.02659741
2931.78720703,0.02666432
2933.71601440,0.02656734
2935.64482178,0.02650116
2937.57362915,0.02661233
2939.50243652,0.02663916
2941.43124390,0.02653765
2943.36005127,0.02646787
2945.28885864,0.02658944
2947.21766602,0.02656775
2949.14647339,0.02652714
2951.07528076,0.02651138
2953.00408813,0.02638831
2954.93289551,0.02637355
2956.86170288,0.02624878
2958.79051025,0.02620313
2960.71931763,0.02622017
2962.64812500,0.02611154
2964.57693237,0.02607421
2966.50573975,0.02607848
2968.43454712,0.02610612
2970.36335449,0.02611171
2972.29216187,0.02610932
2974.22096924,0.02614539
2976.14977661,0.02614932
2978.07858398,0.02609296
2980.00739136,0.02618438
2981.93619873,0.02619141
2983.86500610,0.02605361
2985.79381348,0.02607009
2987.72262085,0.02602981
2989.65142822,0.02612500
2991.58023560,0.02612133
2993.50904297,0.02596802
2995.43785034,0.02600296
2997.36665771,0.02589282
2999.29546509,0.02586346
3001.22427246,0.02590688
3003.15307983,0.02591421
3005.08188721,0.02589012
3007.01069458,0.02579290
3008.93950195,0.02583877
3010.86830933,0.02570594
3012.79711670,0.02561496
3014.72592407,0.02570200
3016.65473145,0.02565009
3018.58353882,0.02563483
3020.51234619,0.02551777
3022.44115356,0.02547427
3024.36996094,0.02547506
3026.29876831,0.02531096
3028.22757568,0.02540755
3030.15638306,0.02535513
3032.08519043,0.02516915
3034.01399780,0.02522092
3035.94280518,0.02515094
3037.87161255,0.02512434
3039.80041992,0.02508554
3041.72922729,0.02502730
3043.65803467,0.02498411
3045.58684204,0.02491005
3047.51564941,0.02490751
3049.44445679,0.02476363
3051.37326416,0.02477472
3053.30207153,0.02479846
3055.23087891,0.02477227
3057.15968628,0.02478133
3059.08849365,0.02460397
3061.01730103,0.02464036
3062.94610840,0.02466628
3064.87491577,0.02458083
3066.80372314,0.02451047
3068.73253052,0.02447490
3070.66133789,0.02455984
3072.59014526,0.02446298
3074.51895264,0.02438746
3076.44776001,0.02434943
3078.37656738,0.02427992
3080.30537476,0.02427331
3082.23418213,0.02424981
3084.16298950,0.02426568
3086.09179687,0.02421888
3088.02060425,0.02417023
3089.94941162,0.02423011
3091.87821899,0.02416863
3093.80702637,0.02401046
3095.73583374,0.02404777
3097.66464111,0.02395527
3099.59344849,0.02380553
3101.52225586,0.02386068
3103.45106323,0.02377067
3105.37987061,0.02379644
3107.30867798,0.02383951
3109.23748535,0.02364614
3111.16629272,0.02363601
3113.09510010,0.02371398
3115.02390747,0.02353845
3116.95271484,0.02341953
3118.88152222,0.02349696
3120.81032959,0.02339444
3122.73913696,0.02329650
3124.66794434,0.02331099
3126.59675171,0.02327858
3128.52555908,0.02324606
3130.45436645,0.02318788
3132.38317383,0.02307387
3134.31198120,0.02303815
3136.24078857,0.02306486
3138.16959595,0.02291740
3140.09840332,0.02282032
3142.02721069,0.02279350
3143.95601807,0.02284812
3145.88482544,0.02283414
3147.81363281,0.02264776
3149.74244019,0.02272644
3151.67124756,0.02266376
3153.60005493,0.02254768
3155.52886230,0.02259822
3157.45766968,0.02257352
3159.38647705,0.02248642
3161.31528442,0.02227500
3163.24409180,0.02227988
3165.17289917,0.02228570
3167.10170654,0.02219479
3169.03051392,0.02223678
3170.95932129,0.02219784
3172.88812866,0.02207985
3174.81693604,0.02205104
3176.74574341,0.02199388
3178.67455078,0.02181546
3180.60335815,0.02188971
3182.53216553,0.02189231
3184.46097290,0.02175954
3186.38978027,0.02173365
3188.31858765,0.02159629
3190.24739502,0.02158795
3192.17620239,0.02162476
3194.10500977,0.02158828
3196.03381714,0.02154008
3197.96262451,0.02149291
3199.89143188,0.02138137
3201.82023926,0.02134733
3203.74904663,0.02142205
3205.67785400,0.02130999
3207.60666138,0.02127957
3209.53546875,0.02123715
3211.46427612,0.02115571
3213.39308350,0.02109762
3215.32189087,0.02102521
3217.25069824,0.02103692
3219.17950562,0.02095291
3221.10831299,0.02096463
3223.03712036,0.02100510
3224.96592773,0.02097213
3226.89473511,0.02095717
3228.82354248,0.02093693
3230.75234985,0.02086182
3232.68115723,0.02081139
3234.60996460,0.02081909
3236.53877197,0.02079393
3238.46757935,0.02086462
3240.39638672,0.02080722
3242.32519409,0.02081047
3244.25400146,0.02071290
3246.18280884,0.02056717
3248.11161621,0.02070949
3250.04042358,0.02059971
3251.96923096,0.02060039
3253.89803833,0.02058749
3255.82684570,0.02048695
3257.75565308,0.02051120
3259.68446045,0.02050012
3261.61326782,0.02056250
3263.54207520,0.02043224
3265.47088257,0.02045713
3267.39968994,0.02047387
3269.32849731,0.02043985
3271.25730469,0.02046965
3273.18611206,0.02032427
3275.11491943,0.02034678
3277.04372681,0.02033191
3278.97253418,0.02033136
3280.90134155,0.02036829
3282.83014893,0.02036496
3284.75895630,0.02035910
3286.68776367,0.02032009
3288.61657104,0.02028897
3290.54537842,0.02026537
3292.47418579,0.02024738
3294.40299316,0.02011355
3296.33180054,0.02018827
3298.26060791,0.02012336
3300.18941528,0.02011351
3302.11822266,0.02018932
3304.04703003,0.01995211
3305.97583740,0.02007954
3307.90464478,0.02001931
3309.83345215,0.01991426
3311.76225952,0.02001359
3313.69106689,0.01991418
3315.61987427,0.01985618
3317.54868164,0.01986609
3319.47748901,0.02005075
3321.40629639,0.01994116
3323.33510376,0.01984119
3325.26391113,0.01987590
3327.19271851,0.01978973
3329.12152588,0.01983584
3331.05033325,0.01977890
3332.97914062,0.01981153
3334.90794800,0.01975157
3336.83675537,0.01962687
3338.76556274,0.01965636
3340.69437012,0.01967175
3342.62317749,0.01966736
3344.55198486,0.01958634
3346.48079224,0.01959388
3348.40959961,0.01955250
3350.33840698,0.01942068
3352.26721436,0.01933536
3354.19602173,0.01935505
3356.12482910,0.01944934
3358.05363647,0.01939755
3359.98244385,0.01926381
3361.91125122,0.01925308
3363.84005859,0.01923176
3365.76886597,0.01918014
3367.69767334,0.01925143
3369.62648071,0.01917767
3371.55528809,0.01914188
3373.48409546,0.01918028
3375.41290283,0.01912054
3377.34171020,0.01909050
3379.27051758,0.01907680
3381.19932495,0.01909483
3383.12813232,0.01897529
3385.05693970,0.01891035
3386.98574707,0.01890279
3388.91455444,0.01896247
3390.84336182,0.01891189
3392.77216919,0.01873229
3394.70097656,0.01885557
3396.62978394,0.01873632
3398.55859131,0.01856894
3400.48739868,0.01864422
3402.41620605,0.01871443
3404.34501343,0.01865233
3406.27382080,0.01861626
3408.20262817,0.01867677
3410.13143555,0.01850375
3412.06024292,0.01853553
3413.98905029,0.01850695
3415.91785767,0.01854111
3417.84666504,0.01859106
3419.77547241,0.01836408
3421.70427979,0.01842381
3423.63308716,0.01838307
3425.56189453,0.01833659
3427.49070190,0.01827106
3429.41950928,0.01831556
3431.34831665,0.01829729
3433.27712402,0.01813765
3435.20593140,0.01829002
3437.13473877,0.01814435
3439.06354614,0.01814286
3440.99235352,0.01811571
3442.92116089,0.01803104
3444.84996826,0.01810500
3446.77877563,0.01784410
3448.70758301,0.01788008
3450.63639038,0.01801575
3452.56519775,0.01798458
3454.49400513,0.01800052
3456.42281250,0.01797424
3458.35161987,0.01789254
3460.28042725,0.01791705
3462.20923462,0.01785135
3464.13804199,0.01779576
3466.06684937,0.01786358
3467.99565674,0.01773939
3469.92446411,0.01785028
3471.85327148,0.01768673
3473.78207886,0.01761678
3475.71088623,0.01777861
3477.63969360,0.01766270
3479.56850098,0.01775421
3481.49730835,0.01755897
3483.42611572,0.01761277
3485.35492310,0.01770212
3487.28373047,0.01755550
3489.21253784,0.01759064
3491.14134521,0.01753841
3493.07015259,0.01763523
3494.99895996,0.01761414
3496.92776733,0.01760633
3498.85657471,0.01758298
3500.78538208,0.01762400
3502.71418945,0.01737200
3504.64299683,0.01729441
3506.57180420,0.01769278
3508.50061157,0.01732359
3510.42941895,0.01732716
3512.35822632,0.01752146
3514.28703369,0.01755450
3516.21584106,0.01765572
3518.14464844,0.01745745
3520.07345581,0.01762704
3522.00226318,0.01744688
3523.93107056,0.01722981
3525.85987793,0.01726349
3527.78868530,0.01719978
3529.71749268,0.01732987
3531.64630005,0.01748222
3533.57510742,0.01757133
3535.50391479,0.01734551
3537.43272217,0.01728265
3539.36152954,0.01750372
3541.29033691,0.01750313
3543.21914429,0.01734682
3545.14795166,0.01701234
3547.07675903,0.01678023
3549.00556641,0.01734519
3550.93437378,0.01743837
3552.86318115,0.01699902
3554.79198853,0.01745011
3556.72079590,0.01743281
3558.64960327,0.01728850
3560.57841064,0.01730381
3562.50721802,0.01725974
3564.43602539,0.01726685
3566.36483276,0.01608352
3568.29364014,0.01583028
3570.22244751,0.01703280
3572.15125488,0.01740510
3574.08006226,0.01721599
3576.00886963,0.01730893
3577.93767700,0.01731784
3579.86648437,0.01726491
3581.79529175,0.01726135
3583.72409912,0.01725845
3585.65290649,0.01689970
3587.58171387,0.01558701
3589.51052124,0.01605611
3591.43932861,0.01740529
3593.36813599,0.01692684
3595.29694336,0.01661950
3597.22575073,0.01686354
3599.15455811,0.01707765
3601.08336548,0.01688486
3603.01217285,0.01703995
3604.94098022,0.01740544
3606.86978760,0.01677100
3608.79859497,0.01578147
3610.72740234,0.01613826
3612.65620972,0.01656157
3614.58501709,0.01604825
3616.51382446,0.01716613
3618.44263184,0.01594589
3620.37143921,0.01542621
3622.30024658,0.01732737
3624.22905395,0.01677243
3626.15786133,0.01753825
3628.08666870,0.01492239
3630.01547607,0.01366069
3631.94428345,0.01711497
3633.87309082,0.01663142
3635.80189819,0.01694363
3637.73070557,0.01725246
3639.65951294,0.01700542
3641.58832031,0.01720778
3643.51712769,0.01689386
3645.44593506,0.01711021
3647.37474243,0.01549018
3649.30354980,0.01426267
3651.23235718,0.01451598
3653.16116455,0.01703780
3655.08997192,0.01676827
3657.01877930,0.01506748
3658.94758667,0.01720493
3660.87639404,0.01688481
3662.80520142,0.01711459
3664.73400879,0.01709937
3666.66281616,0.01687252
3668.59162354,0.01637020
3670.52043091,0.01357060
3672.44923828,0.01627865
3674.37804565,0.01557213
3676.30685303,0.01297679
3678.23566040,0.01615455
3680.16446777,0.01653316
3682.09327515,0.01648315
3684.02208252,0.01701558
3685.95088989,0.01676502
3687.87969727,0.01513103
3689.80850464,0.01390698
3691.73731201,0.01590004
3693.66611938,0.01633069
3695.59492676,0.01658029
3697.52373413,0.01668493
3699.45254150,0.01644429
3701.38134888,0.01605053
3703.31015625,0.01552445
3705.23896362,0.01686025
3707.16777100,0.01608023
3709.09657837,0.01581321
3711.02538574,0.01494260
3712.95419312,0.01400313
3714.88300049,0.01629600
3716.81180786,0.01605124
3718.74061523,0.01624133
3720.66942261,0.01587374
3722.59822998,0.01528617
3724.52703735,0.01591009
3726.45584473,0.01480163
3728.38465210,0.01600341
3730.31345947,0.01576616
3732.24226685,0.01452263
3734.17107422,0.01423542
3736.09988159,0.01357283
3738.02868896,0.01429172
3739.95749634,0.01539031
3741.88630371,0.01621376
3743.81511108,0.01266432
3745.74391846,0.01198940
3747.67272583,0.01544530
3749.60153320,0.01329052
3751.53034058,0.01233114
3753.45914795,0.01410233
3755.38795532,0.01519737
3757.31676270,0.01572501
3759.24557007,0.01454472
3761.17437744,0.01509489
3763.10318481,0.01599745
3765.03199219,0.01503029
3766.96079956,0.01525465
3768.88960693,0.01501861
3770.81841431,0.01442265
3772.74722168,0.01559646
3774.67602905,0.01558582
3776.60483643,0.01554937
3778.53364380,0.01518177
3780.46245117,0.01467420
3782.39125854,0.01556683
3784.32006592,0.01518083
3786.24887329,0.01515926
3788.17768066,0.01539409
3790.10648804,0.01529431
3792.03529541,0.01526081
3793.96410278,0.01548731
3795.89291016,0.01470499
3797.82171753,0.01448943
3799.75052490,0.01516311
3801.67933228,0.01216672
3803.60813965,0.01407278
3805.53694702,0.01520934
3807.46575439,0.01260111
3809.39456177,0.01517789
3811.32336914,0.01480509
3813.25217651,0.01529655
3815.18098389,0.01394363
3817.10979126,0.01232963
3819.03859863,0.01534366
3820.96740601,0.01250551
3822.89621338,0.01318708
3824.82502075,0.01527606
3826.75382812,0.01378140
3828.68263550,0.01484344
3830.61144287,0.01442163
3832.54025024,0.01386763
3834.46905762,0.01412088
3836.39786499,0.01353243
3838.32667236,0.01229903
3840.25547974,0.01327326
3842.18428711,0.01415308
3844.11309448,0.01349551
3846.04190186,0.01459880
3847.97070923,0.01438159
3849.89951660,0.01438983
3851.82832397,0.01302833
3853.75713135,0.00996197
3855.68593872,0.01166894
3857.61474609,0.01449632
3859.54355347,0.01411041
3861.47236084,0.01388462
3863.40116821,0.01361593
3865.32997559,0.01275684
3867.25878296,0.01414648
3869.18759033,0.01299097
3871.11639770,0.01210768
3873.04520508,0.01410215
3874.97401245,0.01301130
3876.90281982,0.01404355
3878.83162720,0.01430826
3880.76043457,0.01235092
3882.68924194,0.01408119
3884.61804932,0.01324940
3886.54685669,0.01213888
3888.47566406,0.01417187
3890.40447144,0.01339524
3892.33327881,0.01259722
3894.26208618,0.01386680
3896.19089355,0.01391036
3898.11970093,0.01331055
3900.04850830,0.01268093
3901.97731567,0.01260535
3903.90612305,0.01245698
3905.83493042,0.01255143
3907.76373779,0.01385917
3909.69254517,0.01377781
3911.62135254,0.01358952
3913.55015991,0.01381838
3915.47896728,0.01338670
3917.40777466,0.01303700
3919.33658203,0.01289006
3921.26538940,0.01347538
3923.19419678,0.01334402
3925.12300415,0.01306184
3927.05181152,0.01330068
3928.98061890,0.01338943
3930.90942627,0.01319664
3932.83823364,0.01282863
3934.76704102,0.01331324
3936.69584839,0.01330964
3938.62465576,0.01331218
3940.55346313,0.01337278
3942.48227051,0.01277721
3944.41107788,0.01307247
3946.33988525,0.01326368
3948.26869263,0.01298432
3950.19750000,0.01297128
3952.12630737,0.01304747
3954.05511475,0.01310262
3955.98392212,0.01312060
3957.91272949,0.01303199
3959.84153687,0.01296482
3961.77034424,0.01295904
3963.69915161,0.01286965
3965.62795898,0.01297164
3967.55676636,0.01293668
3969.48557373,0.01285150
3971.41438110,0.01286231
3973.34318848,0.01290530
3975.27199585,0.01278770
3977.20080322,0.01264722
3979.12961060,0.01286750
3981.05841797,0.01280186
3982.98722534,0.01274166
3984.91603271,0.01269683
3986.84484009,0.01265137
3988.77364746,0.01268356
3990.70245483,0.01257930
3992.63126221,0.01261027
3994.56006958,0.01255855
3996.48887695,0.01262747
3998.41768433,0.01257772
4000.34649170,0.01257554
4002.27529907,0.01257310
4004.20410645,0.01244488
4006.13291382,0.01255641
4008.06172119,0.01246048
4009.99052856,0.01244013
4011.91933594,0.01234892
4013.84814331,0.01235002
4015.77695068,0.01237540
4017.70575806,0.01222407
4019.63456543,0.01234898
4021.56337280,0.01231309
4023.49218018,0.01227259
4025.42098755,0.01227262
4027.34979492,0.01221349
4029.27860229,0.01208125
4031.20740967,0.01212926
4033.13621704,0.01225076
4035.06502441,0.01212848
4036.99383179,0.01213193
4038.92263916,0.01203666
4040.85144653,0.01210237
4042.78025391,0.01208374
4044.70906128,0.01198228
4046.63786865,0.01206871
4048.56667603,0.01204307
4050.49548340,0.01202237
4052.42429077,0.01179078
4054.35309814,0.01182204
4056.28190552,0.01192706
4058.21071289,0.01182360
4060.13952026,0.01181825
4062.06832764,0.01181143
4063.99713501,0.01182831
4065.92594238,0.01176639
4067.85474976,0.01173256
4069.78355713,0.01163543
4071.71236450,0.01169346
4073.64117187,0.01170937
4075.56997925,0.01161882
4077.49878662,0.01163495
4079.42759399,0.01150364
4081.35640137,0.01155179
4083.28520874,0.01156418
4085.21401611,0.01149371
4087.14282349,0.01143198
4089.07163086,0.01145048
4091.00043823,0.01148126
4092.92924561,0.01139902
4094.85805298,0.01143057
4096.78686035,0.01132365
4098.71566772,0.01137112
4100.64447510,0.01135182
4102.57328247,0.01126609
4104.50208984,0.01131989
4106.43089722,0.01118232
4108.35970459,0.01115432
4110.28851196,0.01118171
4112.21731934,0.01126764
4114.14612671,0.01125032
4116.07493408,0.01114789
4118.00374145,0.01112308
4119.93254883,0.01109620
4121.86135620,0.01108853
4123.79016357,0.01105589
4125.71897095,0.01110465
4127.64777832,0.01104516
4129.57658569,0.01100944
4131.50539307,0.01093975
4133.43420044,0.01093366
4135.36300781,0.01103007
4137.29181519,0.01090697
4139.22062256,0.01086527
4141.14942993,0.01083517
4143.07823730,0.01082993
4145.00704468,0.01082812
4146.93585205,0.01081099
4148.86465942,0.01075586
4150.79346680,0.01072506
4152.72227417,0.01077124
4154.65108154,0.01066174
4156.57988892,0.01070437
4158.50869629,0.01071269
4160.43750366,0.01068838
4162.36631103,0.01064245
4164.29511841,0.01059943
4166.22392578,0.01064559
4168.15273315,0.01051203
4170.08154053,0.01053727
4172.01034790,0.01050710
4173.93915527,0.01044186
4175.86796265,0.01046304
4177.79677002,0.01049130
4179.72557739,0.01044048
4181.65438477,0.01032063
4183.58319214,0.01044712
4185.51199951,0.01034563
4187.44080688,0.01028083
4189.36961426,0.01033055
4191.29842163,0.01027901
4193.22722900,0.01029430
4195.15603638,0.01020888
4197.08484375,0.01017010
4199.01365112,0.01016776
4200.94245850,0.01021639
4202.87126587,0.01014508
4204.80007324,0.01008260
4206.72888062,0.01008024
4208.65768799,0.01009892
4210.58649536,0.01010503
4212.51530273,0.00995966
4214.44411011,0.01004950
4216.37291748,0.00998245
4218.30172485,0.00996051
4220.23053223,0.01004045
4222.15933960,0.00992731
4224.08814697,0.00994795
4226.01695435,0.00993767
4227.94576172,0.00993842
4229.87456909,0.00980894
4231.80337646,0.00980170
4233.73218384,0.00983946
4235.66099121,0.00975652
4237.58979858,0.00976967
4239.51860596,0.00974079
4241.44741333,0.00977027
4243.37622070,0.00969600
4245.30502808,0.00969635
4247.23383545,0.00967575
4249.16264282,0.00969159
4251.09145020,0.00967173
4253.02025757,0.00955724
4254.94906494,0.00960427
4256.87787231,0.00946884
4258.80667969,0.00961716
4260.73548706,0.00960294
4262.66429443,0.00949175
4264.59310181,0.00957017
4266.52190918,0.00940256
4268.45071655,0.00948390
4270.37952393,0.00940038
4272.30833130,0.00939681
4274.23713867,0.00944495
4276.16594604,0.00937429
4278.09475342,0.00940529
4280.02356079,0.00926415
4281.95236816,0.00935641
4283.88117554,0.00930372
4285.80998291,0.00926464
4287.73879028,0.00928442
4289.66759766,0.00916527
4291.59640503,0.00928186
4293.52521240,0.00923675
4295.45401978,0.00918510
4297.38282715,0.00918467
4299.31163452,0.00913100
4301.24044189,0.00913388
4303.16924927,0.00904730
4305.09805664,0.00896714
4307.02686401,0.00908680
4308.95567139,0.00909155
4310.88447876,0.00891772
4312.81328613,0.00899490
4314.74209351,0.00905822
4316.67090088,0.00906575
4318.59970825,0.00898508
4320.52851562,0.00889457
4322.45732300,0.00893864
4324.38613037,0.00884528
4326.31493774,0.00888053
4328.24374512,0.00893757
4330.17255249,0.00885839
4332.10135986,0.00877198
4334.03016724,0.00880354
4335.95897461,0.00882319
4337.88778198,0.00873762
4339.81658936,0.00877535
4341.74539673,0.00867892
4343.67420410,0.00865438
4345.60301147,0.00872874
4347.53181885,0.00864611
4349.46062622,0.00859884
4351.38943359,0.00857403
4353.31824097,0.00852651
4355.24704834,0.00851670
4357.17585571,0.00858675
4359.10466309,0.00851948
4361.03347046,0.00851702
4362.96227783,0.00856971
4364.89108520,0.00846496
4366.81989258,0.00849133
4368.74869995,0.00848622
4370.67750732,0.00842457
4372.60631470,0.00839898
4374.53512207,0.00836861
4376.46392944,0.00838425
4378.39273682,0.00841184
4380.32154419,0.00839930
4382.25035156,0.00836298
4384.17915894,0.00836176
4386.10796631,0.00831285
4388.03677368,0.00831246
4389.96558105,0.00826849
4391.89438843,0.00822194
4393.82319580,0.00829646
4395.75200317,0.00825256
4397.68081055,0.00822299
4399.60961792,0.00816210
4401.53842529,0.00810782
4403.46723267,0.00822239
4405.39604004,0.00819710
4407.32484741,0.00807197
4409.25365478,0.00800888
4411.18246216,0.00801227
4413.11126953,0.00800841
4415.04007690,0.00794789
4416.96888428,0.00802041
4418.89769165,0.00801161
4420.82649902,0.00796160
4422.75530640,0.00801227
4424.68411377,0.00786312
4426.61292114,0.00785044
4428.54172852,0.00792092
4430.47053589,0.00789945
4432.39934326,0.00792658
4434.32815063,0.00783202
4436.25695801,0.00783693
4438.18576538,0.00780190
4440.11457275,0.00776597
4442.04338013,0.00775904
4443.97218750,0.00766805
4445.90099487,0.00781782
4447.82980225,0.00776960
4449.75860962,0.00762354
4451.68741699,0.00767445
4453.61622437,0.00762747
4455.54503174,0.00765570
4457.47383911,0.00767624
4459.40264648,0.00757369
4461.33145386,0.00758637
4463.26026123,0.00763660
4465.18906860,0.00756237
4467.11787598,0.00752782
4469.04668335,0.00749773
4470.97549072,0.00744855
4472.90429810,0.00745006
4474.83310547,0.00745835
4476.76191284,0.00749450
4478.69072021,0.00748789
4480.61952759,0.00747610
4482.54833496,0.00738780
4484.47714233,0.00734730
4486.40594971,0.00738059
4488.33475708,0.00736885
4490.26356445,0.00738991
4492.19237183,0.00730223
4494.12117920,0.00729717
4496.04998657,0.00727204
4497.97879395,0.00725896
4499.90760132,0.00733003
4501.83640869,0.00718534
4503.76521606,0.00717774
4505.69402344,0.00719995
4507.62283081,0.00720154
4509.55163818,0.00722671
4511.48044556,0.00711069
4513.40925293,0.00716603
4515.33806030,0.00715491
4517.26686768,0.00704756
4519.19567505,0.00703043
4521.12448242,0.00700986
4523.05328979,0.00713003
4524.98209717,0.00714372
4526.91090454,0.00702595
4528.83971191,0.00701810
4530.76851929,0.00704575
4532.69732666,0.00710205
4534.62613403,0.00702189
4536.55494141,0.00693343
4538.48374878,0.00690745
4540.41255615,0.00684759
4542.34136353,0.00692819
4544.27017090,0.00688677
4546.19897827,0.00690714
4548.12778564,0.00697326
4550.05659302,0.00682085
4551.98540039,0.00683217
4553.91420776,0.00683599
4555.84301514,0.00681559
4557.77182251,0.00678189
4559.70062988,0.00670023
4561.62943726,0.00671962
4563.55824463,0.00670272
4565.48705200,0.00672541
4567.41585937,0.00670829
4569.34466675,0.00668476
4571.27347412,0.00669255
4573.20228149,0.00669156
4575.13108887,0.00668021
4577.05989624,0.00662185
4578.98870361,0.00662286
4580.91751099,0.00663549
4582.84631836,0.00664426
4584.77512573,0.00657293
4586.70393311,0.00654880
4588.63274048,0.00650037
4590.56154785,0.00643180
4592.49035522,0.00649131
4594.41916260,0.00647149
4596.34796997,0.00655571
4598.27677734,0.00653357
4600.20558472,0.00643402
4602.13439209,0.00642808
4604.06319946,0.00639306
4605.99200684,0.00641384
4607.92081421,0.00632095
4609.84962158,0.00637148
4611.77842895,0.00638655
4613.70723633,0.00632058
4615.63604370,0.00637972
4617.56485107,0.00627223
4619.49365845,0.00624491
4621.42246582,0.00624024
4623.35127319,0.00622147
4625.28008057,0.00620111
4627.20888794,0.00616160
4629.13769531,0.00626152
4631.06650269,0.00619582
4632.99531006,0.00615868
4634.92411743,0.00623677
4636.85292480,0.00615830
4638.78173218,0.00614209
4640.71053955,0.00617488
4642.63934692,0.00613304
4644.56815430,0.00610445
4646.49696167,0.00608237
4648.42576904,0.00607705
4650.35457642,0.00608240
4652.28338379,0.00609977
4654.21219116,0.00608356
4656.14099853,0.00603781
4658.06980591,0.00601935
4659.99861328,0.00592374
4661.92742065,0.00594958
4663.85622803,0.00601840
4665.78503540,0.00591744
4667.71384277,0.00591885
4669.64265015,0.00593459
4671.57145752,0.00582266
4673.50026489,0.00579844
4675.42907227,0.00587933
4677.35787964,0.00584506
4679.28668701,0.00583262
4681.21549438,0.00582295
4683.14430176,0.00579141
4685.07310913,0.00585756
4687.00191650,0.00572125
4688.93072388,0.00569746
4690.85953125,0.00579854
4692.78833862,0.00572455
4694.71714600,0.00569427
4696.64595337,0.00570310
4698.57476074,0.00571829
4700.50356812,0.00565969
4702.43237549,0.00563584
4704.36118286,0.00568105
4706.28999023,0.00573866
4708.21879761,0.00567467
4710.14760498,0.00561566
4712.07641235,0.00564561
4714.00521973,0.00549735
4715.93402710,0.00559833
4717.86283447,0.00562220
4719.79164185,0.00547195
4721.72044922,0.00555640
4723.64925659,0.00556971
4725.57806396,0.00555729
4727.50687134,0.00552489
4729.43567871,0.00553793
4731.36448608,0.00544645
4733.29329346,0.00545249
4735.22210083,0.00548410
4737.15090820,0.00537993
4739.07971558,0.00552403
4741.00852295,0.00539401
4742.93733032,0.00537227
4744.86613770,0.00540823
4746.79494507,0.00526562
4748.72375244,0.00544138
4750.65255981,0.00540011
4752.58136719,0.00536557
4754.51017456,0.00537270
4756.43898193,0.00532349
4758.36778931,0.00539147
4760.29659668,0.00528888
4762.22540405,0.00525003
4764.15421143,0.00527931
4766.08301880,0.00526983
4768.01182617,0.00521857
4769.94063354,0.00520182
4771.86944092,0.00523174
4773.79824829,0.00519983
4775.72705566,0.00518429
4777.65586304,0.00512159
4779.58467041,0.00514480
4781.51347778,0.00519663
4783.44228516,0.00511649
4785.37109253,0.00512121
4787.29989990,0.00512434
4789.22870728,0.00506674
4791.15751465,0.00511856
4793.08632202,0.00509197
4795.01512939,0.00502180
4796.94393677,0.00504436
4798.87274414,0.00506694
4800.80155151,0.00508500
4802.73035889,0.00502662
4804.65916626,0.00501297
4806.58797363,0.00498157
4808.51678101,0.00494421
4810.44558838,0.00495392
4812.37439575,0.00492222
4814.30320312,0.00503056
4816.23201050,0.00501144
4818.16081787,0.00495452
4820.08962524,0.00500598
4822.01843262,0.00493244
4823.94723999,0.00491985
4825.87604736,0.00488603
4827.80485474,0.00482024
4829.73366211,0.00486744
4831.66246948,0.00479948
4833.59127686,0.00471171
4835.52008423,0.00482338
4837.44889160,0.00479297
4839.37769897,0.00476595
4841.30650635,0.00483594
4843.23531372,0.00477493
4845.16412109,0.00481715
4847.09292847,0.00476608
4849.02173584,0.00472620
4850.95054321,0.00472300
4852.87935059,0.00465160
4854.80815796,0.00464980
4856.73696533,0.00460622
4858.66577270,0.00469076
4860.59458008,0.00464690
4862.52338745,0.00457905
4864.45219482,0.00462318
4866.38100220,0.00462245
4868.30980957,0.00471230
4870.23861694,0.00468289
4872.16742432,0.00459764
4874.09623169,0.00451724
4876.02503906,0.00449147
4877.95384644,0.00448940
4879.88265381,0.00452266
4881.81146118,0.00453137
4883.74026855,0.00443600
4885.66907593,0.00444795
4887.59788330,0.00447475
4889.52669067,0.00454483
4891.45549805,0.00442343
4893.38430542,0.00444297
4895.31311279,0.00451149
4897.24192017,0.00437827
4899.17072754,0.00450733
4901.09953491,0.00437670
4903.02834228,0.00438360
4904.95714966,0.00441591
4906.88595703,0.00432849
4908.81476440,0.00445389
4910.74357178,0.00429343
4912.67237915,0.00435453
4914.60118652,0.00431700
4916.52999390,0.00428711
4918.45880127,0.00438707
4920.38760864,0.00422498
4922.31641602,0.00433761
4924.24522339,0.00433383
4926.17403076,0.00428694
4928.10283813,0.00426255
4930.03164551,0.00423699
4931.96045288,0.00427129
4933.88926025,0.00416289
4935.81806763,0.00425826
4937.74687500,0.00423426
4939.67568237,0.00414215
4941.60448975,0.00415462
4943.53329712,0.00418343
4945.46210449,0.00427326
4947.39091187,0.00419456
4949.31971924,0.00410465
4951.24852661,0.00407842
4953.17733398,0.00409258
4955.10614136,0.00406857
4957.03494873,0.00404891
4958.96375610,0.00406968
4960.89256348,0.00402364
4962.82137085,0.00407130
4964.75017822,0.00406315
4966.67898560,0.00400725
4968.60779297,0.00409161
4970.53660034,0.00410044
4972.46540771,0.00402246
4974.39421509,0.00403514
4976.32302246,0.00403213
4978.25182983,0.00399881
4980.18063721,0.00399139
4982.10944458,0.00393020
4984.03825195,0.00391451
4985.96705933,0.00396481
4987.89586670,0.00394297
4989.82467407,0.00390304
4991.75348145,0.00393933
4993.68228882,0.00394320
4995.61109619,0.00392054
4997.53990356,0.00387505
4999.46871094,0.00387000
5001.39751831,0.00394492
5003.32632568,0.00391129
5005.25513306,0.00387375
5007.18394043,0.00376841
5009.11274780,0.00376523
5011.04155518,0.00380765
5012.97036255,0.00365674
5014.89916992,0.00378967
5016.82797729,0.00384423
5018.75678467,0.00374360
5020.68559204,0.00379136
5022.61439941,0.00374659
5024.54320679,0.00371566
5026.47201416,0.00366264
5028.40082153,0.00367849
5030.32962891,0.00369741
5032.25843628,0.00364431
5034.18724365,0.00367445
5036.11605103,0.00372736
5038.04485840,0.00374378
5039.97366577,0.00365011
5041.90247314,0.00365083
5043.83128052,0.00365676
5045.76008789,0.00362747
5047.68889526,0.00369756
5049.61770264,0.00366996
5051.54651001,0.00364387
5053.47531738,0.00363214
5055.40412476,0.00358285
5057.33293213,0.00355330
5059.26173950,0.00358790
5061.19054687,0.00360519
5063.11935425,0.00352938
5065.04816162,0.00358014
5066.97696899,0.00357739
5068.90577637,0.00349386
5070.83458374,0.00352709
5072.76339111,0.00354810
5074.69219849,0.00356131
5076.62100586,0.00344659
5078.54981323,0.00342343
5080.47862061,0.00354152
5082.40742798,0.00344092
5084.33623535,0.00344282
5086.26504272,0.00346269
5088.19385010,0.00343809
5090.12265747,0.00351539
5092.05146484,0.00342334
5093.98027222,0.00340271
5095.90907959,0.00339264
5097.83788696,0.00335817
5099.76669434,0.00337931
5101.69550171,0.00332152
5103.62430908,0.00339778
5105.55311645,0.00337322
5107.48192383,0.00330752
5109.41073120,0.00337065
5111.33953857,0.00337506
5113.26834595,0.00336010
5115.19715332,0.00327864
5117.12596069,0.00329123
5119.05476807,0.00334295
5120.98357544,0.00329905
5122.91238281,0.00331770
5124.84119019,0.00330501
5126.76999756,0.00324606
5128.69880493,0.00328517
5130.62761230,0.00327808
5132.55641968,0.00318114
5134.48522705,0.00318993
5136.41403442,0.00323266
5138.34284180,0.00323659
5140.27164917,0.00318645
5142.20045654,0.00319871
5144.12926392,0.00326350
5146.05807129,0.00321820
5147.98687866,0.00321982
5149.91568603,0.00320893
5151.84449341,0.00314757
5153.77330078,0.00308952
5155.70210815,0.00310479
5157.63091553,0.00312645
5159.55972290,0.00308692
5161.48853027,0.00315086
5163.41733765,0.00309676
5165.34614502,0.00306488
5167.27495239,0.00309722
5169.20375977,0.00309001
5171.13256714,0.00312349
5173.06137451,0.00305918
5174.99018188,0.00310529
5176.91898926,0.00309660
5178.84779663,0.00303900
5180.77660400,0.00306034
5182.70541138,0.00306990
5184.63421875,0.00309740
5186.56302612,0.00296250
5188.49183350,0.00295516
5190.42064087,0.00296163
5192.34944824,0.00292087
5194.27825562,0.00297436
5196.20706299,0.00291053
5198.13587036,0.00297486
5200.06467773,0.00298662
5201.99348511,0.00293039
5203.92229248,0.00294948
5205.85109985,0.00290815
5207.77990723,0.00287700
5209.70871460,0.00284344
5211.63752197,0.00294600
5213.56632935,0.00295374
5215.49513672,0.00283694
5217.42394409,0.00285073
5219.35275146,0.00282723
5221.28155884,0.00290625
5223.21036621,0.00298703
5225.13917358,0.00280049
5227.06798096,0.00275702
5228.99678833,0.00288641
5230.92559570,0.00282409
5232.85440308,0.00285451
5234.78321045,0.00291620
5236.71201782,0.00280315
5238.64082520,0.00278742
5240.56963257,0.00275410
5242.49843994,0.00272027
5244.42724731,0.00274291
5246.35605469,0.00273589
5248.28486206,0.00271013
5250.21366943,0.00270990
5252.14247681,0.00282087
5254.07128418,0.00274421
5256.00009155,0.00264567
5257.92889893,0.00277140
5259.85770630,0.00278375
5261.78651367,0.00264704
5263.71532104,0.00252742
5265.64412842,0.00264163
5267.57293579,0.00277852
5269.50174316,0.00268737
5271.43055054,0.00269009
5273.35935791,0.00270579
5275.28816528,0.00263048
5277.21697266,0.00271952
5279.14578003,0.00272449
5281.07458740,0.00265194
5283.00339478,0.00272664
5284.93220215,0.00260553
5286.86100952,0.00257072
5288.78981689,0.00264167
5290.71862427,0.00251585
5292.64743164,0.00257957
5294.57623901,0.00260367
5296.50504639,0.00262002
5298.43385376,0.00268702
5300.36266113,0.00257755
5302.29146851,0.00260341
5304.22027588,0.00259207
5306.14908325,0.00250234
5308.07789062,0.00252302
5310.00669800,0.00259828
5311.93550537,0.00258030
5313.86431274,0.00252386
5315.79312012,0.00256589
5317.72192749,0.00248098
5319.65073486,0.00247476
5321.57954224,0.00252633
5323.50834961,0.00247615
5325.43715698,0.00248546
5327.36596436,0.00247896
5329.29477173,0.00246453
5331.22357910,0.00241190
5333.15238647,0.00241324
5335.08119385,0.00247607
5337.01000122,0.00241316
5338.93880859,0.00228523
5340.86761597,0.00242232
5342.79642334,0.00252627
5344.72523071,0.00227980
5346.65403809,0.00234289
5348.58284546,0.00245901
5350.51165283,0.00236556
5352.44046020,0.00235012
5354.36926758,0.00231984
5356.29807495,0.00238313
5358.22688232,0.00233189
5360.15568970,0.00235815
5362.08449707,0.00247116
5364.01330444,0.00234197
5365.94211182,0.00233537
5367.87091919,0.00243285
5369.79972656,0.00237806
5371.72853394,0.00232095
5373.65734131,0.00237509
5375.58614868,0.00230577
5377.51495605,0.00224757
5379.44376343,0.00234376
5381.37257080,0.00234578
5383.30137817,0.00225421
5385.23018555,0.00218775
5387.15899292,0.00226728
5389.08780029,0.00232722
5391.01660767,0.00232889
5392.94541504,0.00222466
5394.87422241,0.00209343
5396.80302978,0.00223053
5398.73183716,0.00226482
5400.66064453,0.00219072
5402.58945190,0.00221077
5404.51825928,0.00223565
5406.44706665,0.00227942
5408.37587402,0.00222464
5410.30468140,0.00215627
5412.23348877,0.00215486
5414.16229614,0.00209639
5416.09110352,0.00208832
5418.01991089,0.00216374
5419.94871826,0.00213597
5421.87752563,0.00213317
5423.80633301,0.00214690
5425.73514038,0.00212908
5427.66394775,0.00212257
5429.59275513,0.00211446
5431.52156250,0.00221807
5433.45036987,0.00214428
5435.37917725,0.00206899
5437.30798462,0.00214311
5439.23679199,0.00207489
5441.16559936,0.00206435
5443.09440674,0.00210781
5445.02321411,0.00211167
5446.95202148,0.00208115
5448.88082886,0.00208588
5450.80963623,0.00206060
5452.73844360,0.00202765
5454.66725098,0.00205505
5456.59605835,0.00203831
5458.52486572,0.00207923
5460.45367310,0.00197956
5462.38248047,0.00194880
5464.31128784,0.00205787
5466.24009521,0.00207608
5468.16890259,0.00203268
5470.09770996,0.00191853
5472.02651733,0.00204598
5473.95532471,0.00202088
5475.88413208,0.00190849
5477.81293945,0.00203985
5479.74174683,0.00200427
5481.67055420,0.00195984
5483.59936157,0.00195123
5485.52816895,0.00196301
5487.45697632,0.00195099
5489.38578369,0.00193283
5491.31459106,0.00196933
5493.24339844,0.00194127
5495.17220581,0.00196103
5497.10101318,0.00190744
5499.02982056,0.00186229
5500.95862793,0.00190566
5502.88743530,0.00193903
5504.81624268,0.00192838
5506.74505005,0.00189596
5508.67385742,0.00195565
5510.60266479,0.00193361
5512.53147217,0.00186480
5514.46027954,0.00189527
5516.38908691,0.00191390
5518.31789429,0.00183805
5520.24670166,0.00181062
5522.17550903,0.00182542
5524.10431641,0.00181903
5526.03312378,0.00189314
5527.96193115,0.00190612
5529.89073853,0.00190638
5531.81954590,0.00186861
5533.74835327,0.00180859
5535.67716064,0.00186576
5537.60596802,0.00185561
5539.53477539,0.00182392
5541.46358276,0.00180818
5543.39239014,0.00185626
5545.32119751,0.00192800
5547.25000488,0.00183613
5549.17881226,0.00180866
5551.10761963,0.00185751
5553.03642700,0.00178689
5554.96523437,0.00180985
5556.89404175,0.00182660
5558.82284912,0.00174083
5560.75165649,0.00180329
5562.68046387,0.00177055
5564.60927124,0.00173116
5566.53807861,0.00176072
5568.46688599,0.00169743
5570.39569336,0.00175736
5572.32450073,0.00180089
5574.25330811,0.00185708
5576.18211548,0.00182083
5578.11092285,0.00169982
5580.03973022,0.00176793
5581.96853760,0.00174364
5583.89734497,0.00171404
5585.82615234,0.00172805
5587.75495972,0.00170085
5589.68376709,0.00172563
5591.61257446,0.00168853
5593.54138184,0.00166086
5595.47018921,0.00167725
5597.39899658,0.00167162
5599.32780395,0.00170213
5601.25661133,0.00171536
5603.18541870,0.00168091
5605.11422607,0.00165899
5607.04303345,0.00163490
5608.97184082,0.00169179
5610.90064819,0.00167442
5612.82945557,0.00159184
5614.75826294,0.00164271
5616.68707031,0.00162858
5618.61587769,0.00162302
5620.54468506,0.00161224
5622.47349243,0.00162252
5624.40229980,0.00164175
5626.33110718,0.00155648
5628.25991455,0.00162327
5630.18872192,0.00162788
5632.11752930,0.00155347
5634.04633667,0.00159084
5635.97514404,0.00163985
5637.90395142,0.00160239
5639.83275879,0.00153926
5641.76156616,0.00160779
5643.69037353,0.00161824
5645.61918091,0.00158383
5647.54798828,0.00151003
5649.47679565,0.00152446
5651.40560303,0.00161586
5653.33441040,0.00155725
5655.26321777,0.00157414
5657.19202515,0.00157325
5659.12083252,0.00158367
5661.04963989,0.00158527
5662.97844727,0.00154862
5664.90725464,0.00154771
5666.83606201,0.00150146
5668.76486938,0.00157742
5670.69367676,0.00154621
5672.62248413,0.00150829
5674.55129150,0.00154099
5676.48009888,0.00149356
5678.40890625,0.00146939
5680.33771362,0.00143818
5682.26652100,0.00153532
5684.19532837,0.00149313
5686.12413574,0.00148514
5688.05294311,0.00158043
5689.98175049,0.00146175
5691.91055786,0.00151213
5693.83936523,0.00151575
5695.76817261,0.00144664
5697.69697998,0.00148982
5699.62578735,0.00147054
5701.55459473,0.00149126
5703.48340210,0.00144145
5705.41220947,0.00144766
5707.34101685,0.00151402
5709.26982422,0.00143928
5711.19863159,0.00145362
5713.12743896,0.00148758
5715.05624634,0.00140346
5716.98505371,0.00138630
5718.91386108,0.00141535
5720.84266846,0.00142844
5722.77147583,0.00141910
5724.70028320,0.00136641
5726.62909058,0.00135649
5728.55789795,0.00136378
5730.48670532,0.00142989
5732.41551270,0.00145965
5734.34432007,0.00136596
5736.27312744,0.00135496
5738.20193481,0.00134031
5740.13074219,0.00134528
5742.05954956,0.00136929
5743.98835693,0.00133123
5745.91716431,0.00133821
5747.84597168,0.00129648
5749.77477905,0.00130694
5751.70358643,0.00131903
5753.63239380,0.00132446
5755.56120117,0.00141266
5757.49000854,0.00131961
5759.41881592,0.00126859
5761.34762329,0.00130683
5763.27643066,0.00128718
5765.20523804,0.00135031
5767.13404541,0.00135208
5769.06285278,0.00131609
5770.99166016,0.00132401
5772.92046753,0.00135996
5774.84927490,0.00131968
5776.77808228,0.00123801
5778.70688965,0.00130531
5780.63569702,0.00129601
5782.56450439,0.00127793
5784.49331177,0.00134388
5786.42211914,0.00128993
5788.35092651,0.00121570
5790.27973389,0.00123593
5792.20854126,0.00130389
5794.13734863,0.00129335
5796.06615601,0.00126581
5797.99496338,0.00125516
5799.92377075,0.00128081
5801.85257812,0.00129085
5803.78138550,0.00116423
5805.71019287,0.00122361
5807.63900024,0.00127373
5809.56780762,0.00115035
5811.49661499,0.00120803
5813.42542236,0.00121648
5815.35422974,0.00117326
5817.28303711,0.00121746
5819.21184448,0.00121226
5821.14065186,0.00120528
5823.06945923,0.00121401
5824.99826660,0.00121417
5826.92707397,0.00113718
5828.85588135,0.00113198
5830.78468872,0.00120790
5832.71349609,0.00112559
5834.64230347,0.00111458
5836.57111084,0.00120823
5838.49991821,0.00120650
5840.42872559,0.00120527
5842.35753296,0.00120759
5844.28634033,0.00121144
5846.21514770,0.00117148
5848.14395508,0.00108612
5850.07276245,0.00110818
5852.00156982,0.00114182
5853.93037720,0.00111256
5855.85918457,0.00111313
5857.78799194,0.00112600
5859.71679932,0.00112072
5861.64560669,0.00114487
5863.57441406,0.00115791
5865.50322144,0.00109394
5867.43202881,0.00106919
5869.36083618,0.00114447
5871.28964355,0.00115160
5873.21845093,0.00108294
5875.14725830,0.00112037
5877.07606567,0.00111013
5879.00487305,0.00105815
5880.93368042,0.00110845
5882.86248779,0.00109476
5884.79129517,0.00111868
5886.72010254,0.00111387
5888.64890991,0.00106911
5890.57771728,0.00107341
5892.50652466,0.00100661
5894.43533203,0.00107334
5896.36413940,0.00109680
5898.29294678,0.00107927
5900.22175415,0.00114329
5902.15056152,0.00105007
5904.07936890,0.00097907
5906.00817627,0.00094151
5907.93698364,0.00097488
5909.86579102,0.00107725
5911.79459839,0.00111488
5913.72340576,0.00106814
5915.65221313,0.00096673
5917.58102051,0.00102403
5919.50982788,0.00102106
5921.43863525,0.00100987
5923.36744263,0.00103901
5925.29625000,0.00097877
5927.22505737,0.00105544
5929.15386475,0.00104625
5931.08267212,0.00098310
5933.01147949,0.00096262
5934.94028686,0.00096324
5936.86909424,0.00103661
5938.79790161,0.00100310
5940.72670898,0.00101469
5942.65551636,0.00103609
5944.58432373,0.00097727
5946.51313110,0.00092775
5948.44193848,0.00094594
5950.37074585,0.00101069
5952.29955322,0.00099274
5954.22836060,0.00096247
5956.15716797,0.00089937
5958.08597534,0.00093273
5960.01478271,0.00097653
5961.94359009,0.00094079
5963.87239746,0.00100718
5965.80120483,0.00097533
5967.73001221,0.00091788
5969.65881958,0.00088166
5971.58762695,0.00088611
5973.51643433,0.00095852
5975.44524170,0.00094892
5977.37404907,0.00096717
5979.30285645,0.00093019
5981.23166382,0.00090929
5983.16047119,0.00091029
5985.08927856,0.00086035
5987.01808594,0.00091061
5988.94689331,0.00093954
5990.87570068,0.00092888
5992.80450806,0.00095140
5994.73331543,0.00098446
5996.66212280,0.00093416
5998.59093018,0.00094006
6000.51973755,0.00098499
