399.26312622,0.00043481
401.19193359,0.00038307
403.12074097,-0.00026641
405.04954834,0.00065550
406.97835571,0.00062818
408.90716309,0.00055157
410.83597046,0.00095848
412.76477783,0.00047779
414.69358521,0.00049302
416.62239258,0.00089713
418.55119995,0.00064280
420.48000732,0.00008123
422.40881470,0.00035003
424.33762207,0.00016270
426.26642944,0.00023240
428.19523682,0.00059516
430.12404419,0.00051433
432.05285156,0.00071095
433.98165894,0.00014560
435.91046631,0.00056140
437.83927368,0.00046118
439.76808105,-0.00034808
441.69688843,0.00060605
443.62569580,0.00046018
445.55450317,0.00022892
447.48331055,0.00060303
449.41211792,0.00046902
451.34092529,0.00057201
453.26973267,0.00045431
455.19854004,0.00030117
457.12734741,0.00004535
459.05615479,0.00019145
460.98496216,0.00029777
462.91376953,0.00033577
464.84257690,0.00026025
466.77138428,-0.00005823
468.70019165,0.00041106
470.62899902,0.00031041
472.55780640,0.00000069
474.48661377,0.00013569
476.41542114,0.00019317
478.34422852,0.00035259
480.27303589,0.00035097
482.20184326,0.00040258
484.13065063,0.00029849
486.05945801,0.00016143
487.98826538,0.00012619
489.91707275,0.00031643
491.84588013,0.00034379
493.77468750,0.00010131
495.70349487,0.00021665
497.63230225,-0.00001363
499.56110962,-0.00004844
501.48991699,0.00013003
503.41872437,0.00006136
505.34753174,0.00033898
507.27633911,0.00033931
509.20514648,0.00026777
511.13395386,0.00028430
513.06276123,0.00016095
514.99156860,0.00028286
516.92037598,0.00045635
518.84918335,0.00040865
520.77799072,0.00023191
522.70679810,0.00005038
524.63560547,0.00016253
526.56441284,0.00031631
528.49322021,0.00037703
530.42202759,0.00023071
532.35083496,0.00012478
534.27964233,-0.00003179
536.20844971,-0.00025088
538.13725708,0.00036876
540.06606445,0.00020549
541.99487183,-0.00008083
543.92367920,0.00048242
545.85248657,0.00003273
547.78129395,0.00005818
549.71010132,0.00041231
551.63890869,0.00017794
553.56771606,0.00020662
555.49652344,0.00013767
557.42533081,0.00014692
559.35413818,0.00004177
561.28294556,0.00021198
563.21175293,0.00038986
565.14056030,0.00020905
567.06936768,0.00041249
568.99817505,0.00027362
570.92698242,0.00008164
572.85578979,0.00028846
574.78459717,0.00033261
576.71340454,0.00037127
578.64221191,0.00034017
580.57101929,0.00017650
582.49982666,0.00010774
584.42863403,0.00007803
586.35744141,0.00027862
588.28624878,0.00021955
590.21505615,-0.00013841
592.14386353,0.00023769
594.07267090,0.00046897
596.00147827,0.00017582
597.93028564,0.00014763
599.85909302,0.00042000
601.78790039,0.00025432
603.71670776,-0.00024785
605.64551514,0.00009259
607.57432251,0.00031496
609.50312988,0.00027270
611.43193726,0.00044986
613.36074463,0.00037187
615.28955200,0.00045775
617.21835938,0.00034219
619.14716675,0.00013065
621.07597412,0.00010963
623.00478149,0.00024014
624.93358887,0.00018723
626.86239624,0.00030079
628.79120361,0.00045730
630.72001099,-0.00034635
632.64881836,0.00012509
634.57762573,0.00050955
636.50643311,0.00008661
638.43524048,0.00046407
640.36404785,0.00021732
642.29285522,0.00018760
644.22166260,0.00061981
646.15046997,0.00073874
648.07927734,0.00089209
650.00808472,0.00089595
651.93689209,0.00071557
653.86569946,0.00082089
655.79450684,0.00088609
657.72331421,0.00058431
659.65212158,0.00068247
661.58092896,0.00097213
663.50973633,0.00113480
665.43854370,0.00127590
667.36735107,0.00134403
669.29615845,0.00115282
671.22496582,0.00113491
673.15377319,0.00132038
675.08258057,0.00100734
677.01138794,0.00138361
678.94019531,0.00153250
680.86900269,0.00090466
682.79781006,0.00117690
684.72661743,0.00133654
686.65542480,0.00129567
688.58423218,0.00140572
690.51303955,0.00137731
692.44184692,0.00137870
694.37065430,0.00127718
696.29946167,0.00160807
698.22826904,0.00198925
700.15707642,0.00193819
702.08588379,0.00200072
704.01469116,0.00206427
705.94349854,0.00175038
707.87230591,0.00133562
709.80111328,0.00107145
711.72992065,0.00096059
713.65872803,0.00075018
715.58753540,0.00019855
717.51634277,-0.00025282
719.44515015,-0.00003635
721.37395752,0.00042276
723.30276489,0.00013873
725.23157227,-0.00008027
727.16037964,0.00030997
729.08918701,0.00034206
731.01799438,0.00036424
732.94680176,0.00055217
734.87560913,0.00029894
736.80441650,0.00013842
738.73322388,0.00012390
740.66203125,0.00008069
742.59083862,0.00026886
744.51964600,0.00011734
746.44845337,0.00013084
748.37726074,-0.00006833
750.30606812,-0.00000410
752.23487549,0.00026217
754.16368286,0.00012859
756.09249023,0.00025378
758.02129761,-0.00011079
759.95010498,0.00013986
761.87891235,0.00039160
763.80771973,0.00032494
765.73652710,0.00039265
767.66533447,-0.00002591
769.59414185,0.00031313
771.52294922,0.00028108
773.45175659,-0.00004651
775.38056396,0.00029663
777.30937134,0.00030628
779.23817871,0.00016976
781.16698608,0.00026037
783.09579346,0.00051311
785.02460083,0.00024875
786.95340820,0.00012486
788.88221558,0.00054633
790.81102295,0.00028229
792.73983032,0.00023954
794.66863770,0.00051427
796.59744507,0.00025507
798.52625244,0.00033315
800.45505981,0.00032959
802.38386719,0.00012980
804.31267456,0.00044628
806.24148193,0.00050057
808.17028931,0.00040653
810.09909668,0.00033585
812.02790405,0.00008956
813.95671143,0.00017897
815.88551880,0.00007406
817.81432617,0.00007382
819.74313354,0.00025297
821.67194092,0.00007632
823.60074829,0.00036675
825.52955566,0.00051897
827.45836304,0.00029048
829.38717041,0.00036233
831.31597778,0.00021519
833.24478516,0.00024507
835.17359253,0.00060254
837.10239990,0.00057995
839.03120728,0.00063658
840.96001465,0.00083388
842.88882202,0.00061508
844.81762939,0.00051857
846.74643677,0.00049791
848.67524414,0.00031025
850.60405151,0.00037735
852.53285889,0.00036486
854.46166626,0.00033190
856.39047363,0.00035377
858.31928101,0.00054019
860.24808838,0.00061113
862.17689575,0.00013450
864.10570313,0.00012732
866.03451050,0.00033594
867.96331787,0.00034144
869.89212524,0.00035818
871.82093262,0.00017070
873.74973999,0.00013035
875.67854736,0.00054234
877.60735474,0.00039453
879.53616211,-0.00000299
881.46496948,0.00043499
883.39377686,0.00031289
885.32258423,0.00014264
887.25139160,0.00043980
889.18019897,0.00023633
891.10900635,0.00040740
893.03781372,0.00053412
894.96662109,0.00005356
896.89542847,0.00011956
898.82423584,0.00045937
900.75304321,0.00018508
902.68185059,0.00032882
904.61065796,0.00057875
906.53946533,0.00030257
908.46827271,0.00031858
910.39708008,0.00050058
912.32588745,0.00063282
914.25469482,0.00051225
916.18350220,0.00055605
918.11230957,0.00083390
920.04111694,0.00068333
921.96992432,0.00048297
923.89873169,0.00055317
925.82753906,0.00073900
927.75634644,0.00076807
929.68515381,0.00066093
931.61396118,0.00059103
933.54276855,0.00078753
935.47157593,0.00094906
937.40038330,0.00078045
939.32919067,0.00098477
941.25799805,0.00110491
943.18680542,0.00091927
945.11561279,0.00091295
947.04442017,0.00081056
948.97322754,0.00088921
950.90203491,0.00093658
952.83084229,0.00080131
954.75964966,0.00097535
956.68845703,0.00101201
958.61726440,0.00082602
960.54607178,0.00093644
962.47487915,0.00107867
964.40368652,0.00107646
966.33249390,0.00110327
968.26130127,0.00100774
970.19010864,0.00081689
972.11891602,0.00089465
974.04772339,0.00126762
975.97653076,0.00116661
977.90533813,0.00104373
979.83414551,0.00146257
981.76295288,0.00149543
983.69176025,0.00156576
985.62056763,0.00168149
987.54937500,0.00168578
989.47818237,0.00223612
991.40698975,0.00245006
993.33579712,0.00231805
995.26460449,0.00274103
997.19341187,0.00325411
999.12221924,0.00326208
1001.05102661,0.00339236
1002.97983398,0.00363464
1004.90864136,0.00394102
1006.83744873,0.00437954
1008.76625610,0.00422589
1010.69506348,0.00471917
1012.62387085,0.00524522
1014.55267822,0.00516504
1016.48148560,0.00555624
1018.41029297,0.00563982
1020.33910034,0.00603414
1022.26790771,0.00617304
1024.19671509,0.00630470
1026.12552246,0.00675254
1028.05432983,0.00656771
1029.98313721,0.00702838
1031.91194458,0.00706534
1033.84075195,0.00722373
1035.76955933,0.00765119
1037.69836670,0.00742732
1039.62717407,0.00772892
1041.55598145,0.00752846
1043.48478882,0.00753559
1045.41359619,0.00769003
1047.34240356,0.00741412
1049.27121094,0.00737690
1051.20001831,0.00726996
1053.12882568,0.00733204
1055.05763306,0.00694673
1056.98644043,0.00683203
1058.91524780,0.00679830
1060.84405518,0.00642557
1062.77286255,0.00649137
1064.70166992,0.00629712
1066.63047729,0.00607563
1068.55928467,0.00586569
1070.48809204,0.00562893
1072.41689941,0.00525532
1074.34570679,0.00491095
1076.27451416,0.00483317
1078.20332153,0.00463886
1080.13212891,0.00455605
1082.06093628,0.00428089
1083.98974365,0.00416334
1085.91855103,0.00390404
1087.84735840,0.00363447
1089.77616577,0.00365769
1091.70497314,0.00324848
1093.63378052,0.00319013
1095.56258789,0.00316633
1097.49139526,0.00312809
1099.42020264,0.00309869
1101.34901001,0.00294840
1103.27781738,0.00308083
1105.20662476,0.00282365
1107.13543213,0.00294224
1109.06423950,0.00300641
1110.99304687,0.00271337
1112.92185425,0.00295499
1114.85066162,0.00282742
1116.77946899,0.00265780
1118.70827637,0.00279451
1120.63708374,0.00267758
1122.56589111,0.00256571
1124.49469849,0.00272919
1126.42350586,0.00284479
1128.35231323,0.00277966
1130.28112061,0.00292284
1132.20992798,0.00313255
1134.13873535,0.00313552
1136.06754272,0.00316387
1137.99635010,0.00353469
1139.92515747,0.00368305
1141.85396484,0.00363631
1143.78277222,0.00404659
1145.71157959,0.00441088
1147.64038696,0.00461278
1149.56919434,0.00473093
1151.49800171,0.00498963
1153.42680908,0.00536019
1155.35561646,0.00531297
1157.28442383,0.00557999
1159.21323120,0.00600426
1161.14203857,0.00601586
1163.07084595,0.00623042
1164.99965332,0.00655458
1166.92846069,0.00684649
1168.85726807,0.00713342
1170.78607544,0.00734576
1172.71488281,0.00766790
1174.64369019,0.00802737
1176.57249756,0.00826447
1178.50130493,0.00837018
1180.43011230,0.00860812
1182.35891968,0.00908462
1184.28772705,0.00969818
1186.21653442,0.01015579
1188.14534180,0.01048967
1190.07414917,0.01103221
1192.00295654,0.01160143
1193.93176392,0.01211314
1195.86057129,0.01243989
1197.78937866,0.01316956
1199.71818604,0.01392448
1201.64699341,0.01412668
1203.57580078,0.01494304
1205.50460815,0.01550589
1207.43341553,0.01590934
1209.36222290,0.01671572
1211.29103027,0.01702939
1213.21983765,0.01758192
1215.14864502,0.01801506
1217.07745239,0.01823647
1219.00625977,0.01865023
1220.93506714,0.01896905
1222.86387451,0.01938243
1224.79268188,0.01956348
1226.72148926,0.01955748
1228.65029663,0.01969976
1230.57910400,0.02002531
1232.50791138,0.01988726
1234.43671875,0.01976966
1236.36552612,0.02009615
1238.29433350,0.01993544
1240.22314087,0.01994201
1242.15194824,0.02001162
1244.08075562,0.01989660
1246.00956299,0.01983397
1247.93837036,0.01949591
1249.86717773,0.01936094
1251.79598511,0.01923907
1253.72479248,0.01918099
1255.65359985,0.01907381
1257.58240723,0.01860917
1259.51121460,0.01847757
1261.44002197,0.01832829
1263.36882935,0.01797185
1265.29763672,0.01784646
1267.22644409,0.01761987
1269.15525146,0.01717813
1271.08405884,0.01692493
1273.01286621,0.01701433
1274.94167358,0.01678437
1276.87048096,0.01620068
1278.79928833,0.01604052
1280.72809570,0.01573734
1282.65690308,0.01527634
1284.58571045,0.01509221
1286.51451782,0.01479061
1288.44332520,0.01464767
1290.37213257,0.01439876
1292.30093994,0.01427992
1294.22974731,0.01441718
1296.15855469,0.01414801
1298.08736206,0.01415353
1300.01616943,0.01437130
1301.94497681,0.01436438
1303.87378418,0.01432681
1305.80259155,0.01449362
1307.73139893,0.01486153
1309.66020630,0.01506177
1311.58901367,0.01527599
1313.51782104,0.01562215
1315.44662842,0.01600296
1317.37543579,0.01619188
1319.30424316,0.01665405
1321.23305054,0.01746692
1323.16185791,0.01794972
1325.09066528,0.01838873
1327.01947266,0.01883527
1328.94828003,0.01952721
1330.87708740,0.02009813
1332.80589478,0.02028232
1334.73470215,0.02076684
1336.66350952,0.02104187
1338.59231689,0.02089976
1340.52112427,0.02098791
1342.44993164,0.02171068
1344.37873901,0.02217584
1346.30754639,0.02209163
1348.23635376,0.02213138
1350.16516113,0.02205808
1352.09396851,0.02199743
1354.02277588,0.02173040
1355.95158325,0.02145227
1357.88039062,0.02154570
1359.80919800,0.02136673
1361.73800537,0.02019677
1363.66681274,0.01985351
1365.59562012,0.02103406
1367.52442749,0.02043495
1369.45323486,0.02020749
1371.38204224,0.02068203
1373.31084961,0.01955348
1375.23965698,0.01985829
1377.16846436,0.02023139
1379.09727173,0.02006766
1381.02607910,0.02027756
1382.95488647,0.02013923
1384.88369385,0.02024499
1386.81250122,0.01944247
1388.74130859,0.01966716
1390.67011597,0.02132662
1392.59892334,0.02073923
1394.52773071,0.01941093
1396.45653809,0.02027573
1398.38534546,0.02018158
1400.31415283,0.02024873
1402.24296021,0.02192521
1404.17176758,0.02056290
1406.10057495,0.02061598
1408.02938232,0.02158383
1409.95818970,0.02088008
1411.88699707,0.02138805
1413.81580444,0.02052169
1415.74461182,0.02079082
1417.67341919,0.01913228
1419.60222656,0.01706470
1421.53103394,0.01944508
1423.45984131,0.01896749
1425.38864868,0.01826623
1427.31745605,0.01861172
1429.24626343,0.01742780
1431.17507080,0.01687677
1433.10387817,0.01703852
1435.03268555,0.01576573
1436.96149292,0.01338071
1438.89030029,0.01495226
1440.81910767,0.01546849
1442.74791504,0.01442645
1444.67672241,0.01520265
1446.60552979,0.01388651
1448.53433716,0.01408563
1450.46314453,0.01465344
1452.39195190,0.01473246
1454.32075928,0.01540087
1456.24956665,0.01298679
1458.17837402,0.01355792
1460.10718140,0.01768054
1462.03598877,0.01881669
1463.96479614,0.01895632
1465.89360352,0.01968331
1467.82241089,0.02218187
1469.75121826,0.02376777
1471.68002563,0.02135612
1473.60883301,0.02242859
1475.53764038,0.02559472
1477.46644775,0.02754412
1479.39525513,0.03009128
1481.32406250,0.03063041
1483.25286987,0.03246653
1485.18167725,0.03366606
1487.11048462,0.03302816
1489.03929199,0.03276504
1490.96809937,0.03314316
1492.89690674,0.03825232
1494.82571411,0.03775322
1496.75452148,0.03401888
1498.68332886,0.03808242
1500.61213623,0.03942558
1502.54094360,0.04199179
1504.46975098,0.04012785
1506.39855835,0.02966592
1508.32736572,0.03553927
1510.25617310,0.04177174
1512.18498047,0.04029109
1514.11378784,0.04377707
1516.04259521,0.03990373
1517.97140259,0.04113491
1519.90020996,0.04003583
1521.82901733,0.03493965
1523.75782471,0.04217061
1525.68663208,0.04166467
1527.61543945,0.04161048
1529.54424683,0.04594120
1531.47305420,0.04417013
1533.40186157,0.04068271
1535.33066895,0.04306255
1537.25947632,0.04592154
1539.18828369,0.03344849
1541.11709106,0.03471148
1543.04589844,0.04137095
1544.97470581,0.03975365
1546.90351318,0.04686876
1548.83232056,0.04399536
1550.76112793,0.04515202
1552.68993530,0.04505825
1554.61874268,0.04106994
1556.54755005,0.04403427
1558.47635742,0.03167338
1560.40516479,0.03379978
1562.33397217,0.04756553
1564.26277954,0.04497696
1566.19158691,0.04632151
1568.12039429,0.04595254
1570.04920166,0.04085025
1571.97800903,0.04712379
1573.90681641,0.04760128
1575.83562378,0.03804486
1577.76443115,0.04281511
1579.69323853,0.04815929
1581.62204590,0.04617932
1583.55085327,0.04730731
1585.47966064,0.04666863
1587.40846802,0.04707288
1589.33727539,0.04690758
1591.26608276,0.04699045
1593.19489014,0.04687108
1595.12369751,0.04627748
1597.05250488,0.04708073
1598.98131226,0.04683397
1600.91011963,0.04707798
1602.83892700,0.04630192
1604.76773437,0.04705323
1606.69654175,0.04644702
1608.62534912,0.04642668
1610.55415649,0.04641901
1612.48296387,0.04667369
1614.41177124,0.04741179
1616.34057861,0.03915025
1618.26938599,0.04227528
1620.19819336,0.04914890
1622.12700073,0.04371511
1624.05580811,0.04366861
1625.98461548,0.04601470
1627.91342285,0.04597419
1629.84223022,0.04549520
1631.77103760,0.04859743
1633.69984497,0.04511821
1635.62865234,0.03738101
1637.55745972,0.04330379
1639.48626709,0.04745350
1641.41507446,0.04629370
1643.34388184,0.04781923
1645.27268921,0.04332367
1647.20149658,0.03793208
1649.13030396,0.04703829
1651.05911133,0.04508718
1652.98791870,0.02927669
1654.91672607,0.03912181
1656.84553345,0.04898819
1658.77434082,0.04682768
1660.70314819,0.04817912
1662.63195557,0.04394981
1664.56076294,0.04641387
1666.48957031,0.04975633
1668.41837769,0.04373752
1670.34718506,0.04265329
1672.27599243,0.04785949
1674.20479980,0.04442509
1676.13360718,0.04269045
1678.06241455,0.04895294
1679.99122192,0.04724306
1681.92002930,0.04676711
1683.84883667,0.03854792
1685.77764404,0.03782275
1687.70645142,0.05142830
1689.63525879,0.04495120
1691.56406616,0.04912598
1693.49287354,0.05039571
1695.42168091,0.03700520
1697.35048828,0.04535237
1699.27929565,0.04039025
1701.20810303,0.03605239
1703.13691040,0.04889129
1705.06571777,0.04536209
1706.99452515,0.04531905
1708.92333252,0.04914398
1710.85213989,0.04738248
1712.78094727,0.04815523
1714.70975464,0.04490519
1716.63856201,0.04056793
1718.56736938,0.03994568
1720.49617676,0.04687517
1722.42498413,0.04877766
1724.35379150,0.04553970
1726.28259888,0.04923863
1728.21140625,0.04562014
1730.14021362,0.04590699
1732.06902100,0.04495502
1733.99782837,0.03475247
1735.92663574,0.04262573
1737.85544312,0.04723699
1739.78425049,0.04224506
1741.71305786,0.04564494
1743.64186523,0.04627299
1745.57067261,0.04627924
1747.49947998,0.04679269
1749.42828735,0.04497941
1751.35709473,0.04292016
1753.28590210,0.04735696
1755.21470947,0.04967414
1757.14351685,0.04545750
1759.07232422,0.04982679
1761.00113159,0.04716481
1762.92993896,0.04566717
1764.85874634,0.05172572
1766.78755371,0.04658811
1768.71636108,0.04721309
1770.64516846,0.04714149
1772.57397583,0.04254702
1774.50278320,0.04720588
1776.43159058,0.04983198
1778.36039795,0.04910018
1780.28920532,0.04842328
1782.21801270,0.04893408
1784.14682007,0.04896951
1786.07562744,0.04806311
1788.00443481,0.05044533
1789.93324219,0.04927176
1791.86204956,0.04488978
1793.79085693,0.04667407
1795.71966431,0.04995118
1797.64847168,0.04940487
1799.57727905,0.04874008
1801.50608643,0.04789501
1803.43489380,0.04926934
1805.36370117,0.05046166
1807.29250854,0.04982148
1809.22131592,0.04994465
1811.15012329,0.04871304
1813.07893066,0.05018646
1815.00773804,0.05052899
1816.93654541,0.04997269
1818.86535278,0.05046681
1820.79416016,0.05028207
1822.72296753,0.05096128
1824.65177490,0.04781397
1826.58058228,0.04943558
1828.50938965,0.04963501
1830.43819702,0.04667514
1832.36700439,0.05056998
1834.29581177,0.05027767
1836.22461914,0.05039887
1838.15342651,0.05028779
1840.08223389,0.05047141
1842.01104126,0.05067229
1843.93984863,0.04509376
1845.86865601,0.04801381
1847.79746338,0.05060334
1849.72627075,0.04945018
1851.65507812,0.05101024
1853.58388550,0.05000897
1855.51269287,0.05067806
1857.44150024,0.05037281
1859.37030762,0.05008585
1861.29911499,0.05050629
1863.22792236,0.04982810
1865.15672974,0.05057827
1867.08553711,0.04889289
1869.01434448,0.04682432
1870.94315186,0.04870214
1872.87195923,0.05061345
1874.80076660,0.04981438
1876.72957397,0.04997963
1878.65838135,0.05003356
1880.58718872,0.04964878
1882.51599609,0.05011506
1884.44480347,0.04943936
1886.37361084,0.04994676
1888.30241821,0.04893427
1890.23122559,0.04804861
1892.16003296,0.04990586
1894.08884033,0.04932981
1896.01764771,0.04905524
1897.94645508,0.04959448
1899.87526245,0.04945645
1901.80406982,0.04946173
1903.73287720,0.04912496
1905.66168457,0.04955367
1907.59049194,0.04898573
1909.51929932,0.04887513
1911.44810669,0.04937324
1913.37691406,0.04917692
1915.30572144,0.04974220
1917.23452881,0.04766468
1919.16333618,0.04741096
1921.09214355,0.04937660
1923.02095093,0.04808094
1924.94975830,0.04884077
1926.87856567,0.04932008
1928.80737305,0.04892171
1930.73618042,0.04957821
1932.66498779,0.04879399
1934.59379517,0.04919849
1936.52260254,0.04895142
1938.45140991,0.04912905
1940.38021729,0.04911643
1942.30902466,0.04769260
1944.23783203,0.04870918
1946.16663940,0.04905104
1948.09544678,0.04894251
1950.02425415,0.04919577
1951.95306152,0.04895006
1953.88186890,0.04906384
1955.81067627,0.04888157
1957.73948364,0.04914286
1959.66829102,0.04908373
1961.59709839,0.04898461
1963.52590576,0.04917639
1965.45471313,0.04877188
1967.38352051,0.04841620
1969.31232788,0.04892047
1971.24113525,0.04923063
1973.16994263,0.04888762
1975.09875000,0.04907585
1977.02755737,0.04875688
1978.95636475,0.04872173
1980.88517212,0.04891741
1982.81397949,0.04873209
1984.74278687,0.04896152
1986.67159424,0.04859133
1988.60040161,0.04860155
1990.52920898,0.04834000
1992.45801636,0.04781549
1994.38682373,0.04850729
1996.31563110,0.04870505
1998.24443848,0.04844354
2000.17324585,0.04850567
2002.10205322,0.04842032
2004.03086060,0.04829888
2005.95966797,0.04818940
2007.88847534,0.04813899
2009.81728271,0.04821151
2011.74609009,0.04800215
2013.67489746,0.04803531
2015.60370483,0.04786599
2017.53251221,0.04743789
2019.46131958,0.04782640
2021.39012695,0.04779921
2023.31893433,0.04774094
2025.24774170,0.04770791
2027.17654907,0.04741173
2029.10535645,0.04759302
2031.03416382,0.04736767
2032.96297119,0.04733486
2034.89177856,0.04733847
2036.82058594,0.04716597
2038.74939331,0.04720574
2040.67820068,0.04695591
2042.60700806,0.04687420
2044.53581543,0.04692862
2046.46462280,0.04694032
2048.39343018,0.04683640
2050.32223755,0.04677670
2052.25104492,0.04666930
2054.17985229,0.04661962
2056.10865967,0.04683197
2058.03746704,0.04653857
2059.96627441,0.04638858
2061.89508179,0.04650196
2063.82388916,0.04617903
2065.75269653,0.04617468
2067.68150391,0.04633853
2069.61031128,0.04613550
2071.53911865,0.04611568
2073.46792603,0.04607482
2075.39673340,0.04595600
2077.32554077,0.04599964
2079.25434814,0.04591294
2081.18315552,0.04586238
2083.11196289,0.04568931
2085.04077026,0.04560966
2086.96957764,0.04560726
2088.89838501,0.04548900
2090.82719238,0.04552480
2092.75599976,0.04542619
2094.68480713,0.04539901
2096.61361450,0.04536205
2098.54242187,0.04538360
2100.47122925,0.04540034
2102.40003662,0.04519350
2104.32884399,0.04518733
2106.25765137,0.04514204
2108.18645874,0.04514391
2110.11526611,0.04525057
2112.04407349,0.04522017
2113.97288086,0.04507083
2115.90168823,0.04497038
2117.83049561,0.04484955
2119.75930298,0.04475302
2121.68811035,0.04474303
2123.61691772,0.04458996
2125.54572510,0.04473508
2127.47453247,0.04466362
2129.40333984,0.04453363
2131.33214722,0.04478417
2133.26095459,0.04465068
2135.18976196,0.04449992
2137.11856934,0.04444351
2139.04737671,0.04449648
2140.97618408,0.04460238
2142.90499146,0.04451650
2144.83379883,0.04445738
2146.76260620,0.04447476
2148.69141357,0.04443970
2150.62022095,0.04430703
2152.54902832,0.04438096
2154.47783569,0.04442042
2156.40664307,0.04437680
2158.33545044,0.04421704
2160.26425781,0.04407411
2162.19306519,0.04412871
2164.12187256,0.04412621
2166.05067993,0.04423046
2167.97948730,0.04411076
2169.90829468,0.04406761
2171.83710205,0.04408495
2173.76590942,0.04391751
2175.69471680,0.04399936
2177.62352417,0.04404369
2179.55233154,0.04398371
2181.48113892,0.04387307
2183.40994629,0.04395597
2185.33875366,0.04391976
2187.26756104,0.04375847
2189.19636841,0.04388566
2191.12517578,0.04383195
2193.05398315,0.04376812
2194.98279053,0.04373207
2196.91159790,0.04365721
2198.84040527,0.04365288
2200.76921265,0.04364959
2202.69802002,0.04366975
2204.62682739,0.04367281
2206.55563477,0.04356709
2208.48444214,0.04347227
2210.41324951,0.04350368
2212.34205688,0.04333771
2214.27086426,0.04335989
2216.19967163,0.04349877
2218.12847900,0.04346079
2220.05728638,0.04345980
2221.98609375,0.04331648
2223.91490112,0.04326646
2225.84370850,0.04331878
2227.77251587,0.04327108
2229.70132324,0.04313336
2231.63013062,0.04325651
2233.55893799,0.04331430
2235.48774536,0.04307969
2237.41655273,0.04308368
2239.34536011,0.04296093
2241.27416748,0.04286053
2243.20297485,0.04277548
2245.13178223,0.04271827
2247.06058960,0.04277771
2248.98939697,0.04267453
2250.91820435,0.04267288
2252.84701172,0.04256064
2254.77581909,0.04259283
2256.70462646,0.04260628
2258.63343384,0.04251422
2260.56224121,0.04263970
2262.49104858,0.04256959
2264.41985596,0.04254321
2266.34866333,0.04246592
2268.27747070,0.04235855
2270.20627808,0.04239111
2272.13508545,0.04230210
2274.06389282,0.04225294
2275.99270020,0.04224757
2277.92150757,0.04230744
2279.85031494,0.04232114
2281.77912231,0.04221183
2283.70792969,0.04225689
2285.63673706,0.04216995
2287.56554443,0.04197203
2289.49435181,0.04196162
2291.42315918,0.04181382
2293.35196655,0.04178455
2295.28077393,0.04180291
2297.20958130,0.04174223
2299.13838867,0.04171974
2301.06719604,0.04144597
2302.99600342,0.04125848
2304.92481079,0.04101796
2306.85361816,0.04083864
2308.78242554,0.04058930
2310.71123291,0.04017175
2312.64004028,0.04002323
2314.56884766,0.03959663
2316.49765503,0.03913875
2318.42646240,0.03867780
2320.35526978,0.03822504
2322.28407715,0.03782695
2324.21288452,0.03731323
2326.14169189,0.03687985
2328.07049927,0.03640171
2329.99930664,0.03614119
2331.92811401,0.03578328
2333.85692139,0.03568744
2335.78572876,0.03564256
2337.71453613,0.03548931
2339.64334351,0.03565880
2341.57215088,0.03571613
2343.50095825,0.03622090
2345.42976562,0.03674908
2347.35857300,0.03825127
2349.28738037,0.03964079
2351.21618774,0.03828271
2353.14499512,0.03648240
2355.07380249,0.03516553
2357.00260986,0.03411234
2358.93141724,0.03357366
2360.86022461,0.03325783
2362.78903198,0.03314880
2364.71783936,0.03333306
2366.64664673,0.03389113
2368.57545410,0.03440770
2370.50426147,0.03531446
2372.43306885,0.03623560
2374.36187622,0.03713924
2376.29068359,0.03821269
2378.21949097,0.03907867
2380.14829834,0.03977475
2382.07710571,0.04000364
2384.00591309,0.04036889
2385.93472046,0.04064262
2387.86352783,0.04065250
2389.79233521,0.04066243
2391.72114258,0.04060796
2393.64994995,0.04055635
2395.57875732,0.04047153
2397.50756470,0.04057589
2399.43637207,0.04043249
2401.36517944,0.04044615
2403.29398682,0.04038533
2405.22279419,0.04021895
2407.15160156,0.04031730
2409.08040894,0.04020046
2411.00921631,0.04031826
2412.93802368,0.04017687
2414.86683105,0.04014751
2416.79563843,0.04020701
2418.72444580,0.03999067
2420.65325317,0.04007647
2422.58206055,0.04001582
2424.51086792,0.03994014
2426.43967529,0.03984878
2428.36848267,0.04005940
2430.29729004,0.04000245
2432.22609741,0.03975660
2434.15490479,0.03996170
2436.08371216,0.03973681
2438.01251953,0.03989690
2439.94132690,0.04004446
2441.87013428,0.03968611
2443.79894165,0.03960786
2445.72774902,0.03964834
2447.65655640,0.03962993
2449.58536377,0.03954658
2451.51417114,0.03967881
2453.44297852,0.03953471
2455.37178589,0.03941320
2457.30059326,0.03956136
2459.22940063,0.03946450
2461.15820801,0.03948369
2463.08701538,0.03949755
2465.01582275,0.03933528
2466.94463013,0.03915372
2468.87343750,0.03922350
2470.80224487,0.03930920
2472.73105225,0.03928892
2474.65985962,0.03934497
2476.58866699,0.03913657
2478.51747437,0.03906300
2480.44628174,0.03920389
2482.37508911,0.03911908
2484.30389648,0.03902033
2486.23270386,0.03899290
2488.16151123,0.03898909
2490.09031860,0.03898563
2492.01912598,0.03889945
2493.94793335,0.03888424
2495.87674072,0.03884627
2497.80554810,0.03879778
2499.73435547,0.03881013
2501.66316284,0.03865720
2503.59197021,0.03857090
2505.52077759,0.03861652
2507.44958496,0.03877246
2509.37839233,0.03871190
2511.30719971,0.03851729
2513.23600708,0.03856618
2515.16481445,0.03850415
2517.09362183,0.03854547
2519.02242920,0.03842276
2520.95123657,0.03837464
2522.88004395,0.03853434
2524.80885132,0.03842261
2526.73765869,0.03842752
2528.66646606,0.03830012
2530.59527344,0.03827042
2532.52408081,0.03826353
2534.45288818,0.03827238
2536.38169556,0.03830545
2538.31050293,0.03816171
2540.23931030,0.03835553
2542.16811768,0.03816114
2544.09692505,0.03809505
2546.02573242,0.03820337
2547.95453979,0.03800602
2549.88334717,0.03823547
2551.81215454,0.03807287
2553.74096191,0.03777449
2555.66976929,0.03785640
2557.59857666,0.03794452
2559.52738403,0.03794451
2561.45619141,0.03779177
2563.38499878,0.03782399
2565.31380615,0.03780194
2567.24261353,0.03766845
2569.17142090,0.03766213
2571.10022827,0.03768764
2573.02903564,0.03764063
2574.95784302,0.03762040
2576.88665039,0.03766713
2578.81545776,0.03755192
2580.74426514,0.03749023
2582.67307251,0.03756916
2584.60187988,0.03749540
2586.53068726,0.03746425
2588.45949463,0.03751279
2590.38830200,0.03736896
2592.31710937,0.03736887
2594.24591675,0.03731753
2596.17472412,0.03724373
2598.10353149,0.03742240
2600.03233887,0.03725334
2601.96114624,0.03717769
2603.88995361,0.03725487
2605.81876099,0.03711985
2607.74756836,0.03704130
2609.67637573,0.03698565
2611.60518311,0.03704888
2613.53399048,0.03700347
2615.46279785,0.03691436
2617.39160522,0.03689566
2619.32041260,0.03681770
2621.24921997,0.03681475
2623.17802734,0.03679679
2625.10683472,0.03669795
2627.03564209,0.03670142
2628.96444946,0.03680126
2630.89325684,0.03666090
2632.82206421,0.03660452
2634.75087158,0.03665289
2636.67967895,0.03652715
2638.60848633,0.03649760
2640.53729370,0.03649355
2642.46610107,0.03649992
2644.39490845,0.03647074
2646.32371582,0.03639944
2648.25252319,0.03635878
2650.18133057,0.03637813
2652.11013794,0.03633417
2654.03894531,0.03629015
2655.96775269,0.03639248
2657.89656006,0.03624440
2659.82536743,0.03620332
2661.75417480,0.03629574
2663.68298218,0.03623804
2665.61178955,0.03619436
2667.54059692,0.03605538
2669.46940430,0.03601599
2671.39821167,0.03592172
2673.32701904,0.03590983
2675.25582642,0.03605714
2677.18463379,0.03596049
2679.11344116,0.03585264
2681.04224854,0.03583876
2682.97105591,0.03580758
2684.89986328,0.03576289
2686.82867065,0.03577252
2688.75747803,0.03572231
2690.68628540,0.03561219
2692.61509277,0.03558648
2694.54390015,0.03562662
2696.47270752,0.03563636
2698.40151489,0.03551134
2700.33032227,0.03546108
2702.25912964,0.03542684
2704.18793701,0.03543472
2706.11674438,0.03548049
2708.04555176,0.03533536
2709.97435913,0.03531319
2711.90316650,0.03531063
2713.83197388,0.03519515
2715.76078125,0.03519905
2717.68958862,0.03515655
2719.61839600,0.03513188
2721.54720337,0.03517842
2723.47601074,0.03502022
2725.40481812,0.03491344
2727.33362549,0.03500187
2729.26243286,0.03492196
2731.19124023,0.03482577
2733.12004761,0.03493182
2735.04885498,0.03492176
2736.97766235,0.03475802
2738.90646973,0.03480709
2740.83527710,0.03487906
2742.76408447,0.03475194
2744.69289185,0.03469317
2746.62169922,0.03464537
2748.55050659,0.03450256
2750.47931396,0.03450601
2752.40812134,0.03460823
2754.33692871,0.03452914
2756.26573608,0.03447667
2758.19454346,0.03444929
2760.12335083,0.03438231
2762.05215820,0.03436678
2763.98096558,0.03426342
2765.90977295,0.03430562
2767.83858032,0.03422393
2769.76738770,0.03405470
2771.69619507,0.03413495
2773.62500244,0.03408028
2775.55380981,0.03402922
2777.48261719,0.03398835
2779.41142456,0.03395379
2781.34023193,0.03396220
2783.26903931,0.03379618
2785.19784668,0.03376187
2787.12665405,0.03380527
2789.05546143,0.03369398
2790.98426880,0.03364649
2792.91307617,0.03362354
2794.84188354,0.03363775
2796.77069092,0.03363731
2798.69949829,0.03342811
2800.62830566,0.03341725
2802.55711304,0.03339714
2804.48592041,0.03338044
2806.41472778,0.03341550
2808.34353516,0.03312626
2810.27234253,0.03324666
2812.20114990,0.03326977
2814.12995728,0.03311200
2816.05876465,0.03320882
2817.98757202,0.03305889
2819.91637939,0.03304295
2821.84518677,0.03295375
2823.77399414,0.03293337
2825.70280151,0.03287201
2827.63160889,0.03270642
2829.56041626,0.03284443
2831.48922363,0.03281177
2833.41803101,0.03276239
2835.34683838,0.03260579
2837.27564575,0.03256684
2839.20445312,0.03255530
2841.13326050,0.03239666
2843.06206787,0.03233489
2844.99087524,0.03213664
2846.91968262,0.03209536
2848.84848999,0.03188405
2850.77729736,0.03183028
2852.70610474,0.03191812
2854.63491211,0.03180231
2856.56371948,0.03185608
2858.49252686,0.03176361
2860.42133423,0.03176068
2862.35014160,0.03162424
2864.27894897,0.03159035
2866.20775635,0.03175708
2868.13656372,0.03168953
2870.06537109,0.03166529
2871.99417847,0.03150706
2873.92298584,0.03149033
2875.85179321,0.03147250
2877.78060059,0.03138328
2879.70940796,0.03130810
2881.63821533,0.03125209
2883.56702270,0.03134695
2885.49583008,0.03123347
2887.42463745,0.03122028
2889.35344482,0.03114577
2891.28225220,0.03110452
2893.21105957,0.03110927
2895.13986694,0.03085887
2897.06867432,0.03086850
2898.99748169,0.03085394
2900.92628906,0.03075933
2902.85509644,0.03076357
2904.78390381,0.03070722
2906.71271118,0.03058029
2908.64151855,0.03049251
2910.57032593,0.03048974
2912.49913330,0.03043039
2914.42794067,0.03036214
2916.35674805,0.03016932
2918.28555542,0.03007422
2920.21436279,0.03011424
2922.14317017,0.03000809
2924.07197754,0.02995588
2926.00078491,0.02994339
2927.92959229,0.02981101
2929.85839966,0.02980451
2931.78720703,0.02991664
2933.71601440,0.02985569
2935.64482178,0.02984119
2937.57362915,0.02981002
2939.50243652,0.02978397
2941.43124390,0.02983158
2943.36005127,0.02985061
2945.28885864,0.02994657
2947.21766602,0.02987600
2949.14647339,0.02981489
2951.07528076,0.02969845
2953.00408813,0.02962059
2954.93289551,0.02962421
2956.86170288,0.02943426
2958.79051025,0.02949477
2960.71931763,0.02941248
2962.64812500,0.02923293
2964.57693237,0.02928450
2966.50573975,0.02924543
2968.43454712,0.02925979
2970.36335449,0.02930323
2972.29216187,0.02934968
2974.22096924,0.02932201
2976.14977661,0.02929404
2978.07858398,0.02941048
2980.00739136,0.02947759
2981.93619873,0.02944751
2983.86500610,0.02948313
2985.79381348,0.02939890
2987.72262085,0.02918446
2989.65142822,0.02931141
2991.58023560,0.02941622
2993.50904297,0.02930488
2995.43785034,0.02922219
2997.36665771,0.02916427
2999.29546509,0.02916428
3001.22427246,0.02918905
3003.15307983,0.02917283
3005.08188721,0.02900143
3007.01069458,0.02899746
3008.93950195,0.02898496
3010.86830933,0.02879678
3012.79711670,0.02882773
3014.72592407,0.02887425
3016.65473145,0.02876983
3018.58353882,0.02872573
3020.51234619,0.02878341
3022.44115356,0.02858710
3024.36996094,0.02848165
3026.29876831,0.02856107
3028.22757568,0.02848388
3030.15638306,0.02843529
3032.08519043,0.02826258
3034.01399780,0.02830059
3035.94280518,0.02834051
3037.87161255,0.02815182
3039.80041992,0.02821694
3041.72922729,0.02823690
3043.65803467,0.02816007
3045.58684204,0.02807507
3047.51564941,0.02795626
3049.44445679,0.02787496
3051.37326416,0.02786805
3053.30207153,0.02790304
3055.23087891,0.02787333
3057.15968628,0.02774812
3059.08849365,0.02770688
3061.01730103,0.02781012
3062.94610840,0.02771407
3064.87491577,0.02764002
3066.80372314,0.02755098
3068.73253052,0.02747637
3070.66133789,0.02755817
3072.59014526,0.02743654
3074.51895264,0.02742021
3076.44776001,0.02745527
3078.37656738,0.02742068
3080.30537476,0.02733882
3082.23418213,0.02725058
3084.16298950,0.02727149
3086.09179687,0.02718324
3088.02060425,0.02720412
3089.94941162,0.02720127
3091.87821899,0.02707012
3093.80702637,0.02700749
3095.73583374,0.02701401
3097.66464111,0.02688275
3099.59344849,0.02672949
3101.52225586,0.02682933
3103.45106323,0.02673427
3105.37987061,0.02670965
3107.30867798,0.02670208
3109.23748535,0.02654810
3111.16629272,0.02659311
3113.09510010,0.02646478
3115.02390747,0.02636899
3116.95271484,0.02641387
3118.88152222,0.02640804
3120.81032959,0.02631578
3122.73913696,0.02623528
3124.66794434,0.02626243
3126.59675171,0.02623455
3128.52555908,0.02622868
3130.45436645,0.02600536
3132.38317383,0.02588591
3134.31198120,0.02598544
3136.24078857,0.02590381
3138.16959595,0.02585806
3140.09840332,0.02578667
3142.02721069,0.02579289
3143.95601807,0.02572506
3145.88482544,0.02555320
3147.81363281,0.02559427
3149.74244019,0.02553495
3151.67124756,0.02546560
3153.60005493,0.02546101
3155.52886230,0.02537740
3157.45766968,0.02530351
3159.38647705,0.02527178
3161.31528442,0.02531436
3163.24409180,0.02522088
3165.17289917,0.02504434
3167.10170654,0.02502165
3169.03051392,0.02500225
3170.95932129,0.02492146
3172.88812866,0.02486875
3174.81693604,0.02475351
3176.74574341,0.02461079
3178.67455078,0.02470387
3180.60335815,0.02469316
3182.53216553,0.02448285
3184.46097290,0.02454260
3186.38978027,0.02455978
3188.31858765,0.02446322
3190.24739502,0.02443179
3192.17620239,0.02430125
3194.10500977,0.02421039
3196.03381714,0.02419462
3197.96262451,0.02414969
3199.89143188,0.02407545
3201.82023926,0.02409088
3203.74904663,0.02405467
3205.67785400,0.02396563
3207.60666138,0.02399486
3209.53546875,0.02395803
3211.46427612,0.02390794
3213.39308350,0.02384744
3215.32189087,0.02380248
3217.25069824,0.02376555
3219.17950562,0.02369938
3221.10831299,0.02373023
3223.03712036,0.02368280
3224.96592773,0.02360211
3226.89473511,0.02365638
3228.82354248,0.02366537
3230.75234985,0.02352322
3232.68115723,0.02349052
3234.60996460,0.02344654
3236.53877197,0.02336054
3238.46757935,0.02337352
3240.39638672,0.02333239
3242.32519409,0.02339844
3244.25400146,0.02332289
3246.18280884,0.02326351
3248.11161621,0.02333669
3250.04042358,0.02333335
3251.96923096,0.02334567
3253.89803833,0.02317366
3255.82684570,0.02321524
3257.75565308,0.02317821
3259.68446045,0.02306787
3261.61326782,0.02315829
3263.54207520,0.02304760
3265.47088257,0.02316311
3267.39968994,0.02314517
3269.32849731,0.02300590
3271.25730469,0.02311108
3273.18611206,0.02305608
3275.11491943,0.02294088
3277.04372681,0.02294795
3278.97253418,0.02297769
3280.90134155,0.02288619
3282.83014893,0.02292814
3284.75895630,0.02297654
3286.68776367,0.02290338
3288.61657104,0.02287049
3290.54537842,0.02284675
3292.47418579,0.02276254
3294.40299316,0.02270593
3296.33180054,0.02281072
3298.26060791,0.02269925
3300.18941528,0.02270706
3302.11822266,0.02273831
3304.04703003,0.02257502
3305.97583740,0.02263175
3307.90464478,0.02255517
3309.83345215,0.02244447
3311.76225952,0.02241959
3313.69106689,0.02254685
3315.61987427,0.02261236
3317.54868164,0.02242623
3319.47748901,0.02240219
3321.40629639,0.02249004
3323.33510376,0.02252484
3325.26391113,0.02240224
3327.19271851,0.02237512
3329.12152588,0.02238962
3331.05033325,0.02239497
3332.97914062,0.02235268
3334.90794800,0.02229920
3336.83675537,0.02234768
3338.76556274,0.02217748
3340.69437012,0.02223198
3342.62317749,0.02223055
3344.55198486,0.02216250
3346.48079224,0.02222792
3348.40959961,0.02206384
3350.33840698,0.02206029
3352.26721436,0.02200449
3354.19602173,0.02191169
3356.12482910,0.02191216
3358.05363647,0.02195430
3359.98244385,0.02187693
3361.91125122,0.02183274
3363.84005859,0.02191854
3365.76886597,0.02170926
3367.69767334,0.02171867
3369.62648071,0.02176483
3371.55528809,0.02176431
3373.48409546,0.02176921
3375.41290283,0.02174653
3377.34171020,0.02179616
3379.27051758,0.02161380
3381.19932495,0.02158722
3383.12813232,0.02148155
3385.05693970,0.02147041
3386.98574707,0.02148754
3388.91455444,0.02140854
3390.84336182,0.02142100
3392.77216919,0.02121648
3394.70097656,0.02129536
3396.62978394,0.02123313
3398.55859131,0.02114476
3400.48739868,0.02120322
3402.41620605,0.02114769
3404.34501343,0.02115355
3406.27382080,0.02107776
3408.20262817,0.02113239
3410.13143555,0.02099191
3412.06024292,0.02103197
3413.98905029,0.02108463
3415.91785767,0.02097870
3417.84666504,0.02106081
3419.77547241,0.02085508
3421.70427979,0.02076265
3423.63308716,0.02076488
3425.56189453,0.02085559
3427.49070190,0.02088779
3429.41950928,0.02073763
3431.34831665,0.02065203
3433.27712402,0.02065780
3435.20593140,0.02070322
3437.13473877,0.02051204
3439.06354614,0.02059118
3440.99235352,0.02051488
3442.92116089,0.02044546
3444.84996826,0.02053877
3446.77877563,0.02020774
3448.70758301,0.02032142
3450.63639038,0.02051929
3452.56519775,0.02039174
3454.49400513,0.02029721
3456.42281250,0.02025736
3458.35161987,0.02027594
3460.28042725,0.02029871
3462.20923462,0.02026150
3464.13804199,0.02020714
3466.06684937,0.02028252
3467.99565674,0.02023219
3469.92446411,0.02018186
3471.85327148,0.02016007
3473.78207886,0.02018934
3475.71088623,0.02011123
3477.63969360,0.02010710
3479.56850098,0.02016662
3481.49730835,0.01985211
3483.42611572,0.01994940
3485.35492310,0.02000111
3487.28373047,0.01998306
3489.21253784,0.02006523
3491.14134521,0.01999031
3493.07015259,0.02017435
3494.99895996,0.02005279
3496.92776733,0.01991341
3498.85657471,0.01992646
3500.78538208,0.01996401
3502.71418945,0.01965820
3504.64299683,0.01956842
3506.57180420,0.02008956
3508.50061157,0.01987512
3510.42941895,0.01977720
3512.35822632,0.01990677
3514.28703369,0.01990732
3516.21584106,0.01998246
3518.14464844,0.01993204
3520.07345581,0.02004926
3522.00226318,0.01979954
3523.93107056,0.01953959
3525.85987793,0.01958918
3527.78868530,0.01965979
3529.71749268,0.01968680
3531.64630005,0.01983255
3533.57510742,0.02002430
3535.50391479,0.01980622
3537.43272217,0.01966442
3539.36152954,0.01990132
3541.29033691,0.01999058
3543.21914429,0.01969486
3545.14795166,0.01936393
3547.07675903,0.01911445
3549.00556641,0.01972391
3550.93437378,0.01994281
3552.86318115,0.01932122
3554.79198853,0.01977103
3556.72079590,0.01981498
3558.64960327,0.01972997
3560.57841064,0.01967439
3562.50721802,0.01948907
3564.43602539,0.01968774
3566.36483276,0.01836728
3568.29364014,0.01790774
3570.22244751,0.01931879
3572.15125488,0.01985200
3574.08006226,0.01962213
3576.00886963,0.01967240
3577.93767700,0.01967213
3579.86648437,0.01959146
3581.79529175,0.01969518
3583.72409912,0.01977380
3585.65290649,0.01934111
3587.58171387,0.01785697
3589.51052124,0.01834989
3591.43932861,0.01977200
3593.36813599,0.01915834
3595.29694336,0.01897780
3597.22575073,0.01928069
3599.15455811,0.01942219
3601.08336548,0.01926251
3603.01217285,0.01944369
3604.94098022,0.01988705
3606.86978760,0.01907761
3608.79859497,0.01799437
3610.72740234,0.01847114
3612.65620972,0.01887897
3614.58501709,0.01839628
3616.51382446,0.01952808
3618.44263184,0.01814281
3620.37143921,0.01758898
3622.30024658,0.01966542
3624.22905395,0.01925676
3626.15786133,0.02010155
3628.08666870,0.01717392
3630.01547607,0.01575284
3631.94428345,0.01953651
3633.87309082,0.01907484
3635.80189819,0.01935310
3637.73070557,0.01972759
3639.65951294,0.01939468
3641.58832031,0.01958692
3643.51712769,0.01942922
3645.44593506,0.01953745
3647.37474243,0.01762614
3649.30354980,0.01625900
3651.23235718,0.01651689
3653.16116455,0.01947200
3655.08997192,0.01917204
3657.01877930,0.01733842
3658.94758667,0.01976367
3660.87639404,0.01926006
3662.80520142,0.01955314
3664.73400879,0.01951948
3666.66281616,0.01936594
3668.59162354,0.01897231
3670.52043091,0.01564815
3672.44923828,0.01859184
3674.37804565,0.01788148
3676.30685303,0.01486173
3678.23566040,0.01835812
3680.16446777,0.01892107
3682.09327515,0.01889979
3684.02208252,0.01946396
3685.95088989,0.01911999
3687.87969727,0.01726499
3689.80850464,0.01602388
3691.73731201,0.01816287
3693.66611938,0.01861274
3695.59492676,0.01897541
3697.52373413,0.01901792
3699.45254150,0.01888615
3701.38134888,0.01847385
3703.31015625,0.01776409
3705.23896362,0.01939099
3707.16777100,0.01855247
3709.09657837,0.01814406
3711.02538574,0.01713835
3712.95419312,0.01610474
3714.88300049,0.01875066
3716.81180786,0.01840210
3718.74061523,0.01854201
3720.66942261,0.01828736
3722.59822998,0.01764445
3724.52703735,0.01828492
3726.45584473,0.01699303
3728.38465210,0.01833977
3730.31345947,0.01815797
3732.24226685,0.01681811
3734.17107422,0.01647317
3736.09988159,0.01553618
3738.02868896,0.01648718
3739.95749634,0.01781224
3741.88630371,0.01857848
3743.81511108,0.01460970
3745.74391846,0.01372020
3747.67272583,0.01774755
3749.60153320,0.01536930
3751.53034058,0.01415742
3753.45914795,0.01626549
3755.38795532,0.01738273
3757.31676270,0.01808558
3759.24557007,0.01689326
3761.17437744,0.01736922
3763.10318481,0.01837038
3765.03199219,0.01728973
3766.96079956,0.01757458
3768.88960693,0.01732760
3770.81841431,0.01657313
3772.74722168,0.01793113
3774.67602905,0.01804089
3776.60483643,0.01787689
3778.53364380,0.01739753
3780.46245117,0.01682715
3782.39125854,0.01785579
3784.32006592,0.01755417
3786.24887329,0.01739524
3788.17768066,0.01767816
3790.10648804,0.01769981
3792.03529541,0.01757224
3793.96410278,0.01774400
3795.89291016,0.01685150
3797.82171753,0.01671756
3799.75052490,0.01744124
3801.67933228,0.01402155
3803.60813965,0.01631401
3805.53694702,0.01759115
3807.46575439,0.01449498
3809.39456177,0.01740998
3811.32336914,0.01718327
3813.25217651,0.01769314
3815.18098389,0.01595583
3817.10979126,0.01422070
3819.03859863,0.01769080
3820.96740601,0.01444008
3822.89621338,0.01522013
3824.82502075,0.01744295
3826.75382812,0.01593191
3828.68263550,0.01714962
3830.61144287,0.01644300
3832.54025024,0.01602941
3834.46905762,0.01622590
3836.39786499,0.01552778
3838.32667236,0.01411890
3840.25547974,0.01512019
3842.18428711,0.01641862
3844.11309448,0.01565603
3846.04190186,0.01682698
3847.97070923,0.01653670
3849.89951660,0.01658356
3851.82832397,0.01507227
3853.75713135,0.01142080
3855.68593872,0.01343438
3857.61474609,0.01659495
3859.54355347,0.01619219
3861.47236084,0.01604964
3863.40116821,0.01573169
3865.32997559,0.01478729
3867.25878296,0.01634540
3869.18759033,0.01495293
3871.11639770,0.01389107
3873.04520508,0.01634173
3874.97401245,0.01503346
3876.90281982,0.01614301
3878.83162720,0.01654430
3880.76043457,0.01425560
3882.68924194,0.01630631
3884.61804932,0.01537442
3886.54685669,0.01404972
3888.47566406,0.01629735
3890.40447144,0.01550831
3892.33327881,0.01458823
3894.26208618,0.01601645
3896.19089355,0.01626290
3898.11970093,0.01548891
3900.04850830,0.01473843
3901.97731567,0.01452297
3903.90612305,0.01443405
3905.83493042,0.01468652
3907.76373779,0.01594179
3909.69254517,0.01594950
3911.62135254,0.01575672
3913.55015991,0.01596168
3915.47896728,0.01550637
3917.40777466,0.01515241
3919.33658203,0.01499853
3921.26538940,0.01559837
3923.19419678,0.01550786
3925.12300415,0.01509670
3927.05181152,0.01538726
3928.98061890,0.01550831
3930.90942627,0.01524558
3932.83823364,0.01478296
3934.76704102,0.01531859
3936.69584839,0.01547325
3938.62465576,0.01535018
3940.55346313,0.01551626
3942.48227051,0.01490672
3944.41107788,0.01501592
3946.33988525,0.01527914
3948.26869263,0.01494442
3950.19750000,0.01499386
3952.12630737,0.01515662
3954.05511475,0.01521234
3955.98392212,0.01522584
3957.91272949,0.01509393
3959.84153687,0.01512641
3961.77034424,0.01513305
3963.69915161,0.01504761
3965.62795898,0.01508782
3967.55676636,0.01495527
3969.48557373,0.01505788
3971.41438110,0.01501166
3973.34318848,0.01487242
3975.27199585,0.01490819
3977.20080322,0.01479500
3979.12961060,0.01489453
3981.05841797,0.01486122
3982.98722534,0.01478949
3984.91603271,0.01477732
3986.84484009,0.01490664
3988.77364746,0.01478668
3990.70245483,0.01458020
3992.63126221,0.01478331
3994.56006958,0.01468677
3996.48887695,0.01473316
3998.41768433,0.01461434
4000.34649170,0.01457663
4002.27529907,0.01461893
4004.20410645,0.01448680
4006.13291382,0.01464272
4008.06172119,0.01436744
4009.99052856,0.01447561
4011.91933594,0.01449415
4013.84814331,0.01433910
4015.77695068,0.01453488
4017.70575806,0.01432810
4019.63456543,0.01438228
4021.56337280,0.01437603
4023.49218018,0.01429974
4025.42098755,0.01430815
4027.34979492,0.01425137
4029.27860229,0.01421397
4031.20740967,0.01415191
4033.13621704,0.01426906
4035.06502441,0.01417224
4036.99383179,0.01415763
4038.92263916,0.01411804
4040.85144653,0.01401224
4042.78025391,0.01409055
4044.70906128,0.01399660
4046.63786865,0.01393230
4048.56667603,0.01395063
4050.49548340,0.01391037
4052.42429077,0.01386394
4054.35309814,0.01387974
4056.28190552,0.01384084
4058.21071289,0.01386414
4060.13952026,0.01377105
4062.06832764,0.01365815
4063.99713501,0.01376026
4065.92594238,0.01374308
4067.85474976,0.01376184
4069.78355713,0.01368695
4071.71236450,0.01366594
4073.64117187,0.01366116
4075.56997925,0.01363007
4077.49878662,0.01365184
4079.42759399,0.01348589
4081.35640137,0.01351265
4083.28520874,0.01351736
4085.21401611,0.01350510
4087.14282349,0.01347879
4089.07163086,0.01340969
4091.00043823,0.01342894
4092.92924561,0.01336000
4094.85805298,0.01335881
4096.78686035,0.01328867
4098.71566772,0.01326841
4100.64447510,0.01319867
4102.57328247,0.01318843
4104.50208984,0.01322157
4106.43089722,0.01314271
4108.35970459,0.01324464
4110.28851196,0.01318313
4112.21731934,0.01310197
4114.14612671,0.01306337
4116.07493408,0.01305457
4118.00374145,0.01308677
4119.93254883,0.01308995
4121.86135620,0.01306393
4123.79016357,0.01296378
4125.71897095,0.01300758
4127.64777832,0.01289078
4129.57658569,0.01291424
4131.50539307,0.01294607
4133.43420044,0.01278890
4135.36300781,0.01280087
4137.29181519,0.01280405
4139.22062256,0.01281724
4141.14942993,0.01267077
4143.07823730,0.01267858
4145.00704468,0.01265951
4146.93585205,0.01263387
4148.86465942,0.01274037
4150.79346680,0.01257872
4152.72227417,0.01257502
4154.65108154,0.01255078
4156.57988892,0.01263102
4158.50869629,0.01258127
4160.43750366,0.01237937
4162.36631103,0.01253780
4164.29511841,0.01246740
4166.22392578,0.01241207
4168.15273315,0.01239322
4170.08154053,0.01229844
4172.01034790,0.01233136
4173.93915527,0.01233254
4175.86796265,0.01241711
4177.79677002,0.01235450
4179.72557739,0.01221912
4181.65438477,0.01223121
4183.58319214,0.01213188
4185.51199951,0.01214478
4187.44080688,0.01222642
4189.36961426,0.01208642
4191.29842163,0.01216054
4193.22722900,0.01212509
4195.15603638,0.01194284
4197.08484375,0.01202437
4199.01365112,0.01202514
4200.94245850,0.01199090
4202.87126587,0.01189786
4204.80007324,0.01198680
4206.72888062,0.01201404
4208.65768799,0.01183405
4210.58649536,0.01190004
4212.51530273,0.01185983
4214.44411011,0.01184640
4216.37291748,0.01186025
4218.30172485,0.01182046
4220.23053223,0.01179147
4222.15933960,0.01176381
4224.08814697,0.01178496
4226.01695435,0.01171901
4227.94576172,0.01175630
4229.87456909,0.01170027
4231.80337646,0.01161363
4233.73218384,0.01160148
4235.66099121,0.01157471
4237.58979858,0.01158178
4239.51860596,0.01153674
4241.44741333,0.01151890
4243.37622070,0.01145404
4245.30502808,0.01143948
4247.23383545,0.01142097
4249.16264282,0.01142853
4251.09145020,0.01145362
4253.02025757,0.01141761
4254.94906494,0.01135178
4256.87787231,0.01124919
4258.80667969,0.01135867
4260.73548706,0.01135169
4262.66429443,0.01130682
4264.59310181,0.01131759
4266.52190918,0.01124874
4268.45071655,0.01124677
4270.37952393,0.01119398
4272.30833130,0.01118811
4274.23713867,0.01113283
4276.16594604,0.01108708
4278.09475342,0.01104454
4280.02356079,0.01109827
4281.95236816,0.01106895
4283.88117554,0.01091035
4285.80998291,0.01104859
4287.73879028,0.01101245
4289.66759766,0.01096543
4291.59640503,0.01095025
4293.52521240,0.01092799
4295.45401978,0.01097416
4297.38282715,0.01090956
4299.31163452,0.01090961
4301.24044189,0.01072855
4303.16924927,0.01078960
4305.09805664,0.01082681
4307.02686401,0.01071260
4308.95567139,0.01081931
4310.88447876,0.01072500
4312.81328613,0.01074770
4314.74209351,0.01072372
4316.67090088,0.01065842
4318.59970825,0.01073412
4320.52851562,0.01069796
4322.45732300,0.01056916
4324.38613037,0.01043191
4326.31493774,0.01050694
4328.24374512,0.01057149
4330.17255249,0.01056277
4332.10135986,0.01048110
4334.03016724,0.01043944
4335.95897461,0.01046654
4337.88778198,0.01037065
4339.81658936,0.01039787
4341.74539673,0.01042378
4343.67420410,0.01036222
4345.60301147,0.01032961
4347.53181885,0.01032659
4349.46062622,0.01032078
4351.38943359,0.01024900
4353.31824097,0.01017582
4355.24704834,0.01024011
4357.17585571,0.01029731
4359.10466309,0.01017634
4361.03347046,0.01014653
4362.96227783,0.01014305
4364.89108520,0.01015327
4366.81989258,0.01014102
4368.74869995,0.01001786
4370.67750732,0.01006257
4372.60631470,0.01008732
4374.53512207,0.01003200
4376.46392944,0.01004601
4378.39273682,0.00997657
4380.32154419,0.00993446
4382.25035156,0.01000994
4384.17915894,0.00991168
4386.10796631,0.00987110
4388.03677368,0.00993461
4389.96558105,0.00983194
4391.89438843,0.00981113
4393.82319580,0.00980357
4395.75200317,0.00980610
4397.68081055,0.00973698
4399.60961792,0.00970429
4401.53842529,0.00974431
4403.46723267,0.00965093
4405.39604004,0.00969613
4407.32484741,0.00965148
4409.25365478,0.00962094
4411.18246216,0.00962034
4413.11126953,0.00958324
4415.04007690,0.00964738
4416.96888428,0.00962297
4418.89769165,0.00955749
4420.82649902,0.00945281
4422.75530640,0.00959394
4424.68411377,0.00958791
4426.61292114,0.00952172
4428.54172852,0.00957272
4430.47053589,0.00936321
4432.39934326,0.00950486
4434.32815063,0.00954137
4436.25695801,0.00936562
4438.18576538,0.00933855
4440.11457275,0.00929231
4442.04338013,0.00930486
4443.97218750,0.00919470
4445.90099487,0.00922915
4447.82980225,0.00929746
4449.75860962,0.00926409
4451.68741699,0.00923338
4453.61622437,0.00920184
4455.54503174,0.00919463
4457.47383911,0.00917953
4459.40264648,0.00920011
4461.33145386,0.00906966
4463.26026123,0.00910077
4465.18906860,0.00917779
4467.11787598,0.00904330
4469.04668335,0.00902271
4470.97549072,0.00904379
4472.90429810,0.00900983
4474.83310547,0.00901376
4476.76191284,0.00904758
4478.69072021,0.00894552
4480.61952759,0.00893323
4482.54833496,0.00896237
4484.47714233,0.00892550
4486.40594971,0.00894872
4488.33475708,0.00886033
4490.26356445,0.00879578
4492.19237183,0.00876580
4494.12117920,0.00877752
4496.04998657,0.00881100
4497.97879395,0.00878158
4499.90760132,0.00873746
4501.83640869,0.00872632
4503.76521606,0.00867908
4505.69402344,0.00861785
4507.62283081,0.00871889
4509.55163818,0.00864681
4511.48044556,0.00861726
4513.40925293,0.00865017
4515.33806030,0.00856693
4517.26686768,0.00859015
4519.19567505,0.00850733
4521.12448242,0.00856484
4523.05328979,0.00862063
4524.98209717,0.00853472
4526.91090454,0.00844523
4528.83971191,0.00841947
4530.76851929,0.00856354
4532.69732666,0.00847924
4534.62613403,0.00841357
4536.55494141,0.00842572
4538.48374878,0.00829788
4540.41255615,0.00830460
4542.34136353,0.00844230
4544.27017090,0.00842167
4546.19897827,0.00827195
4548.12778564,0.00828441
4550.05659302,0.00830626
4551.98540039,0.00827253
4553.91420776,0.00821664
4555.84301514,0.00820507
4557.77182251,0.00820971
4559.70062988,0.00816323
4561.62943726,0.00815588
4563.55824463,0.00812608
4565.48705200,0.00812617
4567.41585937,0.00809367
4569.34466675,0.00811326
4571.27347412,0.00807100
4573.20228149,0.00799577
4575.13108887,0.00802062
4577.05989624,0.00795537
4578.98870361,0.00797198
4580.91751099,0.00800326
4582.84631836,0.00805319
4584.77512573,0.00799677
4586.70393311,0.00791969
4588.63274048,0.00794254
4590.56154785,0.00790144
4592.49035522,0.00796297
4594.41916260,0.00788118
4596.34796997,0.00787115
4598.27677734,0.00790654
4600.20558472,0.00781941
4602.13439209,0.00782268
4604.06319946,0.00783139
4605.99200684,0.00784318
4607.92081421,0.00772129
4609.84962158,0.00774854
4611.77842895,0.00768806
4613.70723633,0.00758047
4615.63604370,0.00771353
4617.56485107,0.00763764
4619.49365845,0.00764015
4621.42246582,0.00767901
4623.35127319,0.00759863
4625.28008057,0.00756672
4627.20888794,0.00762838
4629.13769531,0.00762171
4631.06650269,0.00751049
4632.99531006,0.00749977
4634.92411743,0.00747141
4636.85292480,0.00755779
4638.78173218,0.00751482
4640.71053955,0.00748665
4642.63934692,0.00749976
4644.56815430,0.00736101
4646.49696167,0.00746941
4648.42576904,0.00737042
4650.35457642,0.00729387
4652.28338379,0.00739917
4654.21219116,0.00742163
4656.14099853,0.00743836
4658.06980591,0.00726488
4659.99861328,0.00733649
4661.92742065,0.00730826
4663.85622803,0.00710811
4665.78503540,0.00718876
4667.71384277,0.00721464
4669.64265015,0.00729781
4671.57145752,0.00723737
4673.50026489,0.00713452
4675.42907227,0.00724649
4677.35787964,0.00720742
4679.28668701,0.00718315
4681.21549438,0.00714036
4683.14430176,0.00711236
4685.07310913,0.00713546
4687.00191650,0.00706424
4688.93072388,0.00711224
4690.85953125,0.00704085
4692.78833862,0.00700775
4694.71714600,0.00704208
4696.64595337,0.00693410
4698.57476074,0.00700588
4700.50356812,0.00699387
4702.43237549,0.00695456
4704.36118286,0.00697018
4706.28999023,0.00690085
4708.21879761,0.00690542
4710.14760498,0.00688727
4712.07641235,0.00685414
4714.00521973,0.00684723
4715.93402710,0.00690753
4717.86283447,0.00683923
4719.79164185,0.00673391
4721.72044922,0.00674734
4723.64925659,0.00675758
4725.57806396,0.00679139
4727.50687134,0.00671237
4729.43567871,0.00674916
4731.36448608,0.00676027
4733.29329346,0.00670079
4735.22210083,0.00675566
4737.15090820,0.00670394
4739.07971558,0.00664073
4741.00852295,0.00656407
4742.93733032,0.00662705
4744.86613770,0.00663609
4746.79494507,0.00656359
4748.72375244,0.00664396
4750.65255981,0.00663585
4752.58136719,0.00661680
4754.51017456,0.00656522
4756.43898193,0.00656001
4758.36778931,0.00656777
4760.29659668,0.00652641
4762.22540405,0.00650795
4764.15421143,0.00650790
4766.08301880,0.00652247
4768.01182617,0.00639431
4769.94063354,0.00640577
4771.86944092,0.00644365
4773.79824829,0.00644356
4775.72705566,0.00647559
4777.65586304,0.00634246
4779.58467041,0.00634023
4781.51347778,0.00636022
4783.44228516,0.00632868
4785.37109253,0.00632697
4787.29989990,0.00630629
4789.22870728,0.00629911
4791.15751465,0.00627352
4793.08632202,0.00635531
4795.01512939,0.00636455
4796.94393677,0.00623727
4798.87274414,0.00621101
4800.80155151,0.00620107
4802.73035889,0.00618527
4804.65916626,0.00626131
4806.58797363,0.00624223
4808.51678101,0.00618369
4810.44558838,0.00620399
4812.37439575,0.00616576
4814.30320312,0.00611437
4816.23201050,0.00607416
4818.16081787,0.00609780
4820.08962524,0.00607709
4822.01843262,0.00603898
4823.94723999,0.00608362
4825.87604736,0.00603663
4827.80485474,0.00599116
4829.73366211,0.00601452
4831.66246948,0.00601945
4833.59127686,0.00593843
4835.52008423,0.00594828
4837.44889160,0.00597491
4839.37769897,0.00591135
4841.30650635,0.00593600
4843.23531372,0.00591788
4845.16412109,0.00594386
4847.09292847,0.00597112
4849.02173584,0.00593692
4850.95054321,0.00592705
4852.87935059,0.00587326
4854.80815796,0.00576321
4856.73696533,0.00572524
4858.66577270,0.00583350
4860.59458008,0.00580365
4862.52338745,0.00576955
4864.45219482,0.00573779
4866.38100220,0.00568754
4868.30980957,0.00571746
4870.23861694,0.00570346
4872.16742432,0.00576544
4874.09623169,0.00570414
4876.02503906,0.00567641
4877.95384644,0.00571042
4879.88265381,0.00572171
4881.81146118,0.00572588
4883.74026855,0.00554281
4885.66907593,0.00554278
4887.59788330,0.00558528
4889.52669067,0.00555881
4891.45549805,0.00552555
4893.38430542,0.00552842
4895.31311279,0.00563681
4897.24192017,0.00560832
4899.17072754,0.00556154
4901.09953491,0.00546732
4903.02834228,0.00547904
4904.95714966,0.00554819
4906.88595703,0.00553070
4908.81476440,0.00552986
4910.74357178,0.00543698
4912.67237915,0.00543581
4914.60118652,0.00547511
4916.52999390,0.00546450
4918.45880127,0.00538805
4920.38760864,0.00537572
4922.31641602,0.00545320
4924.24522339,0.00541197
4926.17403076,0.00534778
4928.10283813,0.00535053
4930.03164551,0.00540435
4931.96045288,0.00530285
4933.88926025,0.00530040
4935.81806763,0.00533323
4937.74687500,0.00525560
4939.67568237,0.00530702
4941.60448975,0.00524854
4943.53329712,0.00527198
4945.46210449,0.00523513
4947.39091187,0.00516481
4949.31971924,0.00525268
4951.24852661,0.00520284
4953.17733398,0.00518384
4955.10614136,0.00508402
4957.03494873,0.00511456
4958.96375610,0.00521481
4960.89256348,0.00507481
4962.82137085,0.00514025
4964.75017822,0.00517037
4966.67898560,0.00507153
4968.60779297,0.00510072
4970.53660034,0.00506378
4972.46540771,0.00507073
4974.39421509,0.00507740
4976.32302246,0.00505760
4978.25182983,0.00510795
4980.18063721,0.00502361
4982.10944458,0.00499885
4984.03825195,0.00500737
4985.96705933,0.00494658
4987.89586670,0.00493695
4989.82467407,0.00494767
4991.75348145,0.00504105
4993.68228882,0.00497553
4995.61109619,0.00497043
4997.53990356,0.00500480
4999.46871094,0.00485536
5001.39751831,0.00487470
5003.32632568,0.00485588
5005.25513306,0.00482965
5007.18394043,0.00484241
5009.11274780,0.00484957
5011.04155518,0.00491180
5012.97036255,0.00485403
5014.89916992,0.00479427
5016.82797729,0.00479009
5018.75678467,0.00478531
5020.68559204,0.00470522
5022.61439941,0.00473406
5024.54320679,0.00478462
5026.47201416,0.00474152
5028.40082153,0.00475299
5030.32962891,0.00469674
5032.25843628,0.00472158
5034.18724365,0.00472558
5036.11605103,0.00471376
5038.04485840,0.00471835
5039.97366577,0.00465207
5041.90247314,0.00465258
5043.83128052,0.00459605
5045.76008789,0.00457759
5047.68889526,0.00459238
5049.61770264,0.00457244
5051.54651001,0.00454758
5053.47531738,0.00457619
5055.40412476,0.00455890
5057.33293213,0.00449324
5059.26173950,0.00460892
5061.19054687,0.00457806
5063.11935425,0.00450975
5065.04816162,0.00451408
5066.97696899,0.00447936
5068.90577637,0.00448679
5070.83458374,0.00439823
5072.76339111,0.00441395
5074.69219849,0.00449134
5076.62100586,0.00447970
5078.54981323,0.00442627
5080.47862061,0.00439238
5082.40742798,0.00437887
5084.33623535,0.00438434
5086.26504272,0.00445681
5088.19385010,0.00439659
5090.12265747,0.00438177
5092.05146484,0.00442946
5093.98027222,0.00436381
5095.90907959,0.00433424
5097.83788696,0.00434892
5099.76669434,0.00432726
5101.69550171,0.00426939
5103.62430908,0.00430538
5105.55311645,0.00429627
5107.48192383,0.00425109
5109.41073120,0.00430743
5111.33953857,0.00424772
5113.26834595,0.00420239
5115.19715332,0.00429019
5117.12596069,0.00420574
5119.05476807,0.00412708
5120.98357544,0.00422830
5122.91238281,0.00420929
5124.84119019,0.00419092
5126.76999756,0.00417946
5128.69880493,0.00414092
5130.62761230,0.00417105
5132.55641968,0.00412916
5134.48522705,0.00410709
5136.41403442,0.00414305
5138.34284180,0.00415810
5140.27164917,0.00406142
5142.20045654,0.00405204
5144.12926392,0.00405703
5146.05807129,0.00399120
5147.98687866,0.00415585
5149.91568603,0.00410887
5151.84449341,0.00398909
5153.77330078,0.00406924
5155.70210815,0.00400280
5157.63091553,0.00400070
5159.55972290,0.00403655
5161.48853027,0.00398140
5163.41733765,0.00402539
5165.34614502,0.00407217
5167.27495239,0.00404434
5169.20375977,0.00405013
5171.13256714,0.00394581
5173.06137451,0.00392143
5174.99018188,0.00400516
5176.91898926,0.00392272
5178.84779663,0.00392611
5180.77660400,0.00393931
5182.70541138,0.00394558
5184.63421875,0.00394656
5186.56302612,0.00386848
5188.49183350,0.00383682
5190.42064087,0.00377445
5192.34944824,0.00377098
5194.27825562,0.00379109
5196.20706299,0.00380533
5198.13587036,0.00380650
5200.06467773,0.00387117
5201.99348511,0.00387471
5203.92229248,0.00376022
5205.85109985,0.00379578
5207.77990723,0.00371104
5209.70871460,0.00371876
5211.63752197,0.00380204
5213.56632935,0.00374565
5215.49513672,0.00378800
5217.42394409,0.00371318
5219.35275146,0.00367866
5221.28155884,0.00378477
5223.21036621,0.00380799
5225.13917358,0.00369482
5227.06798096,0.00363072
5228.99678833,0.00369067
5230.92559570,0.00367908
5232.85440308,0.00361433
5234.78321045,0.00356822
5236.71201782,0.00365698
5238.64082520,0.00363121
5240.56963257,0.00359700
5242.49843994,0.00372033
5244.42724731,0.00357718
5246.35605469,0.00347872
5248.28486206,0.00356864
5250.21366943,0.00355484
5252.14247681,0.00356691
5254.07128418,0.00355361
5256.00009155,0.00349064
5257.92889893,0.00359090
5259.85770630,0.00363564
5261.78651367,0.00355817
5263.71532104,0.00351743
5265.64412842,0.00343739
5267.57293579,0.00347209
5269.50174316,0.00348061
5271.43055054,0.00347250
5273.35935791,0.00351384
5275.28816528,0.00346034
5277.21697266,0.00353146
5279.14578003,0.00352622
5281.07458740,0.00346516
5283.00339478,0.00346680
5284.93220215,0.00340956
5286.86100952,0.00346850
5288.78981689,0.00344667
5290.71862427,0.00333368
5292.64743164,0.00342041
5294.57623901,0.00347082
5296.50504639,0.00336351
5298.43385376,0.00336371
5300.36266113,0.00336005
5302.29146851,0.00332682
5304.22027588,0.00336095
5306.14908325,0.00333081
5308.07789062,0.00336330
5310.00669800,0.00341097
5311.93550537,0.00337446
5313.86431274,0.00332951
5315.79312012,0.00328301
5317.72192749,0.00328549
5319.65073486,0.00331351
5321.57954224,0.00330114
5323.50834961,0.00326589
5325.43715698,0.00326612
5327.36596436,0.00320447
5329.29477173,0.00315160
5331.22357910,0.00322221
5333.15238647,0.00321470
5335.08119385,0.00324024
5337.01000122,0.00325348
5338.93880859,0.00308652
5340.86761597,0.00323049
5342.79642334,0.00324030
5344.72523071,0.00292778
5346.65403809,0.00312933
5348.58284546,0.00317228
5350.51165283,0.00306530
5352.44046020,0.00311860
5354.36926758,0.00296993
5356.29807495,0.00315036
5358.22688232,0.00318368
5360.15568970,0.00308661
5362.08449707,0.00316773
5364.01330444,0.00304880
5365.94211182,0.00307988
5367.87091919,0.00312876
5369.79972656,0.00313818
5371.72853394,0.00316626
5373.65734131,0.00310686
5375.58614868,0.00297555
5377.51495605,0.00294998
5379.44376343,0.00310999
5381.37257080,0.00307488
5383.30137817,0.00302808
5385.23018555,0.00301038
5387.15899292,0.00297245
5389.08780029,0.00303387
5391.01660767,0.00304580
5392.94541504,0.00296721
5394.87422241,0.00291245
5396.80302978,0.00296525
5398.73183716,0.00292125
5400.66064453,0.00293829
5402.58945190,0.00295787
5404.51825928,0.00291722
5406.44706665,0.00295837
5408.37587402,0.00290530
5410.30468140,0.00289579
5412.23348877,0.00284801
5414.16229614,0.00281013
5416.09110352,0.00283677
5418.01991089,0.00284745
5419.94871826,0.00287399
5421.87752563,0.00282558
5423.80633301,0.00278051
5425.73514038,0.00278829
5427.66394775,0.00287437
5429.59275513,0.00276475
5431.52156250,0.00275419
5433.45036987,0.00290743
5435.37917725,0.00271937
5437.30798462,0.00270314
5439.23679199,0.00281534
5441.16559936,0.00278244
5443.09440674,0.00277677
5445.02321411,0.00271451
5446.95202148,0.00270436
5448.88082886,0.00272693
5450.80963623,0.00272911
5452.73844360,0.00277359
5454.66725098,0.00275048
5456.59605835,0.00271806
5458.52486572,0.00277843
5460.45367310,0.00272757
5462.38248047,0.00268422
5464.31128784,0.00272167
5466.24009521,0.00275262
5468.16890259,0.00271888
5470.09770996,0.00264899
5472.02651733,0.00278320
5473.95532471,0.00271283
5475.88413208,0.00260316
5477.81293945,0.00266512
5479.74174683,0.00262551
5481.67055420,0.00267298
5483.59936157,0.00266223
5485.52816895,0.00270142
5487.45697632,0.00265743
5489.38578369,0.00261781
5491.31459106,0.00268128
5493.24339844,0.00254268
5495.17220581,0.00263989
5497.10101318,0.00266581
5499.02982056,0.00256144
5500.95862793,0.00264271
5502.88743530,0.00261840
5504.81624268,0.00255437
5506.74505005,0.00253287
5508.67385742,0.00253924
5510.60266479,0.00247569
5512.53147217,0.00248993
5514.46027954,0.00254345
5516.38908691,0.00251623
5518.31789429,0.00253298
5520.24670166,0.00248362
5522.17550903,0.00251515
5524.10431641,0.00256188
5526.03312378,0.00251089
5527.96193115,0.00250821
5529.89073853,0.00251669
5531.81954590,0.00255258
5533.74835327,0.00254317
5535.67716064,0.00245678
5537.60596802,0.00245813
5539.53477539,0.00250736
5541.46358276,0.00251052
5543.39239014,0.00251642
5545.32119751,0.00246372
5547.25000488,0.00241275
5549.17881226,0.00242803
5551.10761963,0.00242965
5553.03642700,0.00242712
5554.96523437,0.00244113
5556.89404175,0.00242754
5558.82284912,0.00232782
5560.75165649,0.00235170
5562.68046387,0.00244183
5564.60927124,0.00237853
5566.53807861,0.00238173
5568.46688599,0.00242075
5570.39569336,0.00235376
5572.32450073,0.00238225
5574.25330811,0.00245220
5576.18211548,0.00236563
5578.11092285,0.00231353
5580.03973022,0.00231411
5581.96853760,0.00233926
5583.89734497,0.00235789
5585.82615234,0.00227619
5587.75495972,0.00234085
5589.68376709,0.00236396
5591.61257446,0.00230735
5593.54138184,0.00234364
5595.47018921,0.00225766
5597.39899658,0.00223589
5599.32780395,0.00231263
5601.25661133,0.00226338
5603.18541870,0.00222786
5605.11422607,0.00226139
5607.04303345,0.00225044
5608.97184082,0.00228535
5610.90064819,0.00229356
5612.82945557,0.00225488
5614.75826294,0.00231338
5616.68707031,0.00227273
5618.61587769,0.00220864
5620.54468506,0.00223669
5622.47349243,0.00225009
5624.40229980,0.00222971
5626.33110718,0.00221842
5628.25991455,0.00227146
5630.18872192,0.00222496
5632.11752930,0.00218738
5634.04633667,0.00225825
5635.97514404,0.00217172
5637.90395142,0.00205610
5639.83275879,0.00216802
5641.76156616,0.00219971
5643.69037353,0.00214109
5645.61918091,0.00221284
5647.54798828,0.00214243
5649.47679565,0.00209910
5651.40560303,0.00214497
5653.33441040,0.00213855
5655.26321777,0.00216615
5657.19202515,0.00211473
5659.12083252,0.00216630
5661.04963989,0.00215707
5662.97844727,0.00201938
5664.90725464,0.00210487
5666.83606201,0.00215328
5668.76486938,0.00209774
5670.69367676,0.00208701
5672.62248413,0.00205665
5674.55129150,0.00208247
5676.48009888,0.00207129
5678.40890625,0.00201662
5680.33771362,0.00204807
5682.26652100,0.00205419
5684.19532837,0.00206280
5686.12413574,0.00205394
5688.05294311,0.00202517
5689.98175049,0.00202701
5691.91055786,0.00200633
5693.83936523,0.00199970
5695.76817261,0.00199817
5697.69697998,0.00206989
5699.62578735,0.00202006
5701.55459473,0.00196677
5703.48340210,0.00203585
5705.41220947,0.00198244
5707.34101685,0.00200994
5709.26982422,0.00196731
5711.19863159,0.00198399
5713.12743896,0.00207767
5715.05624634,0.00199898
5716.98505371,0.00202363
5718.91386108,0.00197574
5720.84266846,0.00191988
5722.77147583,0.00193827
5724.70028320,0.00194209
5726.62909058,0.00194534
5728.55789795,0.00188921
5730.48670532,0.00187912
5732.41551270,0.00190846
5734.34432007,0.00194960
5736.27312744,0.00189474
5738.20193481,0.00191318
5740.13074219,0.00190594
5742.05954956,0.00182684
5743.98835693,0.00190186
5745.91716431,0.00185184
5747.84597168,0.00184633
5749.77477905,0.00192488
5751.70358643,0.00191720
5753.63239380,0.00182293
5755.56120117,0.00175751
5757.49000854,0.00187693
5759.41881592,0.00187314
5761.34762329,0.00182292
5763.27643066,0.00184058
5765.20523804,0.00180380
5767.13404541,0.00175752
5769.06285278,0.00174549
5770.99166016,0.00174729
5772.92046753,0.00173950
5774.84927490,0.00176382
5776.77808228,0.00179319
5778.70688965,0.00181101
5780.63569702,0.00175033
5782.56450439,0.00180511
5784.49331177,0.00185310
5786.42211914,0.00175852
5788.35092651,0.00179078
5790.27973389,0.00174068
5792.20854126,0.00172328
5794.13734863,0.00177851
5796.06615601,0.00174441
5797.99496338,0.00176287
5799.92377075,0.00174684
5801.85257812,0.00170675
5803.78138550,0.00170871
5805.71019287,0.00173289
5807.63900024,0.00174248
5809.56780762,0.00173168
5811.49661499,0.00168504
5813.42542236,0.00165415
5815.35422974,0.00164062
5817.28303711,0.00160812
5819.21184448,0.00163229
5821.14065186,0.00168635
5823.06945923,0.00170117
5824.99826660,0.00164782
5826.92707397,0.00170091
5828.85588135,0.00168675
5830.78468872,0.00160618
5832.71349609,0.00165145
5834.64230347,0.00165907
5836.57111084,0.00169635
5838.49991821,0.00161152
5840.42872559,0.00162407
5842.35753296,0.00167466
5844.28634033,0.00157871
5846.21514770,0.00164653
5848.14395508,0.00159838
5850.07276245,0.00156837
5852.00156982,0.00157380
5853.93037720,0.00155256
5855.85918457,0.00161657
5857.78799194,0.00163078
5859.71679932,0.00162191
5861.64560669,0.00151351
5863.57441406,0.00156735
5865.50322144,0.00158597
5867.43202881,0.00153188
5869.36083618,0.00159990
5871.28964355,0.00150559
5873.21845093,0.00155303
5875.14725830,0.00160686
5877.07606567,0.00152818
5879.00487305,0.00155456
5880.93368042,0.00150123
5882.86248779,0.00149175
5884.79129517,0.00156455
5886.72010254,0.00152386
5888.64890991,0.00151085
5890.57771728,0.00149922
5892.50652466,0.00141369
5894.43533203,0.00145028
5896.36413940,0.00149599
5898.29294678,0.00147223
5900.22175415,0.00147064
5902.15056152,0.00145519
5904.07936890,0.00140266
5906.00817627,0.00143796
5907.93698364,0.00152578
5909.86579102,0.00147688
5911.79459839,0.00150317
5913.72340576,0.00147895
5915.65221313,0.00142609
5917.58102051,0.00151003
5919.50982788,0.00148695
5921.43863525,0.00148166
5923.36744263,0.00144886
5925.29625000,0.00144423
5927.22505737,0.00144608
5929.15386475,0.00137439
5931.08267212,0.00142506
5933.01147949,0.00142715
5934.94028686,0.00140409
5936.86909424,0.00140154
5938.79790161,0.00139603
5940.72670898,0.00142649
5942.65551636,0.00143977
5944.58432373,0.00140570
5946.51313110,0.00138893
5948.44193848,0.00140579
5950.37074585,0.00136126
5952.29955322,0.00138114
5954.22836060,0.00138046
5956.15716797,0.00137583
5958.08597534,0.00139303
5960.01478271,0.00132555
5961.94359009,0.00132531
5963.87239746,0.00132466
5965.80120483,0.00134753
5967.73001221,0.00139247
5969.65881958,0.00137384
5971.58762695,0.00133827
5973.51643433,0.00131136
5975.44524170,0.00129570
5977.37404907,0.00131208
5979.30285645,0.00135557
5981.23166382,0.00133098
5983.16047119,0.00136271
5985.08927856,0.00136440
5987.01808594,0.00127975
5988.94689331,0.00130730
5990.87570068,0.00140956
5992.80450806,0.00141493
5994.73331543,0.00131018
5996.66212280,0.00126498
5998.59093018,0.00122125
6000.51973755,0.00126233
