399.26312622,0.00067713
401.19193359,0.00021433
403.12074097,0.00021633
405.04954834,0.00030451
406.97835571,0.00026963
408.90716309,0.00078916
410.83597046,0.00073641
412.76477783,0.00049665
414.69358521,0.00032157
416.62239258,0.00040202
418.55119995,0.00071788
420.48000732,0.00057977
422.40881470,0.00066490
424.33762207,0.00058846
426.26642944,0.00012366
428.19523682,0.00051394
430.12404419,0.00090490
432.05285156,0.00036596
433.98165894,0.00062151
435.91046631,0.00059299
437.83927368,0.00029361
439.76808105,0.00099750
441.69688843,0.00071528
443.62569580,0.00036168
445.55450317,0.00028013
447.48331055,0.00075751
449.41211792,0.00119202
451.34092529,0.00004847
453.26973267,0.00014466
455.19854004,0.00041910
457.12734741,0.00020607
459.05615479,0.00051244
460.98496216,0.00043378
462.91376953,0.00046924
464.84257690,0.00009443
466.77138428,0.00004570
468.70019165,0.00021260
470.62899902,0.00039076
472.55780640,0.00046583
474.48661377,-0.00005165
476.41542114,0.00028845
478.34422852,0.00059773
480.27303589,0.00037111
482.20184326,0.00030794
484.13065063,0.00048958
486.05945801,0.00011589
487.98826538,-0.00025173
489.91707275,0.00064492
491.84588013,0.00036578
493.77468750,-0.00031763
495.70349487,0.00019743
497.63230225,0.00013592
499.56110962,0.00028571
501.48991699,0.00056567
503.41872437,-0.00006128
505.34753174,0.00004971
507.27633911,0.00046101
509.20514648,0.00017718
511.13395386,0.00018402
513.06276123,0.00031548
514.99156860,0.00032711
516.92037598,0.00020352
518.84918335,0.00007956
520.77799072,0.00008325
522.70679810,0.00000870
524.63560547,0.00000448
526.56441284,0.00008798
528.49322021,0.00006367
530.42202759,-0.00027224
532.35083496,-0.00005234
534.27964233,0.00047795
536.20844971,0.00027298
538.13725708,0.00015310
540.06606445,0.00047195
541.99487183,0.00044813
543.92367920,0.00006234
545.85248657,0.00012458
547.78129395,0.00004415
549.71010132,0.00007458
551.63890869,0.00034191
553.56771606,-0.00011569
555.49652344,-0.00003541
557.42533081,0.00019665
559.35413818,0.00017528
561.28294556,0.00033211
563.21175293,0.00006495
565.14056030,0.00005188
567.06936768,0.00011213
568.99817505,0.00024033
570.92698242,0.00029640
572.85578979,0.00019171
574.78459717,0.00030692
576.71340454,0.00015426
578.64221191,0.00024554
580.57101929,0.00020954
582.49982666,0.00008089
584.42863403,0.00035346
586.35744141,0.00039763
588.28624878,0.00040902
590.21505615,0.00014038
592.14386353,-0.00010824
594.07267090,0.00028774
596.00147827,0.00075131
597.93028564,0.00029635
599.85909302,0.00014141
601.78790039,0.00036199
603.71670776,0.00025848
605.64551514,0.00040974
607.57432251,0.00012970
609.50312988,0.00001657
611.43193726,0.00008831
613.36074463,0.00022495
615.28955200,-0.00004272
617.21835938,0.00016119
619.14716675,0.00000372
621.07597412,0.00004669
623.00478149,0.00058238
624.93358887,0.00012451
626.86239624,0.00069887
628.79120361,0.00063041
630.72001099,0.00032573
632.64881836,0.00023393
634.57762573,0.00011414
636.50643311,0.00072553
638.43524048,0.00026196
640.36404785,0.00046205
642.29285522,0.00047608
644.22166260,0.00034259
646.15046997,0.00117901
648.07927734,0.00096028
650.00808472,0.00089705
651.93689209,0.00069669
653.86569946,0.00058767
655.79450684,0.00107999
657.72331421,0.00095553
659.65212158,0.00077355
661.58092896,0.00100488
663.50973633,0.00138283
665.43854370,0.00126688
667.36735107,0.00113859
669.29615845,0.00131967
671.22496582,0.00133734
673.15377319,0.00121139
675.08258057,0.00119665
677.01138794,0.00109005
678.94019531,0.00113493
680.86900269,0.00137433
682.79781006,0.00101784
684.72661743,0.00113799
686.65542480,0.00114694
688.58423218,0.00098657
690.51303955,0.00142326
692.44184692,0.00124049
694.37065430,0.00148699
696.29946167,0.00161640
698.22826904,0.00170300
700.15707642,0.00221214
702.08588379,0.00189349
704.01469116,0.00182077
705.94349854,0.00144763
707.87230591,0.00115226
709.80111328,0.00131210
711.72992065,0.00101637
713.65872803,0.00078146
715.58753540,0.00018911
717.51634277,0.00023284
719.44515015,0.00036135
721.37395752,-0.00001675
723.30276489,0.00021170
725.23157227,0.00002587
727.16037964,0.00011927
729.08918701,0.00024469
731.01799438,-0.00003853
732.94680176,0.00029478
734.87560913,0.00029733
736.80441650,0.00011644
738.73322388,-0.00012148
740.66203125,0.00003296
742.59083862,0.00039076
744.51964600,-0.00009379
746.44845337,-0.00017128
748.37726074,-0.00000303
750.30606812,-0.00007676
752.23487549,-0.00005042
754.16368286,-0.00004466
756.09249023,0.00013817
758.02129761,0.00003306
759.95010498,0.00004696
761.87891235,0.00028578
763.80771973,-0.00001809
765.73652710,0.00002894
767.66533447,0.00015435
769.59414185,0.00021727
771.52294922,0.00016232
773.45175659,0.00008263
775.38056396,0.00019313
777.30937134,0.00030501
779.23817871,0.00060448
781.16698608,0.00029012
783.09579346,0.00018644
785.02460083,0.00046733
786.95340820,0.00031961
788.88221558,0.00006822
790.81102295,0.00018327
792.73983032,0.00040334
794.66863770,-0.00010346
796.59744507,-0.00010502
798.52625244,0.00008990
800.45505981,0.00031969
802.38386719,0.00048649
804.31267456,-0.00001844
806.24148193,0.00018402
808.17028931,0.00003869
810.09909668,0.00004415
812.02790405,0.00051742
813.95671143,0.00028784
815.88551880,0.00023851
817.81432617,0.00021414
819.74313354,0.00036080
821.67194092,0.00042203
823.60074829,0.00024268
825.52955566,0.00040592
827.45836304,0.00032015
829.38717041,0.00020735
831.31597778,0.00044531
833.24478516,0.00060908
835.17359253,0.00072266
837.10239990,0.00049070
839.03120728,0.00035357
840.96001465,0.00074193
842.88882202,0.00052967
844.81762939,0.00038343
846.74643677,0.00050241
848.67524414,0.00032391
850.60405151,0.00053512
852.53285889,0.00056733
854.46166626,0.00067560
856.39047363,0.00060510
858.31928101,0.00015726
860.24808838,0.00043538
862.17689575,0.00045433
864.10570313,0.00023339
866.03451050,0.00042004
867.96331787,0.00038987
869.89212524,0.00028525
871.82093262,0.00021296
873.74973999,0.00016681
875.67854736,0.00053250
877.60735474,0.00055125
879.53616211,0.00012006
881.46496948,0.00022599
883.39377686,0.00038468
885.32258423,0.00026792
887.25139160,0.00007763
889.18019897,0.00026993
891.10900635,0.00044594
893.03781372,0.00028511
894.96662109,0.00036163
896.89542847,0.00032943
898.82423584,0.00029945
900.75304321,0.00025370
902.68185059,0.00047238
904.61065796,0.00052439
906.53946533,0.00026072
908.46827271,0.00040680
910.39708008,0.00030524
912.32588745,0.00032280
914.25469482,0.00035027
916.18350220,0.00046226
918.11230957,0.00060143
920.04111694,0.00050164
921.96992432,0.00081914
923.89873169,0.00068321
925.82753906,0.00039573
927.75634644,0.00043702
929.68515381,0.00071168
931.61396118,0.00089418
933.54276855,0.00060381
935.47157593,0.00057598
937.40038330,0.00079482
939.32919067,0.00104829
941.25799805,0.00072402
943.18680542,0.00050600
945.11561279,0.00076705
947.04442017,0.00070515
948.97322754,0.00091495
950.90203491,0.00080543
952.83084229,0.00065491
954.75964966,0.00100122
956.68845703,0.00084387
958.61726440,0.00069584
960.54607178,0.00089414
962.47487915,0.00089272
964.40368652,0.00088871
966.33249390,0.00091009
968.26130127,0.00092042
970.19010864,0.00093462
972.11891602,0.00084432
974.04772339,0.00122773
975.97653076,0.00128459
977.90533813,0.00103033
979.83414551,0.00139461
981.76295288,0.00138698
983.69176025,0.00149977
985.62056763,0.00175466
987.54937500,0.00177557
989.47818237,0.00202279
991.40698975,0.00224093
993.33579712,0.00248781
995.26460449,0.00261380
997.19341187,0.00303396
999.12221924,0.00333383
1001.05102661,0.00336864
1002.97983398,0.00360600
1004.90864136,0.00390772
1006.83744873,0.00436644
1008.76625610,0.00431439
1010.69506348,0.00458074
1012.62387085,0.00493512
1014.55267822,0.00506871
1016.48148560,0.00558019
1018.41029297,0.00550088
1020.33910034,0.00582640
1022.26790771,0.00625724
1024.19671509,0.00635913
1026.12552246,0.00652562
1028.05432983,0.00662134
1029.98313721,0.00736448
1031.91194458,0.00745112
1033.84075195,0.00741580
1035.76955933,0.00772520
1037.69836670,0.00755396
1039.62717407,0.00775610
1041.55598145,0.00779156
1043.48478882,0.00771001
1045.41359619,0.00761616
1047.34240356,0.00739177
1049.27121094,0.00740830
1051.20001831,0.00741636
1053.12882568,0.00738306
1055.05763306,0.00711759
1056.98644043,0.00685026
1058.91524780,0.00653451
1060.84405518,0.00625365
1062.77286255,0.00610972
1064.70166992,0.00605316
1066.63047729,0.00611968
1068.55928467,0.00565686
1070.48809204,0.00529592
1072.41689941,0.00520808
1074.34570679,0.00494779
1076.27451416,0.00478072
1078.20332153,0.00452260
1080.13212891,0.00430449
1082.06093628,0.00409062
1083.98974365,0.00398606
1085.91855103,0.00385942
1087.84735840,0.00364662
1089.77616577,0.00354396
1091.70497314,0.00324539
1093.63378052,0.00330695
1095.56258789,0.00330038
1097.49139526,0.00296702
1099.42020264,0.00306375
1101.34901001,0.00298257
1103.27781738,0.00278997
1105.20662476,0.00281850
1107.13543213,0.00280747
1109.06423950,0.00278389
1110.99304687,0.00284086
1112.92185425,0.00277147
1114.85066162,0.00252104
1116.77946899,0.00267298
1118.70827637,0.00263403
1120.63708374,0.00251116
1122.56589111,0.00274641
1124.49469849,0.00254949
1126.42350586,0.00258998
1128.35231323,0.00278886
1130.28112061,0.00281547
1132.20992798,0.00308336
1134.13873535,0.00308018
1136.06754272,0.00313721
1137.99635010,0.00329219
1139.92515747,0.00354218
1141.85396484,0.00398028
1143.78277222,0.00396333
1145.71157959,0.00411317
1147.64038696,0.00454818
1149.56919434,0.00462816
1151.49800171,0.00483854
1153.42680908,0.00535822
1155.35561646,0.00567039
1157.28442383,0.00571130
1159.21323120,0.00578878
1161.14203857,0.00614600
1163.07084595,0.00654870
1164.99965332,0.00657376
1166.92846069,0.00677305
1168.85726807,0.00718262
1170.78607544,0.00723812
1172.71488281,0.00752896
1174.64369019,0.00813099
1176.57249756,0.00835720
1178.50130493,0.00848137
1180.43011230,0.00888789
1182.35891968,0.00919261
1184.28772705,0.00964867
1186.21653442,0.01026574
1188.14534180,0.01056873
1190.07414917,0.01096666
1192.00295654,0.01147767
1193.93176392,0.01212459
1195.86057129,0.01266756
1197.78937866,0.01301748
1199.71818604,0.01366998
1201.64699341,0.01425765
1203.57580078,0.01499794
1205.50460815,0.01563946
1207.43341553,0.01598523
1209.36222290,0.01667710
1211.29103027,0.01703206
1213.21983765,0.01738348
1215.14864502,0.01809892
1217.07745239,0.01830176
1219.00625977,0.01864382
1220.93506714,0.01905069
1222.86387451,0.01911988
1224.79268188,0.01959987
1226.72148926,0.01966620
1228.65029663,0.01964547
1230.57910400,0.02005576
1232.50791138,0.01999833
1234.43671875,0.02012181
1236.36552612,0.02002154
1238.29433350,0.01990379
1240.22314087,0.02013924
1242.15194824,0.01987118
1244.08075562,0.01996755
1246.00956299,0.01989251
1247.93837036,0.01956189
1249.86717773,0.01962331
1251.79598511,0.01932876
1253.72479248,0.01924595
1255.65359985,0.01925237
1257.58240723,0.01881017
1259.51121460,0.01851542
1261.44002197,0.01828216
1263.36882935,0.01790010
1265.29763672,0.01780756
1267.22644409,0.01759982
1269.15525146,0.01707706
1271.08405884,0.01691855
1273.01286621,0.01681902
1274.94167358,0.01659286
1276.87048096,0.01629321
1278.79928833,0.01600935
1280.72809570,0.01571431
1282.65690308,0.01528490
1284.58571045,0.01509698
1286.51451782,0.01487598
1288.44332520,0.01473422
1290.37213257,0.01457666
1292.30093994,0.01425988
1294.22974731,0.01421932
1296.15855469,0.01418144
1298.08736206,0.01416194
1300.01616943,0.01421166
1301.94497681,0.01436607
1303.87378418,0.01432560
1305.80259155,0.01439646
1307.73139893,0.01494725
1309.66020630,0.01499440
1311.58901367,0.01510580
1313.51782104,0.01559252
1315.44662842,0.01602893
1317.37543579,0.01635507
1319.30424316,0.01644987
1321.23305054,0.01720819
1323.16185791,0.01791190
1325.09066528,0.01818389
1327.01947266,0.01897505
1328.94828003,0.01949487
1330.87708740,0.01984112
1332.80589478,0.02048642
1334.73470215,0.02083712
1336.66350952,0.02097314
1338.59231689,0.02080119
1340.52112427,0.02096612
1342.44993164,0.02188757
1344.37873901,0.02198074
1346.30754639,0.02177839
1348.23635376,0.02193097
1350.16516113,0.02180139
1352.09396851,0.02190994
1354.02277588,0.02167554
1355.95158325,0.02137777
1357.88039062,0.02132601
1359.80919800,0.02094609
1361.73800537,0.02013413
1363.66681274,0.01975836
1365.59562012,0.02069931
1367.52442749,0.02042813
1369.45323486,0.02016969
1371.38204224,0.02055818
1373.31084961,0.01939211
1375.23965698,0.01952603
1377.16846436,0.02019671
1379.09727173,0.02001212
1381.02607910,0.01997780
1382.95488647,0.02009775
1384.88369385,0.02010266
1386.81250122,0.01918368
1388.74130859,0.01961578
1390.67011597,0.02110335
1392.59892334,0.02070279
1394.52773071,0.01947423
1396.45653809,0.02014390
1398.38534546,0.02038029
1400.31415283,0.02020749
1402.24296021,0.02165719
1404.17176758,0.02069464
1406.10057495,0.02081752
1408.02938232,0.02167592
1409.95818970,0.02073358
1411.88699707,0.02118901
1413.81580444,0.02059024
1415.74461182,0.02081246
1417.67341919,0.01897438
1419.60222656,0.01708532
1421.53103394,0.01940849
1423.45984131,0.01878542
1425.38864868,0.01825889
1427.31745605,0.01853432
1429.24626343,0.01734100
1431.17507080,0.01672768
1433.10387817,0.01696552
1435.03268555,0.01579512
1436.96149292,0.01315096
1438.89030029,0.01486775
1440.81910767,0.01539901
1442.74791504,0.01437804
1444.67672241,0.01527021
1446.60552979,0.01386221
1448.53433716,0.01409094
1450.46314453,0.01453917
1452.39195190,0.01477079
1454.32075928,0.01551841
1456.24956665,0.01291598
1458.17837402,0.01345341
1460.10718140,0.01761446
1462.03598877,0.01886963
1463.96479614,0.01891777
1465.89360352,0.01949317
1467.82241089,0.02200914
1469.75121826,0.02369586
1471.68002563,0.02122077
1473.60883301,0.02225195
1475.53764038,0.02547885
1477.46644775,0.02735981
1479.39525513,0.02983139
1481.32406250,0.03037697
1483.25286987,0.03228606
1485.18167725,0.03328162
1487.11048462,0.03277437
1489.03929199,0.03279261
1490.96809937,0.03310886
1492.89690674,0.03816269
1494.82571411,0.03742408
1496.75452148,0.03385449
1498.68332886,0.03796271
1500.61213623,0.03928236
1502.54094360,0.04203929
1504.46975098,0.04003214
1506.39855835,0.02977405
1508.32736572,0.03540623
1510.25617310,0.04134872
1512.18498047,0.04027683
1514.11378784,0.04370578
1516.04259521,0.03967522
1517.97140259,0.04108857
1519.90020996,0.03998307
1521.82901733,0.03482839
1523.75782471,0.04202869
1525.68663208,0.04133977
1527.61543945,0.04132879
1529.54424683,0.04564784
1531.47305420,0.04397529
1533.40186157,0.04051317
1535.33066895,0.04270045
1537.25947632,0.04585433
1539.18828369,0.03333997
1541.11709106,0.03467553
1543.04589844,0.04146090
1544.97470581,0.03967623
1546.90351318,0.04669209
1548.83232056,0.04364922
1550.76112793,0.04512009
1552.68993530,0.04478980
1554.61874268,0.04072548
1556.54755005,0.04397891
1558.47635742,0.03143232
1560.40516479,0.03357359
1562.33397217,0.04725473
1564.26277954,0.04488455
1566.19158691,0.04598997
1568.12039429,0.04570753
1570.04920166,0.04101440
1571.97800903,0.04677570
1573.90681641,0.04746753
1575.83562378,0.03800308
1577.76443115,0.04250587
1579.69323853,0.04793428
1581.62204590,0.04615759
1583.55085327,0.04724156
1585.47966064,0.04636503
1587.40846802,0.04697312
1589.33727539,0.04654818
1591.26608276,0.04670194
1593.19489014,0.04678334
1595.12369751,0.04597314
1597.05250488,0.04682885
1598.98131226,0.04658562
1600.91011963,0.04703631
1602.83892700,0.04608871
1604.76773437,0.04678511
1606.69654175,0.04630533
1608.62534912,0.04623051
1610.55415649,0.04627618
1612.48296387,0.04640153
1614.41177124,0.04737418
1616.34057861,0.03903188
1618.26938599,0.04197570
1620.19819336,0.04878925
1622.12700073,0.04334334
1624.05580811,0.04364587
1625.98461548,0.04568716
1627.91342285,0.04568414
1629.84223022,0.04529384
1631.77103760,0.04806919
1633.69984497,0.04511502
1635.62865234,0.03749409
1637.55745972,0.04304416
1639.48626709,0.04738472
1641.41507446,0.04625186
1643.34388184,0.04746605
1645.27268921,0.04298891
1647.20149658,0.03791819
1649.13030396,0.04696386
1651.05911133,0.04477238
1652.98791870,0.02908198
1654.91672607,0.03891254
1656.84553345,0.04870693
1658.77434082,0.04664143
1660.70314819,0.04809183
1662.63195557,0.04385602
1664.56076294,0.04609857
1666.48957031,0.04965598
1668.41837769,0.04359131
1670.34718506,0.04218106
1672.27599243,0.04765904
1674.20479980,0.04426664
1676.13360718,0.04246036
1678.06241455,0.04867756
1679.99122192,0.04697833
1681.92002930,0.04655605
1683.84883667,0.03831075
1685.77764404,0.03753964
1687.70645142,0.05100027
1689.63525879,0.04480261
1691.56406616,0.04886743
1693.49287354,0.05010872
1695.42168091,0.03702234
1697.35048828,0.04503151
1699.27929565,0.04019478
1701.20810303,0.03598979
1703.13691040,0.04855288
1705.06571777,0.04501819
1706.99452515,0.04514499
1708.92333252,0.04904378
1710.85213989,0.04711221
1712.78094727,0.04795543
1714.70975464,0.04476076
1716.63856201,0.04018813
1718.56736938,0.03942543
1720.49617676,0.04654280
1722.42498413,0.04846083
1724.35379150,0.04502670
1726.28259888,0.04889208
1728.21140625,0.04542637
1730.14021362,0.04577333
1732.06902100,0.04473581
1733.99782837,0.03433118
1735.92663574,0.04215480
1737.85544312,0.04682688
1739.78425049,0.04186064
1741.71305786,0.04529531
1743.64186523,0.04614376
1745.57067261,0.04609882
1747.49947998,0.04648972
1749.42828735,0.04471093
1751.35709473,0.04274059
1753.28590210,0.04728053
1755.21470947,0.04952124
1757.14351685,0.04520319
1759.07232422,0.04949573
1761.00113159,0.04683813
1762.92993896,0.04518150
1764.85874634,0.05154817
1766.78755371,0.04674014
1768.71636108,0.04689678
1770.64516846,0.04680359
1772.57397583,0.04226456
1774.50278320,0.04685328
1776.43159058,0.04947545
1778.36039795,0.04873184
1780.28920532,0.04826565
1782.21801270,0.04867188
1784.14682007,0.04855309
1786.07562744,0.04757812
1788.00443481,0.05021459
1789.93324219,0.04896129
1791.86204956,0.04422687
1793.79085693,0.04646526
1795.71966431,0.04976215
1797.64847168,0.04903144
1799.57727905,0.04832130
1801.50608643,0.04740836
1803.43489380,0.04906043
1805.36370117,0.05007113
1807.29250854,0.04946645
1809.22131592,0.04977532
1811.15012329,0.04832412
1813.07893066,0.04996805
1815.00773804,0.05030237
1816.93654541,0.04963582
1818.86535278,0.05024139
1820.79416016,0.04988298
1822.72296753,0.05074965
1824.65177490,0.04763573
1826.58058228,0.04902647
1828.50938965,0.04955139
1830.43819702,0.04631477
1832.36700439,0.05011141
1834.29581177,0.05019668
1836.22461914,0.04992307
1838.15342651,0.04980308
1840.08223389,0.05014717
1842.01104126,0.05031485
1843.93984863,0.04472117
1845.86865601,0.04748923
1847.79746338,0.05042759
1849.72627075,0.04919592
1851.65507812,0.05046441
1853.58388550,0.04962645
1855.51269287,0.05019247
1857.44150024,0.04990622
1859.37030762,0.04958824
1861.29911499,0.04998391
1863.22792236,0.04941183
1865.15672974,0.05001469
1867.08553711,0.04841788
1869.01434448,0.04644833
1870.94315186,0.04825993
1872.87195923,0.05008693
1874.80076660,0.04939038
1876.72957397,0.04974426
1878.65838135,0.04958831
1880.58718872,0.04924071
1882.51599609,0.04974170
1884.44480347,0.04894697
1886.37361084,0.04961161
1888.30241821,0.04858188
1890.23122559,0.04771636
1892.16003296,0.04948620
1894.08884033,0.04881065
1896.01764771,0.04874704
1897.94645508,0.04929198
1899.87526245,0.04904712
1901.80406982,0.04920871
1903.73287720,0.04886347
1905.66168457,0.04899415
1907.59049194,0.04861035
1909.51929932,0.04843194
1911.44810669,0.04870705
1913.37691406,0.04892053
1915.30572144,0.04948013
1917.23452881,0.04740049
1919.16333618,0.04721032
1921.09214355,0.04891713
1923.02095093,0.04753844
1924.94975830,0.04835848
1926.87856567,0.04903770
1928.80737305,0.04849476
1930.73618042,0.04912020
1932.66498779,0.04841032
1934.59379517,0.04867584
1936.52260254,0.04861745
1938.45140991,0.04871225
1940.38021729,0.04876002
1942.30902466,0.04744454
1944.23783203,0.04817355
1946.16663940,0.04862978
1948.09544678,0.04859106
1950.02425415,0.04888023
1951.95306152,0.04865712
1953.88186890,0.04868796
1955.81067627,0.04859155
1957.73948364,0.04865526
1959.66829102,0.04859269
1961.59709839,0.04857070
1963.52590576,0.04870775
1965.45471313,0.04843950
1967.38352051,0.04799753
1969.31232788,0.04846837
1971.24113525,0.04870471
1973.16994263,0.04834801
1975.09875000,0.04870567
1977.02755737,0.04846694
1978.95636475,0.04856122
1980.88517212,0.04856780
1982.81397949,0.04829266
1984.74278687,0.04849183
1986.67159424,0.04820851
1988.60040161,0.04853170
1990.52920898,0.04798219
1992.45801636,0.04733239
1994.38682373,0.04813118
1996.31563110,0.04829846
1998.24443848,0.04792315
2000.17324585,0.04790527
2002.10205322,0.04810440
2004.03086060,0.04804222
2005.95966797,0.04801483
2007.88847534,0.04788516
2009.81728271,0.04774654
2011.74609009,0.04769019
2013.67489746,0.04769476
2015.60370483,0.04752116
2017.53251221,0.04705967
2019.46131958,0.04741382
2021.39012695,0.04742590
2023.31893433,0.04721757
2025.24774170,0.04721808
2027.17654907,0.04715496
2029.10535645,0.04728626
2031.03416382,0.04693284
2032.96297119,0.04706701
2034.89177856,0.04701447
2036.82058594,0.04677946
2038.74939331,0.04675713
2040.67820068,0.04645438
2042.60700806,0.04661641
2044.53581543,0.04643501
2046.46462280,0.04640150
2048.39343018,0.04658631
2050.32223755,0.04641157
2052.25104492,0.04631454
2054.17985229,0.04619669
2056.10865967,0.04610995
2058.03746704,0.04603377
2059.96627441,0.04613777
2061.89508179,0.04601248
2063.82388916,0.04583418
2065.75269653,0.04576924
2067.68150391,0.04576686
2069.61031128,0.04590880
2071.53911865,0.04569398
2073.46792603,0.04560025
2075.39673340,0.04562999
2077.32554077,0.04559376
2079.25434814,0.04555996
2081.18315552,0.04536283
2083.11196289,0.04531919
2085.04077026,0.04542154
2086.96957764,0.04524696
2088.89838501,0.04511072
2090.82719238,0.04527709
2092.75599976,0.04515768
2094.68480713,0.04504193
2096.61361450,0.04507201
2098.54242187,0.04503540
2100.47122925,0.04499916
2102.40003662,0.04495792
2104.32884399,0.04485905
2106.25765137,0.04469892
2108.18645874,0.04479199
2110.11526611,0.04471659
2112.04407349,0.04463081
2113.97288086,0.04448893
2115.90168823,0.04435099
2117.83049561,0.04450995
2119.75930298,0.04437705
2121.68811035,0.04454634
2123.61691772,0.04454870
2125.54572510,0.04430733
2127.47453247,0.04440627
2129.40333984,0.04437461
2131.33214722,0.04436153
2133.26095459,0.04419915
2135.18976196,0.04419146
2137.11856934,0.04417808
2139.04737671,0.04400358
2140.97618408,0.04415619
2142.90499146,0.04421524
2144.83379883,0.04409450
2146.76260620,0.04406279
2148.69141357,0.04398625
2150.62022095,0.04388462
2152.54902832,0.04397538
2154.47783569,0.04391584
2156.40664307,0.04393230
2158.33545044,0.04399041
2160.26425781,0.04388714
2162.19306519,0.04390852
2164.12187256,0.04371122
2166.05067993,0.04363936
2167.97948730,0.04373233
2169.90829468,0.04382610
2171.83710205,0.04378327
2173.76590942,0.04367384
2175.69471680,0.04371616
2177.62352417,0.04357146
2179.55233154,0.04368916
2181.48113892,0.04359849
2183.40994629,0.04338609
2185.33875366,0.04357613
2187.26756104,0.04355405
2189.19636841,0.04346761
2191.12517578,0.04347696
2193.05398315,0.04349403
2194.98279053,0.04330718
2196.91159790,0.04325467
2198.84040527,0.04333746
2200.76921265,0.04325075
2202.69802002,0.04324931
2204.62682739,0.04324087
2206.55563477,0.04323788
2208.48444214,0.04314189
2210.41324951,0.04311144
2212.34205688,0.04310066
2214.27086426,0.04306044
2216.19967163,0.04303890
2218.12847900,0.04296357
2220.05728638,0.04298694
2221.98609375,0.04286094
2223.91490112,0.04289203
2225.84370850,0.04294914
2227.77251587,0.04282974
2229.70132324,0.04279016
2231.63013062,0.04269569
2233.55893799,0.04272797
2235.48774536,0.04276089
2237.41655273,0.04265811
2239.34536011,0.04255554
2241.27416748,0.04249056
2243.20297485,0.04245419
2245.13178223,0.04250593
2247.06058960,0.04243486
2248.98939697,0.04245774
2250.91820435,0.04255645
2252.84701172,0.04220621
2254.77581909,0.04221227
2256.70462646,0.04227903
2258.63343384,0.04208776
2260.56224121,0.04221081
2262.49104858,0.04216934
2264.41985596,0.04198728
2266.34866333,0.04199809
2268.27747070,0.04209404
2270.20627808,0.04200297
2272.13508545,0.04210865
2274.06389282,0.04209194
2275.99270020,0.04181577
2277.92150757,0.04195433
2279.85031494,0.04193039
2281.77912231,0.04181207
2283.70792969,0.04177903
2285.63673706,0.04183773
2287.56554443,0.04178970
2289.49435181,0.04152070
2291.42315918,0.04160082
2293.35196655,0.04151738
2295.28077393,0.04130958
2297.20958130,0.04130858
2299.13838867,0.04125501
2301.06719604,0.04108167
2302.99600342,0.04093517
2304.92481079,0.04076552
2306.85361816,0.04039755
2308.78242554,0.04012042
2310.71123291,0.03991132
2312.64004028,0.03972322
2314.56884766,0.03926101
2316.49765503,0.03868686
2318.42646240,0.03836701
2320.35526978,0.03795615
2322.28407715,0.03745830
2324.21288452,0.03699046
2326.14169189,0.03665327
2328.07049927,0.03615702
2329.99930664,0.03570120
2331.92811401,0.03556013
2333.85692139,0.03539579
2335.78572876,0.03528965
2337.71453613,0.03531675
2339.64334351,0.03523324
2341.57215088,0.03526912
2343.50095825,0.03593815
2345.42976562,0.03662239
2347.35857300,0.03796019
2349.28738037,0.03923385
2351.21618774,0.03808144
2353.14499512,0.03621613
2355.07380249,0.03498638
2357.00260986,0.03404035
2358.93141724,0.03331500
2360.86022461,0.03284243
2362.78903198,0.03289185
2364.71783936,0.03313047
2366.64664673,0.03361558
2368.57545410,0.03420376
2370.50426147,0.03498540
2372.43306885,0.03589489
2374.36187622,0.03678063
2376.29068359,0.03780502
2378.21949097,0.03869535
2380.14829834,0.03938505
2382.07710571,0.03964736
2384.00591309,0.03987604
2385.93472046,0.04012135
2387.86352783,0.04022741
2389.79233521,0.04026957
2391.72114258,0.04014061
2393.64994995,0.04014006
2395.57875732,0.04000515
2397.50756470,0.03994242
2399.43637207,0.03998539
2401.36517944,0.04000160
2403.29398682,0.04007170
2405.22279419,0.03992643
2407.15160156,0.03991864
2409.08040894,0.04000873
2411.00921631,0.03992988
2412.93802368,0.03977329
2414.86683105,0.03976530
2416.79563843,0.03975409
2418.72444580,0.03969641
2420.65325317,0.03970973
2422.58206055,0.03959561
2424.51086792,0.03958257
2426.43967529,0.03953380
2428.36848267,0.03949802
2430.29729004,0.03954910
2432.22609741,0.03949797
2434.15490479,0.03945980
2436.08371216,0.03945482
2438.01251953,0.03948391
2439.94132690,0.03944451
2441.87013428,0.03939071
2443.79894165,0.03934445
2445.72774902,0.03942152
2447.65655640,0.03931065
2449.58536377,0.03924038
2451.51417114,0.03943267
2453.44297852,0.03916978
2455.37178589,0.03908370
2457.30059326,0.03909045
2459.22940063,0.03901170
2461.15820801,0.03920941
2463.08701538,0.03903350
2465.01582275,0.03888988
2466.94463013,0.03898766
2468.87343750,0.03886759
2470.80224487,0.03885257
2472.73105225,0.03890521
2474.65985962,0.03870456
2476.58866699,0.03879002
2478.51747437,0.03888583
2480.44628174,0.03871500
2482.37508911,0.03877161
2484.30389648,0.03864522
2486.23270386,0.03861511
2488.16151123,0.03870619
2490.09031860,0.03859464
2492.01912598,0.03856228
2493.94793335,0.03865089
2495.87674072,0.03863620
2497.80554810,0.03843334
2499.73435547,0.03848266
2501.66316284,0.03837032
2503.59197021,0.03835630
2505.52077759,0.03843614
2507.44958496,0.03820276
2509.37839233,0.03828480
2511.30719971,0.03818807
2513.23600708,0.03815094
2515.16481445,0.03824940
2517.09362183,0.03815573
2519.02242920,0.03819677
2520.95123657,0.03819371
2522.88004395,0.03811584
2524.80885132,0.03789673
2526.73765869,0.03795747
2528.66646606,0.03811326
2530.59527344,0.03802047
2532.52408081,0.03791783
2534.45288818,0.03785993
2536.38169556,0.03790357
2538.31050293,0.03787605
2540.23931030,0.03786387
2542.16811768,0.03776186
2544.09692505,0.03774270
2546.02573242,0.03770513
2547.95453979,0.03763051
2549.88334717,0.03770269
2551.81215454,0.03758699
2553.74096191,0.03762965
2555.66976929,0.03756881
2557.59857666,0.03750411
2559.52738403,0.03750785
2561.45619141,0.03738415
2563.38499878,0.03753182
2565.31380615,0.03747841
2567.24261353,0.03740265
2569.17142090,0.03739934
2571.10022827,0.03731833
2573.02903564,0.03731459
2574.95784302,0.03723596
2576.88665039,0.03722381
2578.81545776,0.03716392
2580.74426514,0.03708631
2582.67307251,0.03709856
2584.60187988,0.03709840
2586.53068726,0.03700285
2588.45949463,0.03702094
2590.38830200,0.03711363
2592.31710937,0.03698721
2594.24591675,0.03690622
2596.17472412,0.03694265
2598.10353149,0.03694503
2600.03233887,0.03672740
2601.96114624,0.03669703
2603.88995361,0.03686587
2605.81876099,0.03672445
2607.74756836,0.03665868
2609.67637573,0.03665372
2611.60518311,0.03669161
2613.53399048,0.03668620
2615.46279785,0.03654434
2617.39160522,0.03665326
2619.32041260,0.03661422
2621.24921997,0.03638061
2623.17802734,0.03637042
2625.10683472,0.03642988
2627.03564209,0.03647893
2628.96444946,0.03648059
2630.89325684,0.03636871
2632.82206421,0.03633635
2634.75087158,0.03635888
2636.67967895,0.03620436
2638.60848633,0.03610625
2640.53729370,0.03627264
2642.46610107,0.03617368
2644.39490845,0.03592081
2646.32371582,0.03605250
2648.25252319,0.03609956
2650.18133057,0.03606515
2652.11013794,0.03605130
2654.03894531,0.03590224
2655.96775269,0.03591438
2657.89656006,0.03596009
2659.82536743,0.03586371
2661.75417480,0.03578348
2663.68298218,0.03590325
2665.61178955,0.03580014
2667.54059692,0.03558484
2669.46940430,0.03567434
2671.39821167,0.03569429
2673.32701904,0.03569773
2675.25582642,0.03557295
2677.18463379,0.03545395
2679.11344116,0.03553906
2681.04224854,0.03551409
2682.97105591,0.03537330
2684.89986328,0.03538556
2686.82867065,0.03548853
2688.75747803,0.03537792
2690.68628540,0.03542495
2692.61509277,0.03530814
2694.54390015,0.03519886
2696.47270752,0.03535150
2698.40151489,0.03518670
2700.33032227,0.03521196
2702.25912964,0.03521726
2704.18793701,0.03511454
2706.11674438,0.03504744
2708.04555176,0.03496712
2709.97435913,0.03496251
2711.90316650,0.03489520
2713.83197388,0.03501017
2715.76078125,0.03480297
2717.68958862,0.03473453
2719.61839600,0.03489223
2721.54720337,0.03475335
2723.47601074,0.03476677
2725.40481812,0.03468201
2727.33362549,0.03469211
2729.26243286,0.03460701
2731.19124023,0.03452818
2733.12004761,0.03465579
2735.04885498,0.03454734
2736.97766235,0.03449529
2738.90646973,0.03439214
2740.83527710,0.03437370
2742.76408447,0.03436021
2744.69289185,0.03426192
2746.62169922,0.03423255
2748.55050659,0.03413810
2750.47931396,0.03420088
2752.40812134,0.03419718
2754.33692871,0.03412778
2756.26573608,0.03409015
2758.19454346,0.03405932
2760.12335083,0.03405645
2762.05215820,0.03392220
2763.98096558,0.03389721
2765.90977295,0.03394916
2767.83858032,0.03389291
2769.76738770,0.03385401
2771.69619507,0.03380245
2773.62500244,0.03377680
2775.55380981,0.03382638
2777.48261719,0.03367586
2779.41142456,0.03360632
2781.34023193,0.03372749
2783.26903931,0.03361991
2785.19784668,0.03350501
2787.12665405,0.03341437
2789.05546143,0.03334128
2790.98426880,0.03335335
2792.91307617,0.03328607
2794.84188354,0.03317243
2796.77069092,0.03317325
2798.69949829,0.03320036
2800.62830566,0.03310809
2802.55711304,0.03320209
2804.48592041,0.03310820
2806.41472778,0.03284793
2808.34353516,0.03298155
2810.27234253,0.03299913
2812.20114990,0.03284499
2814.12995728,0.03281981
2816.05876465,0.03278200
2817.98757202,0.03270461
2819.91637939,0.03270596
2821.84518677,0.03268271
2823.77399414,0.03255240
2825.70280151,0.03251199
2827.63160889,0.03253313
2829.56041626,0.03249853
2831.48922363,0.03243804
2833.41803101,0.03241015
2835.34683838,0.03230604
2837.27564575,0.03218099
2839.20445312,0.03212612
2841.13326050,0.03205706
2843.06206787,0.03196769
2844.99087524,0.03189529
2846.91968262,0.03185578
2848.84848999,0.03169512
2850.77729736,0.03158975
2852.70610474,0.03151540
2854.63491211,0.03143604
2856.56371948,0.03147309
2858.49252686,0.03137380
2860.42133423,0.03139820
2862.35014160,0.03147126
2864.27894897,0.03133055
2866.20775635,0.03126510
2868.13656372,0.03129895
2870.06537109,0.03124512
2871.99417847,0.03118560
2873.92298584,0.03116098
2875.85179321,0.03109098
2877.78060059,0.03110275
2879.70940796,0.03103275
2881.63821533,0.03104811
2883.56702270,0.03108995
2885.49583008,0.03101949
2887.42463745,0.03103575
2889.35344482,0.03085359
2891.28225220,0.03077933
2893.21105957,0.03076951
2895.13986694,0.03071277
2897.06867432,0.03066739
2898.99748169,0.03057230
2900.92628906,0.03061035
2902.85509644,0.03050134
2904.78390381,0.03048930
2906.71271118,0.03040788
2908.64151855,0.03027960
2910.57032593,0.03024534
2912.49913330,0.03006828
2914.42794067,0.03002718
2916.35674805,0.02980974
2918.28555542,0.02973267
2920.21436279,0.02976514
2922.14317017,0.02972023
2924.07197754,0.02973312
2926.00078491,0.02955392
2927.92959229,0.02964206
2929.85839966,0.02962298
2931.78720703,0.02949225
2933.71601440,0.02960445
2935.64482178,0.02959145
2937.57362915,0.02956598
2939.50243652,0.02961337
2941.43124390,0.02963324
2943.36005127,0.02958540
2945.28885864,0.02957225
2947.21766602,0.02947046
2949.14647339,0.02945844
2951.07528076,0.02945058
2953.00408813,0.02934999
2954.93289551,0.02942494
2956.86170288,0.02924465
2958.79051025,0.02911948
2960.71931763,0.02909357
2962.64812500,0.02892965
2964.57693237,0.02897052
2966.50573975,0.02896828
2968.43454712,0.02898571
2970.36335449,0.02910290
2972.29216187,0.02914599
2974.22096924,0.02924059
2976.14977661,0.02922333
2978.07858398,0.02902816
2980.00739136,0.02910338
2981.93619873,0.02919314
2983.86500610,0.02905636
2985.79381348,0.02904901
2987.72262085,0.02907511
2989.65142822,0.02912078
2991.58023560,0.02909147
2993.50904297,0.02901705
2995.43785034,0.02897045
2997.36665771,0.02893311
2999.29546509,0.02892128
3001.22427246,0.02875199
3003.15307983,0.02868071
3005.08188721,0.02870570
3007.01069458,0.02873399
3008.93950195,0.02866838
3010.86830933,0.02857628
3012.79711670,0.02858022
3014.72592407,0.02845157
3016.65473145,0.02854592
3018.58353882,0.02857555
3020.51234619,0.02840414
3022.44115356,0.02841984
3024.36996094,0.02830198
3026.29876831,0.02821282
3028.22757568,0.02826061
3030.15638306,0.02811955
3032.08519043,0.02803453
3034.01399780,0.02812656
3035.94280518,0.02802767
3037.87161255,0.02798394
3039.80041992,0.02805842
3041.72922729,0.02794039
3043.65803467,0.02776695
3045.58684204,0.02775573
3047.51564941,0.02786957
3049.44445679,0.02774270
3051.37326416,0.02768643
3053.30207153,0.02767511
3055.23087891,0.02752052
3057.15968628,0.02755892
3059.08849365,0.02753708
3061.01730103,0.02748721
3062.94610840,0.02737121
3064.87491577,0.02731337
3066.80372314,0.02743610
3068.73253052,0.02741971
3070.66133789,0.02732981
3072.59014526,0.02721466
3074.51895264,0.02718460
3076.44776001,0.02716039
3078.37656738,0.02709420
3080.30537476,0.02699428
3082.23418213,0.02695173
3084.16298950,0.02700399
3086.09179687,0.02692032
3088.02060425,0.02687112
3089.94941162,0.02685699
3091.87821899,0.02683550
3093.80702637,0.02674132
3095.73583374,0.02665970
3097.66464111,0.02670669
3099.59344849,0.02659884
3101.52225586,0.02650754
3103.45106323,0.02657292
3105.37987061,0.02650651
3107.30867798,0.02636149
3109.23748535,0.02646939
3111.16629272,0.02646806
3113.09510010,0.02629933
3115.02390747,0.02629235
3116.95271484,0.02616091
3118.88152222,0.02601879
3120.81032959,0.02602537
3122.73913696,0.02602506
3124.66794434,0.02593496
3126.59675171,0.02589853
3128.52555908,0.02594151
3130.45436645,0.02590354
3132.38317383,0.02570402
3134.31198120,0.02555903
3136.24078857,0.02568186
3138.16959595,0.02561551
3140.09840332,0.02561539
3142.02721069,0.02562682
3143.95601807,0.02545287
3145.88482544,0.02550126
3147.81363281,0.02541110
3149.74244019,0.02525109
3151.67124756,0.02515935
3153.60005493,0.02519260
3155.52886230,0.02509741
3157.45766968,0.02502176
3159.38647705,0.02517170
3161.31528442,0.02493546
3163.24409180,0.02489254
3165.17289917,0.02485657
3167.10170654,0.02476350
3169.03051392,0.02486491
3170.95932129,0.02464537
3172.88812866,0.02453743
3174.81693604,0.02452113
3176.74574341,0.02449148
3178.67455078,0.02439738
3180.60335815,0.02441496
3182.53216553,0.02446749
3184.46097290,0.02422769
3186.38978027,0.02424128
3188.31858765,0.02427309
3190.24739502,0.02418076
3192.17620239,0.02402795
3194.10500977,0.02391177
3196.03381714,0.02399103
3197.96262451,0.02392221
3199.89143188,0.02395481
3201.82023926,0.02403027
3203.74904663,0.02385221
3205.67785400,0.02377963
3207.60666138,0.02384064
3209.53546875,0.02377865
3211.46427612,0.02373137
3213.39308350,0.02364032
3215.32189087,0.02361694
3217.25069824,0.02362112
3219.17950562,0.02341395
3221.10831299,0.02346411
3223.03712036,0.02356895
3224.96592773,0.02353124
3226.89473511,0.02346040
3228.82354248,0.02333633
3230.75234985,0.02331811
3232.68115723,0.02333736
3234.60996460,0.02337864
3236.53877197,0.02329076
3238.46757935,0.02325347
3240.39638672,0.02323506
3242.32519409,0.02316912
3244.25400146,0.02311304
3246.18280884,0.02301136
3248.11161621,0.02312895
3250.04042358,0.02311310
3251.96923096,0.02301887
3253.89803833,0.02302152
3255.82684570,0.02299769
3257.75565308,0.02304217
3259.68446045,0.02307153
3261.61326782,0.02297850
3263.54207520,0.02279869
3265.47088257,0.02285682
3267.39968994,0.02289254
3269.32849731,0.02288019
3271.25730469,0.02284243
3273.18611206,0.02272519
3275.11491943,0.02276704
3277.04372681,0.02271968
3278.97253418,0.02272813
3280.90134155,0.02272978
3282.83014893,0.02274401
3284.75895630,0.02273576
3286.68776367,0.02264233
3288.61657104,0.02268081
3290.54537842,0.02259306
3292.47418579,0.02259127
3294.40299316,0.02263100
3296.33180054,0.02255516
3298.26060791,0.02247974
3300.18941528,0.02247494
3302.11822266,0.02247838
3304.04703003,0.02246238
3305.97583740,0.02248957
3307.90464478,0.02237372
3309.83345215,0.02241771
3311.76225952,0.02240628
3313.69106689,0.02228715
3315.61987427,0.02229286
3317.54868164,0.02230427
3319.47748901,0.02234317
3321.40629639,0.02231580
3323.33510376,0.02239064
3325.26391113,0.02228367
3327.19271851,0.02219552
3329.12152588,0.02214516
3331.05033325,0.02208202
3332.97914062,0.02225439
3334.90794800,0.02211584
3336.83675537,0.02206282
3338.76556274,0.02207324
3340.69437012,0.02196404
3342.62317749,0.02200566
3344.55198486,0.02201250
3346.48079224,0.02194825
3348.40959961,0.02190948
3350.33840698,0.02192820
3352.26721436,0.02184080
3354.19602173,0.02189645
3356.12482910,0.02179974
3358.05363647,0.02173910
3359.98244385,0.02181729
3361.91125122,0.02160438
3363.84005859,0.02159336
3365.76886597,0.02161786
3367.69767334,0.02157878
3369.62648071,0.02149059
3371.55528809,0.02157955
3373.48409546,0.02161960
3375.41290283,0.02150470
3377.34171020,0.02160709
3379.27051758,0.02144070
3381.19932495,0.02143291
3383.12813232,0.02137386
3385.05693970,0.02124881
3386.98574707,0.02125181
3388.91455444,0.02119946
3390.84336182,0.02129876
3392.77216919,0.02114480
3394.70097656,0.02117585
3396.62978394,0.02114276
3398.55859131,0.02101630
3400.48739868,0.02105047
3402.41620605,0.02102343
3404.34501343,0.02105018
3406.27382080,0.02089452
3408.20262817,0.02089626
3410.13143555,0.02086162
3412.06024292,0.02087118
3413.98905029,0.02087324
3415.91785767,0.02082545
3417.84666504,0.02085282
3419.77547241,0.02066408
3421.70427979,0.02067998
3423.63308716,0.02068742
3425.56189453,0.02080257
3427.49070190,0.02069858
3429.41950928,0.02056243
3431.34831665,0.02061198
3433.27712402,0.02047759
3435.20593140,0.02059343
3437.13473877,0.02039483
3439.06354614,0.02047958
3440.99235352,0.02045296
3442.92116089,0.02020398
3444.84996826,0.02040477
3446.77877563,0.02008629
3448.70758301,0.02012268
3450.63639038,0.02032102
3452.56519775,0.02024392
3454.49400513,0.02036540
3456.42281250,0.02028927
3458.35161987,0.02016295
3460.28042725,0.02018876
3462.20923462,0.02018222
3464.13804199,0.02001815
3466.06684937,0.02005439
3467.99565674,0.02007679
3469.92446411,0.02008242
3471.85327148,0.02009332
3473.78207886,0.01998612
3475.71088623,0.01997190
3477.63969360,0.02002778
3479.56850098,0.02000269
3481.49730835,0.01974579
3483.42611572,0.01994585
3485.35492310,0.02009419
3487.28373047,0.01982052
3489.21253784,0.01976415
3491.14134521,0.01993591
3493.07015259,0.02002273
3494.99895996,0.01982985
3496.92776733,0.01987995
3498.85657471,0.01988176
3500.78538208,0.01993781
3502.71418945,0.01962145
3504.64299683,0.01948428
3506.57180420,0.02002353
3508.50061157,0.01971260
3510.42941895,0.01970246
3512.35822632,0.01986460
3514.28703369,0.01994422
3516.21584106,0.02002125
3518.14464844,0.01970009
3520.07345581,0.01988203
3522.00226318,0.01960344
3523.93107056,0.01941855
3525.85987793,0.01950724
3527.78868530,0.01946273
3529.71749268,0.01965071
3531.64630005,0.01970783
3533.57510742,0.01984745
3535.50391479,0.01961181
3537.43272217,0.01964091
3539.36152954,0.01992674
3541.29033691,0.01980654
3543.21914429,0.01966720
3545.14795166,0.01925369
3547.07675903,0.01901362
3549.00556641,0.01958060
3550.93437378,0.01973509
3552.86318115,0.01928742
3554.79198853,0.01968038
3556.72079590,0.01979026
3558.64960327,0.01955924
3560.57841064,0.01953342
3562.50721802,0.01950531
3564.43602539,0.01954864
3566.36483276,0.01828464
3568.29364014,0.01789767
3570.22244751,0.01930263
3572.15125488,0.01974630
3574.08006226,0.01956037
3576.00886963,0.01961719
3577.93767700,0.01957588
3579.86648437,0.01955904
3581.79529175,0.01953861
3583.72409912,0.01963315
3585.65290649,0.01922232
3587.58171387,0.01770225
3589.51052124,0.01817909
3591.43932861,0.01968297
3593.36813599,0.01915728
3595.29694336,0.01886103
3597.22575073,0.01923202
3599.15455811,0.01936856
3601.08336548,0.01918576
3603.01217285,0.01933885
3604.94098022,0.01974892
3606.86978760,0.01913653
3608.79859497,0.01790497
3610.72740234,0.01830636
3612.65620972,0.01880315
3614.58501709,0.01821760
3616.51382446,0.01950403
3618.44263184,0.01815217
3620.37143921,0.01756762
3622.30024658,0.01970217
3624.22905395,0.01907891
3626.15786133,0.01990926
3628.08666870,0.01706676
3630.01547607,0.01568358
3631.94428345,0.01949776
3633.87309082,0.01891598
3635.80189819,0.01924383
3637.73070557,0.01955367
3639.65951294,0.01926383
3641.58832031,0.01952519
3643.51712769,0.01923989
3645.44593506,0.01954059
3647.37474243,0.01762968
3649.30354980,0.01621488
3651.23235718,0.01641807
3653.16116455,0.01931454
3655.08997192,0.01913580
3657.01877930,0.01714825
3658.94758667,0.01968068
3660.87639404,0.01931329
3662.80520142,0.01955921
3664.73400879,0.01952748
3666.66281616,0.01925373
3668.59162354,0.01879609
3670.52043091,0.01550293
3672.44923828,0.01855011
3674.37804565,0.01773384
3676.30685303,0.01478932
3678.23566040,0.01836290
3680.16446777,0.01881739
3682.09327515,0.01892953
3684.02208252,0.01936585
3685.95088989,0.01906263
3687.87969727,0.01732688
3689.80850464,0.01589422
3691.73731201,0.01798558
3693.66611938,0.01856793
3695.59492676,0.01905294
3697.52373413,0.01897164
3699.45254150,0.01878571
3701.38134888,0.01830267
3703.31015625,0.01763059
3705.23896362,0.01938909
3707.16777100,0.01843087
3709.09657837,0.01808262
3711.02538574,0.01707963
3712.95419312,0.01595272
3714.88300049,0.01862153
3716.81180786,0.01836328
3718.74061523,0.01848567
3720.66942261,0.01812133
3722.59822998,0.01755163
3724.52703735,0.01816681
3726.45584473,0.01691935
3728.38465210,0.01832887
3730.31345947,0.01810504
3732.24226685,0.01673817
3734.17107422,0.01635075
3736.09988159,0.01549833
3738.02868896,0.01642283
3739.95749634,0.01771714
3741.88630371,0.01851739
3743.81511108,0.01462122
3745.74391846,0.01371574
3747.67272583,0.01765778
3749.60153320,0.01542404
3751.53034058,0.01411161
3753.45914795,0.01612451
3755.38795532,0.01735489
3757.31676270,0.01795601
3759.24557007,0.01668481
3761.17437744,0.01727819
3763.10318481,0.01831878
3765.03199219,0.01716504
3766.96079956,0.01755466
3768.88960693,0.01730580
3770.81841431,0.01654704
3772.74722168,0.01788810
3774.67602905,0.01785249
3776.60483643,0.01790276
3778.53364380,0.01747709
3780.46245117,0.01677480
3782.39125854,0.01783019
3784.32006592,0.01751628
3786.24887329,0.01739805
3788.17768066,0.01763874
3790.10648804,0.01759324
3792.03529541,0.01749669
3793.96410278,0.01769863
3795.89291016,0.01679065
3797.82171753,0.01669420
3799.75052490,0.01745361
3801.67933228,0.01398644
3803.60813965,0.01627442
3805.53694702,0.01752616
3807.46575439,0.01452397
3809.39456177,0.01746395
3811.32336914,0.01701031
3813.25217651,0.01761743
3815.18098389,0.01603930
3817.10979126,0.01405981
3819.03859863,0.01763208
3820.96740601,0.01454276
3822.89621338,0.01513238
3824.82502075,0.01755291
3826.75382812,0.01594576
3828.68263550,0.01697393
3830.61144287,0.01651385
3832.54025024,0.01600656
3834.46905762,0.01623446
3836.39786499,0.01556512
3838.32667236,0.01408111
3840.25547974,0.01512973
3842.18428711,0.01629037
3844.11309448,0.01565028
3846.04190186,0.01697667
3847.97070923,0.01661418
3849.89951660,0.01661546
3851.82832397,0.01509913
3853.75713135,0.01140700
3855.68593872,0.01343315
3857.61474609,0.01665946
3859.54355347,0.01613556
3861.47236084,0.01596266
3863.40116821,0.01562749
3865.32997559,0.01465073
3867.25878296,0.01632150
3869.18759033,0.01501395
3871.11639770,0.01393619
3873.04520508,0.01629018
3874.97401245,0.01508381
3876.90281982,0.01617490
3878.83162720,0.01657623
3880.76043457,0.01442109
3882.68924194,0.01625274
3884.61804932,0.01534860
3886.54685669,0.01415736
3888.47566406,0.01629632
3890.40447144,0.01556218
3892.33327881,0.01458690
3894.26208618,0.01585940
3896.19089355,0.01616586
3898.11970093,0.01542454
3900.04850830,0.01468470
3901.97731567,0.01457567
3903.90612305,0.01442925
3905.83493042,0.01464199
3907.76373779,0.01592600
3909.69254517,0.01593826
3911.62135254,0.01580536
3913.55015991,0.01595030
3915.47896728,0.01547479
3917.40777466,0.01513994
3919.33658203,0.01497087
3921.26538940,0.01554765
3923.19419678,0.01541576
3925.12300415,0.01514586
3927.05181152,0.01551759
3928.98061890,0.01556742
3930.90942627,0.01529939
3932.83823364,0.01486727
3934.76704102,0.01541608
3936.69584839,0.01551136
3938.62465576,0.01536705
3940.55346313,0.01555556
3942.48227051,0.01491082
3944.41107788,0.01508147
3946.33988525,0.01534742
3948.26869263,0.01487749
3950.19750000,0.01494973
3952.12630737,0.01518318
3954.05511475,0.01523940
3955.98392212,0.01519070
3957.91272949,0.01507511
3959.84153687,0.01513945
3961.77034424,0.01498290
3963.69915161,0.01493034
3965.62795898,0.01514658
3967.55676636,0.01506129
3969.48557373,0.01501819
3971.41438110,0.01493391
3973.34318848,0.01500755
3975.27199585,0.01491008
3977.20080322,0.01478378
3979.12961060,0.01499996
3981.05841797,0.01478549
3982.98722534,0.01479724
3984.91603271,0.01482791
3986.84484009,0.01480864
3988.77364746,0.01480092
3990.70245483,0.01469840
3992.63126221,0.01472803
3994.56006958,0.01453141
3996.48887695,0.01468641
3998.41768433,0.01465797
4000.34649170,0.01463655
4002.27529907,0.01466416
4004.20410645,0.01450201
4006.13291382,0.01464666
4008.06172119,0.01445232
4009.99052856,0.01444745
4011.91933594,0.01443545
4013.84814331,0.01434621
4015.77695068,0.01438584
4017.70575806,0.01437139
4019.63456543,0.01444452
4021.56337280,0.01426923
4023.49218018,0.01428199
4025.42098755,0.01427793
4027.34979492,0.01429190
4029.27860229,0.01425686
4031.20740967,0.01420779
4033.13621704,0.01424546
4035.06502441,0.01407508
4036.99383179,0.01420030
4038.92263916,0.01411521
4040.85144653,0.01405325
4042.78025391,0.01406156
4044.70906128,0.01393485
4046.63786865,0.01397093
4048.56667603,0.01390784
4050.49548340,0.01394226
4052.42429077,0.01389659
4054.35309814,0.01392317
4056.28190552,0.01387620
4058.21071289,0.01380769
4060.13952026,0.01383036
4062.06832764,0.01378771
4063.99713501,0.01387380
4065.92594238,0.01375838
4067.85474976,0.01374781
4069.78355713,0.01371386
4071.71236450,0.01368294
4073.64117187,0.01371865
4075.56997925,0.01362761
4077.49878662,0.01368894
4079.42759399,0.01361531
4081.35640137,0.01353701
4083.28520874,0.01352738
4085.21401611,0.01351000
4087.14282349,0.01342777
4089.07163086,0.01343475
4091.00043823,0.01347184
4092.92924561,0.01342063
4094.85805298,0.01347513
4096.78686035,0.01341532
4098.71566772,0.01343450
4100.64447510,0.01331342
4102.57328247,0.01326342
4104.50208984,0.01327403
4106.43089722,0.01315908
4108.35970459,0.01317258
4110.28851196,0.01302434
4112.21731934,0.01318852
4114.14612671,0.01319612
4116.07493408,0.01304309
4118.00374145,0.01311468
4119.93254883,0.01306227
4121.86135620,0.01308060
4123.79016357,0.01293376
4125.71897095,0.01292570
4127.64777832,0.01292017
4129.57658569,0.01289439
4131.50539307,0.01296218
4133.43420044,0.01286692
4135.36300781,0.01289609
4137.29181519,0.01281583
4139.22062256,0.01277628
4141.14942993,0.01277197
4143.07823730,0.01272318
4145.00704468,0.01273237
4146.93585205,0.01267029
4148.86465942,0.01268869
4150.79346680,0.01263856
4152.72227417,0.01253279
4154.65108154,0.01260956
4156.57988892,0.01265261
4158.50869629,0.01251438
4160.43750366,0.01255266
4162.36631103,0.01253543
4164.29511841,0.01249247
4166.22392578,0.01257624
4168.15273315,0.01247693
4170.08154053,0.01245873
4172.01034790,0.01241231
4173.93915527,0.01241048
4175.86796265,0.01238541
4177.79677002,0.01232546
4179.72557739,0.01241081
4181.65438477,0.01232472
4183.58319214,0.01229457
4185.51199951,0.01226010
4187.44080688,0.01219418
4189.36961426,0.01218472
4191.29842163,0.01219340
4193.22722900,0.01214584
4195.15603638,0.01203847
4197.08484375,0.01210812
4199.01365112,0.01209061
4200.94245850,0.01203592
4202.87126587,0.01202004
4204.80007324,0.01198559
4206.72888062,0.01194262
4208.65768799,0.01193388
4210.58649536,0.01195848
4212.51530273,0.01187016
4214.44411011,0.01185575
4216.37291748,0.01185521
4218.30172485,0.01182338
4220.23053223,0.01174503
4222.15933960,0.01171879
4224.08814697,0.01173787
4226.01695435,0.01177316
4227.94576172,0.01178079
4229.87456909,0.01163487
4231.80337646,0.01170630
4233.73218384,0.01166476
4235.66099121,0.01160196
4237.58979858,0.01163650
4239.51860596,0.01155312
4241.44741333,0.01155890
4243.37622070,0.01147659
4245.30502808,0.01149753
4247.23383545,0.01147644
4249.16264282,0.01144001
4251.09145020,0.01141594
4253.02025757,0.01137171
4254.94906494,0.01136524
4256.87787231,0.01129435
4258.80667969,0.01141389
4260.73548706,0.01134646
4262.66429443,0.01132927
4264.59310181,0.01128106
4266.52190918,0.01121567
4268.45071655,0.01129741
4270.37952393,0.01116766
4272.30833130,0.01130936
4274.23713867,0.01119803
4276.16594604,0.01110819
4278.09475342,0.01122229
4280.02356079,0.01110695
4281.95236816,0.01116441
4283.88117554,0.01110017
4285.80998291,0.01107395
4287.73879028,0.01105952
4289.66759766,0.01107467
4291.59640503,0.01108044
4293.52521240,0.01099663
4295.45401978,0.01098372
4297.38282715,0.01089601
4299.31163452,0.01096903
4301.24044189,0.01089810
4303.16924927,0.01084919
4305.09805664,0.01093583
4307.02686401,0.01084851
4308.95567139,0.01079557
4310.88447876,0.01080228
4312.81328613,0.01076581
4314.74209351,0.01073236
4316.67090088,0.01084307
4318.59970825,0.01077139
4320.52851562,0.01070477
4322.45732300,0.01070701
4324.38613037,0.01067779
4326.31493774,0.01066826
4328.24374512,0.01055838
4330.17255249,0.01061840
4332.10135986,0.01058359
4334.03016724,0.01060709
4335.95897461,0.01055028
4337.88778198,0.01045772
4339.81658936,0.01053746
4341.74539673,0.01039991
4343.67420410,0.01047249
4345.60301147,0.01042822
4347.53181885,0.01038571
4349.46062622,0.01045820
4351.38943359,0.01037839
4353.31824097,0.01036053
4355.24704834,0.01025504
4357.17585571,0.01034907
4359.10466309,0.01028601
4361.03347046,0.01017514
4362.96227783,0.01022641
4364.89108520,0.01016397
4366.81989258,0.01020332
4368.74869995,0.01014147
4370.67750732,0.01011941
4372.60631470,0.01009911
4374.53512207,0.01002348
4376.46392944,0.01010601
4378.39273682,0.01013727
4380.32154419,0.01006430
4382.25035156,0.01009909
4384.17915894,0.01003889
4386.10796631,0.00994029
4388.03677368,0.01005101
4389.96558105,0.00992968
4391.89438843,0.00990760
4393.82319580,0.00988582
4395.75200317,0.00977162
4397.68081055,0.00992243
4399.60961792,0.00983610
4401.53842529,0.00980018
4403.46723267,0.00985554
4405.39604004,0.00982039
4407.32484741,0.00972924
4409.25365478,0.00969563
4411.18246216,0.00977719
4413.11126953,0.00969413
4415.04007690,0.00975340
4416.96888428,0.00974268
4418.89769165,0.00969536
4420.82649902,0.00966453
4422.75530640,0.00959213
4424.68411377,0.00964270
4426.61292114,0.00954613
4428.54172852,0.00962283
4430.47053589,0.00955868
4432.39934326,0.00942316
4434.32815063,0.00952359
4436.25695801,0.00944149
4438.18576538,0.00946711
4440.11457275,0.00946686
4442.04338013,0.00942652
4443.97218750,0.00939981
4445.90099487,0.00929163
4447.82980225,0.00936366
4449.75860962,0.00935456
4451.68741699,0.00928208
4453.61622437,0.00927310
4455.54503174,0.00925995
4457.47383911,0.00929731
4459.40264648,0.00925184
4461.33145386,0.00920624
4463.26026123,0.00918587
4465.18906860,0.00916226
4467.11787598,0.00919696
4469.04668335,0.00915443
4470.97549072,0.00912386
4472.90429810,0.00911919
4474.83310547,0.00910173
4476.76191284,0.00913284
4478.69072021,0.00913981
4480.61952759,0.00907194
4482.54833496,0.00898278
4484.47714233,0.00903592
4486.40594971,0.00898667
4488.33475708,0.00892995
4490.26356445,0.00897338
4492.19237183,0.00888077
4494.12117920,0.00890733
4496.04998657,0.00885733
4497.97879395,0.00881582
4499.90760132,0.00885174
4501.83640869,0.00877857
4503.76521606,0.00881753
4505.69402344,0.00875274
4507.62283081,0.00874272
4509.55163818,0.00880215
4511.48044556,0.00874261
4513.40925293,0.00874227
4515.33806030,0.00869550
4517.26686768,0.00860437
4519.19567505,0.00861714
4521.12448242,0.00866815
4523.05328979,0.00858343
4524.98209717,0.00854453
4526.91090454,0.00858069
4528.83971191,0.00851895
4530.76851929,0.00841770
4532.69732666,0.00846511
4534.62613403,0.00855337
4536.55494141,0.00843720
4538.48374878,0.00847873
4540.41255615,0.00851200
4542.34136353,0.00840711
4544.27017090,0.00844745
4546.19897827,0.00842835
4548.12778564,0.00839902
4550.05659302,0.00839443
4551.98540039,0.00835569
4553.91420776,0.00832423
4555.84301514,0.00835747
4557.77182251,0.00834628
4559.70062988,0.00826546
4561.62943726,0.00828380
4563.55824463,0.00824890
4565.48705200,0.00816122
4567.41585937,0.00816764
4569.34466675,0.00816158
4571.27347412,0.00804990
4573.20228149,0.00813621
4575.13108887,0.00818342
4577.05989624,0.00801322
4578.98870361,0.00811206
4580.91751099,0.00813662
4582.84631836,0.00799301
4584.77512573,0.00800530
4586.70393311,0.00805820
4588.63274048,0.00801728
4590.56154785,0.00797899
4592.49035522,0.00798287
4594.41916260,0.00792452
4596.34796997,0.00793240
4598.27677734,0.00790579
4600.20558472,0.00793058
4602.13439209,0.00788910
4604.06319946,0.00781890
4605.99200684,0.00791112
4607.92081421,0.00778465
4609.84962158,0.00777188
4611.77842895,0.00781317
4613.70723633,0.00776720
4615.63604370,0.00777940
4617.56485107,0.00768535
4619.49365845,0.00770908
4621.42246582,0.00773050
4623.35127319,0.00773862
4625.28008057,0.00770666
4627.20888794,0.00759682
4629.13769531,0.00757502
4631.06650269,0.00756045
4632.99531006,0.00764754
4634.92411743,0.00768568
4636.85292480,0.00757474
4638.78173218,0.00753303
4640.71053955,0.00754095
4642.63934692,0.00748902
4644.56815430,0.00749718
4646.49696167,0.00754126
4648.42576904,0.00749792
4650.35457642,0.00746018
4652.28338379,0.00743722
4654.21219116,0.00740449
4656.14099853,0.00744153
4658.06980591,0.00751551
4659.99861328,0.00744921
4661.92742065,0.00743391
4663.85622803,0.00738913
4665.78503540,0.00729959
4667.71384277,0.00737637
4669.64265015,0.00731256
4671.57145752,0.00731417
4673.50026489,0.00731447
4675.42907227,0.00724069
4677.35787964,0.00726345
4679.28668701,0.00721141
4681.21549438,0.00723793
4683.14430176,0.00723598
4685.07310913,0.00723263
4687.00191650,0.00718256
4688.93072388,0.00709648
4690.85953125,0.00711330
4692.78833862,0.00711261
4694.71714600,0.00713061
4696.64595337,0.00708243
4698.57476074,0.00708968
4700.50356812,0.00707182
4702.43237549,0.00703477
4704.36118286,0.00703597
4706.28999023,0.00702968
4708.21879761,0.00703996
4710.14760498,0.00697976
4712.07641235,0.00702152
4714.00521973,0.00694629
4715.93402710,0.00693804
4717.86283447,0.00697080
4719.79164185,0.00686720
4721.72044922,0.00692037
4723.64925659,0.00690496
4725.57806396,0.00691871
4727.50687134,0.00683845
4729.43567871,0.00681552
4731.36448608,0.00690081
4733.29329346,0.00682631
4735.22210083,0.00682615
4737.15090820,0.00680578
4739.07971558,0.00688247
4741.00852295,0.00682155
4742.93733032,0.00669744
4744.86613770,0.00670009
4746.79494507,0.00665937
4748.72375244,0.00674286
4750.65255981,0.00671116
4752.58136719,0.00665356
4754.51017456,0.00663117
4756.43898193,0.00668044
4758.36778931,0.00667166
4760.29659668,0.00653318
4762.22540405,0.00663703
4764.15421143,0.00664630
4766.08301880,0.00659674
4768.01182617,0.00660574
4769.94063354,0.00657976
4771.86944092,0.00655775
4773.79824829,0.00648178
4775.72705566,0.00646535
4777.65586304,0.00645856
4779.58467041,0.00650671
4781.51347778,0.00649541
4783.44228516,0.00644224
4785.37109253,0.00647197
4787.29989990,0.00644003
4789.22870728,0.00639036
4791.15751465,0.00638468
4793.08632202,0.00639871
4795.01512939,0.00631757
4796.94393677,0.00631318
4798.87274414,0.00639599
4800.80155151,0.00632059
4802.73035889,0.00627671
4804.65916626,0.00631730
4806.58797363,0.00628416
4808.51678101,0.00623955
4810.44558838,0.00620522
4812.37439575,0.00617890
4814.30320312,0.00621773
4816.23201050,0.00619578
4818.16081787,0.00620400
4820.08962524,0.00617217
4822.01843262,0.00608935
4823.94723999,0.00620112
4825.87604736,0.00611980
4827.80485474,0.00600572
4829.73366211,0.00608296
4831.66246948,0.00607070
4833.59127686,0.00607974
4835.52008423,0.00605131
4837.44889160,0.00603052
4839.37769897,0.00604592
4841.30650635,0.00601033
4843.23531372,0.00598201
4845.16412109,0.00601971
4847.09292847,0.00604042
4849.02173584,0.00593500
4850.95054321,0.00598006
4852.87935059,0.00597303
4854.80815796,0.00589505
4856.73696533,0.00596067
4858.66577270,0.00583196
4860.59458008,0.00581926
4862.52338745,0.00590761
4864.45219482,0.00589263
4866.38100220,0.00593755
4868.30980957,0.00584781
4870.23861694,0.00581306
4872.16742432,0.00574694
4874.09623169,0.00572554
4876.02503906,0.00587150
4877.95384644,0.00582313
4879.88265381,0.00582170
4881.81146118,0.00578214
4883.74026855,0.00572081
4885.66907593,0.00573891
4887.59788330,0.00568557
4889.52669067,0.00573035
4891.45549805,0.00572350
4893.38430542,0.00574119
4895.31311279,0.00572310
4897.24192017,0.00564738
4899.17072754,0.00566371
4901.09953491,0.00565844
4903.02834228,0.00571274
4904.95714966,0.00563688
4906.88595703,0.00552416
4908.81476440,0.00550377
4910.74357178,0.00555807
4912.67237915,0.00562035
4914.60118652,0.00550884
4916.52999390,0.00553452
4918.45880127,0.00555416
4920.38760864,0.00545788
4922.31641602,0.00545887
4924.24522339,0.00545871
4926.17403076,0.00547894
4928.10283813,0.00546683
4930.03164551,0.00538925
4931.96045288,0.00542142
4933.88926025,0.00544765
4935.81806763,0.00529897
4937.74687500,0.00532237
4939.67568237,0.00539419
4941.60448975,0.00532183
4943.53329712,0.00530389
4945.46210449,0.00522486
4947.39091187,0.00524551
4949.31971924,0.00532117
4951.24852661,0.00532638
4953.17733398,0.00530581
4955.10614136,0.00525650
4957.03494873,0.00528918
4958.96375610,0.00522145
4960.89256348,0.00520599
4962.82137085,0.00531172
4964.75017822,0.00524357
4966.67898560,0.00521422
4968.60779297,0.00524987
4970.53660034,0.00514804
4972.46540771,0.00511635
4974.39421509,0.00515422
4976.32302246,0.00515455
4978.25182983,0.00510883
4980.18063721,0.00505391
4982.10944458,0.00508481
4984.03825195,0.00502410
4985.96705933,0.00509329
4987.89586670,0.00509530
4989.82467407,0.00497661
4991.75348145,0.00508460
4993.68228882,0.00493083
4995.61109619,0.00495122
4997.53990356,0.00510516
4999.46871094,0.00502007
5001.39751831,0.00506027
5003.32632568,0.00496628
5005.25513306,0.00493281
5007.18394043,0.00496339
5009.11274780,0.00493705
5011.04155518,0.00488913
5012.97036255,0.00486818
5014.89916992,0.00490787
5016.82797729,0.00485728
5018.75678467,0.00492487
5020.68559204,0.00487480
5022.61439941,0.00486753
5024.54320679,0.00487472
5026.47201416,0.00477734
5028.40082153,0.00488746
5030.32962891,0.00486085
5032.25843628,0.00479872
5034.18724365,0.00473894
5036.11605103,0.00472688
5038.04485840,0.00474813
5039.97366577,0.00473405
5041.90247314,0.00482598
5043.83128052,0.00477778
5045.76008789,0.00472845
5047.68889526,0.00465442
5049.61770264,0.00468434
5051.54651001,0.00473884
5053.47531738,0.00467921
5055.40412476,0.00474797
5057.33293213,0.00468701
5059.26173950,0.00464058
5061.19054687,0.00462923
5063.11935425,0.00465146
5065.04816162,0.00462314
5066.97696899,0.00452053
5068.90577637,0.00464657
5070.83458374,0.00463456
5072.76339111,0.00453495
5074.69219849,0.00452780
5076.62100586,0.00455688
5078.54981323,0.00453730
5080.47862061,0.00454290
5082.40742798,0.00459003
5084.33623535,0.00441112
5086.26504272,0.00444894
5088.19385010,0.00453636
5090.12265747,0.00446224
5092.05146484,0.00446281
5093.98027222,0.00441514
5095.90907959,0.00450247
5097.83788696,0.00447355
5099.76669434,0.00439267
5101.69550171,0.00450319
5103.62430908,0.00448927
5105.55311645,0.00439444
5107.48192383,0.00436171
5109.41073120,0.00440004
5111.33953857,0.00434179
5113.26834595,0.00427641
5115.19715332,0.00436329
5117.12596069,0.00438274
5119.05476807,0.00430035
5120.98357544,0.00428586
5122.91238281,0.00432354
5124.84119019,0.00427923
5126.76999756,0.00430106
5128.69880493,0.00425144
5130.62761230,0.00416310
5132.55641968,0.00427322
5134.48522705,0.00420592
5136.41403442,0.00419400
5138.34284180,0.00425740
5140.27164917,0.00416905
5142.20045654,0.00422637
5144.12926392,0.00416983
5146.05807129,0.00415046
5147.98687866,0.00422542
5149.91568603,0.00414332
5151.84449341,0.00418223
5153.77330078,0.00418183
5155.70210815,0.00412471
5157.63091553,0.00415657
5159.55972290,0.00411689
5161.48853027,0.00409920
5163.41733765,0.00411526
5165.34614502,0.00408808
5167.27495239,0.00411556
5169.20375977,0.00408442
5171.13256714,0.00404207
5173.06137451,0.00408377
5174.99018188,0.00404531
5176.91898926,0.00405637
5178.84779663,0.00402775
5180.77660400,0.00399372
5182.70541138,0.00401622
5184.63421875,0.00397426
5186.56302612,0.00402939
5188.49183350,0.00397766
5190.42064087,0.00393860
5192.34944824,0.00398317
5194.27825562,0.00395630
5196.20706299,0.00390643
5198.13587036,0.00390938
5200.06467773,0.00403833
5201.99348511,0.00396342
5203.92229248,0.00388501
5205.85109985,0.00379587
5207.77990723,0.00375943
5209.70871460,0.00390460
5211.63752197,0.00385723
5213.56632935,0.00384972
5215.49513672,0.00379591
5217.42394409,0.00386650
5219.35275146,0.00386497
5221.28155884,0.00381080
5223.21036621,0.00398430
5225.13917358,0.00375487
5227.06798096,0.00371338
5228.99678833,0.00378183
5230.92559570,0.00373759
5232.85440308,0.00381696
5234.78321045,0.00377511
5236.71201782,0.00385011
5238.64082520,0.00375788
5240.56963257,0.00379847
5242.49843994,0.00382716
5244.42724731,0.00361765
5246.35605469,0.00367811
5248.28486206,0.00363377
5250.21366943,0.00360110
5252.14247681,0.00368652
5254.07128418,0.00365701
5256.00009155,0.00357846
5257.92889893,0.00360971
5259.85770630,0.00369364
5261.78651367,0.00367992
5263.71532104,0.00360893
5265.64412842,0.00354460
5267.57293579,0.00366532
5269.50174316,0.00363069
5271.43055054,0.00357823
5273.35935791,0.00364333
5275.28816528,0.00352777
5277.21697266,0.00357856
5279.14578003,0.00360635
5281.07458740,0.00349693
5283.00339478,0.00347366
5284.93220215,0.00346720
5286.86100952,0.00351531
5288.78981689,0.00355150
5290.71862427,0.00350992
5292.64743164,0.00354386
5294.57623901,0.00361439
5296.50504639,0.00354134
5298.43385376,0.00350268
5300.36266113,0.00351182
5302.29146851,0.00347345
5304.22027588,0.00342941
5306.14908325,0.00343659
5308.07789062,0.00344664
5310.00669800,0.00341875
5311.93550537,0.00342908
5313.86431274,0.00339107
5315.79312012,0.00341134
5317.72192749,0.00337250
5319.65073486,0.00338564
5321.57954224,0.00343497
5323.50834961,0.00330054
5325.43715698,0.00335827
5327.36596436,0.00334024
5329.29477173,0.00335639
5331.22357910,0.00335704
5333.15238647,0.00314119
5335.08119385,0.00327966
5337.01000122,0.00331072
5338.93880859,0.00317808
5340.86761597,0.00328466
5342.79642334,0.00329632
5344.72523071,0.00316692
5346.65403809,0.00320725
5348.58284546,0.00332138
5350.51165283,0.00325692
5352.44046020,0.00324027
5354.36926758,0.00323695
5356.29807495,0.00322096
5358.22688232,0.00325745
5360.15568970,0.00325349
5362.08449707,0.00324224
5364.01330444,0.00321163
5365.94211182,0.00316183
5367.87091919,0.00310821
5369.79972656,0.00316739
5371.72853394,0.00318159
5373.65734131,0.00314110
5375.58614868,0.00314454
5377.51495605,0.00310534
5379.44376343,0.00316067
5381.37257080,0.00315129
5383.30137817,0.00313247
5385.23018555,0.00315855
5387.15899292,0.00303169
5389.08780029,0.00302348
5391.01660767,0.00311648
5392.94541504,0.00302643
5394.87422241,0.00299213
5396.80302978,0.00309061
5398.73183716,0.00303077
5400.66064453,0.00303510
5402.58945190,0.00313061
5404.51825928,0.00306873
5406.44706665,0.00305488
5408.37587402,0.00304049
5410.30468140,0.00297458
5412.23348877,0.00297149
5414.16229614,0.00291138
5416.09110352,0.00294867
5418.01991089,0.00306149
5419.94871826,0.00299090
5421.87752563,0.00298298
5423.80633301,0.00303153
5425.73514038,0.00299614
5427.66394775,0.00293683
5429.59275513,0.00283822
5431.52156250,0.00288858
5433.45036987,0.00293814
5435.37917725,0.00290593
5437.30798462,0.00303475
5439.23679199,0.00304239
5441.16559936,0.00282043
5443.09440674,0.00284078
5445.02321411,0.00288664
5446.95202148,0.00278335
5448.88082886,0.00287573
5450.80963623,0.00284231
5452.73844360,0.00286089
5454.66725098,0.00287767
5456.59605835,0.00277555
5458.52486572,0.00291685
5460.45367310,0.00281821
5462.38248047,0.00280072
5464.31128784,0.00284985
5466.24009521,0.00279800
5468.16890259,0.00286840
5470.09770996,0.00274072
5472.02651733,0.00280386
5473.95532471,0.00273628
5475.88413208,0.00266967
5477.81293945,0.00285824
5479.74174683,0.00279429
5481.67055420,0.00278721
5483.59936157,0.00271967
5485.52816895,0.00273150
5487.45697632,0.00272334
5489.38578369,0.00258328
5491.31459106,0.00269646
5493.24339844,0.00271366
5495.17220581,0.00269953
5497.10101318,0.00270227
5499.02982056,0.00271379
5500.95862793,0.00277701
5502.88743530,0.00273052
5504.81624268,0.00272303
5506.74505005,0.00266995
5508.67385742,0.00265101
5510.60266479,0.00273415
5512.53147217,0.00269322
5514.46027954,0.00263435
5516.38908691,0.00263577
5518.31789429,0.00265230
5520.24670166,0.00264899
5522.17550903,0.00254647
5524.10431641,0.00255603
5526.03312378,0.00265465
5527.96193115,0.00259042
5529.89073853,0.00258744
5531.81954590,0.00263534
5533.74835327,0.00259045
5535.67716064,0.00258491
5537.60596802,0.00254477
5539.53477539,0.00253547
5541.46358276,0.00265807
5543.39239014,0.00263250
5545.32119751,0.00251777
5547.25000488,0.00253501
5549.17881226,0.00255388
5551.10761963,0.00257631
5553.03642700,0.00257989
5554.96523437,0.00255017
5556.89404175,0.00255376
5558.82284912,0.00256151
5560.75165649,0.00250102
5562.68046387,0.00244224
5564.60927124,0.00252627
5566.53807861,0.00253072
5568.46688599,0.00250021
5570.39569336,0.00249896
5572.32450073,0.00245829
5574.25330811,0.00248790
5576.18211548,0.00246483
5578.11092285,0.00241531
5580.03973022,0.00239968
5581.96853760,0.00245404
5583.89734497,0.00248016
5585.82615234,0.00244097
5587.75495972,0.00242383
5589.68376709,0.00242875
5591.61257446,0.00248550
5593.54138184,0.00239899
5595.47018921,0.00236640
5597.39899658,0.00239020
5599.32780395,0.00236599
5601.25661133,0.00237858
5603.18541870,0.00233390
5605.11422607,0.00240448
5607.04303345,0.00238707
5608.97184082,0.00233323
5610.90064819,0.00236766
5612.82945557,0.00236979
5614.75826294,0.00234919
5616.68707031,0.00224995
5618.61587769,0.00227922
5620.54468506,0.00234795
5622.47349243,0.00238507
5624.40229980,0.00236493
5626.33110718,0.00232112
5628.25991455,0.00231753
5630.18872192,0.00232506
5632.11752930,0.00238268
5634.04633667,0.00230312
5635.97514404,0.00228713
5637.90395142,0.00231120
5639.83275879,0.00229101
5641.76156616,0.00222398
5643.69037353,0.00219896
5645.61918091,0.00229257
5647.54798828,0.00216557
5649.47679565,0.00221973
5651.40560303,0.00227206
5653.33441040,0.00215596
5655.26321777,0.00220184
5657.19202515,0.00218285
5659.12083252,0.00218210
5661.04963989,0.00220210
5662.97844727,0.00225606
5664.90725464,0.00214972
5666.83606201,0.00209768
5668.76486938,0.00221131
5670.69367676,0.00213920
5672.62248413,0.00216612
5674.55129150,0.00213117
5676.48009888,0.00208741
5678.40890625,0.00214411
5680.33771362,0.00211136
5682.26652100,0.00210663
5684.19532837,0.00214093
5686.12413574,0.00213927
5688.05294311,0.00209961
5689.98175049,0.00210640
5691.91055786,0.00202832
5693.83936523,0.00208808
5695.76817261,0.00217577
5697.69697998,0.00208748
5699.62578735,0.00208596
5701.55459473,0.00205433
5703.48340210,0.00208717
5705.41220947,0.00212565
5707.34101685,0.00212340
5709.26982422,0.00209306
5711.19863159,0.00204295
5713.12743896,0.00207128
5715.05624634,0.00203162
5716.98505371,0.00202247
5718.91386108,0.00197000
5720.84266846,0.00196872
5722.77147583,0.00202841
5724.70028320,0.00194526
5726.62909058,0.00194828
5728.55789795,0.00206060
5730.48670532,0.00203547
5732.41551270,0.00194531
5734.34432007,0.00199030
5736.27312744,0.00195953
5738.20193481,0.00194826
5740.13074219,0.00195343
5742.05954956,0.00196995
5743.98835693,0.00209032
5745.91716431,0.00199207
5747.84597168,0.00198972
5749.77477905,0.00195997
5751.70358643,0.00181494
5753.63239380,0.00193086
5755.56120117,0.00197537
5757.49000854,0.00196430
5759.41881592,0.00196750
5761.34762329,0.00187594
5763.27643066,0.00185013
5765.20523804,0.00186782
5767.13404541,0.00186095
5769.06285278,0.00193297
5770.99166016,0.00194538
5772.92046753,0.00190339
5774.84927490,0.00191171
5776.77808228,0.00185998
5778.70688965,0.00189480
5780.63569702,0.00187807
5782.56450439,0.00184334
5784.49331177,0.00186132
5786.42211914,0.00179998
5788.35092651,0.00182220
5790.27973389,0.00184769
5792.20854126,0.00187236
5794.13734863,0.00185944
5796.06615601,0.00183950
5797.99496338,0.00180208
5799.92377075,0.00174535
5801.85257812,0.00179751
5803.78138550,0.00180745
5805.71019287,0.00183365
5807.63900024,0.00178521
5809.56780762,0.00175254
5811.49661499,0.00181791
5813.42542236,0.00180826
5815.35422974,0.00179786
5817.28303711,0.00179697
5819.21184448,0.00180326
5821.14065186,0.00170516
5823.06945923,0.00170545
5824.99826660,0.00177139
5826.92707397,0.00172968
5828.85588135,0.00177642
5830.78468872,0.00176686
5832.71349609,0.00172458
5834.64230347,0.00175019
5836.57111084,0.00174594
5838.49991821,0.00170025
5840.42872559,0.00172205
5842.35753296,0.00167394
5844.28634033,0.00163181
5846.21514770,0.00174056
5848.14395508,0.00165376
5850.07276245,0.00166989
5852.00156982,0.00175702
5853.93037720,0.00165067
5855.85918457,0.00164902
5857.78799194,0.00164915
5859.71679932,0.00164066
5861.64560669,0.00164361
5863.57441406,0.00164727
5865.50322144,0.00165261
5867.43202881,0.00160009
5869.36083618,0.00163671
5871.28964355,0.00166821
5873.21845093,0.00160070
5875.14725830,0.00160777
5877.07606567,0.00162768
5879.00487305,0.00162927
5880.93368042,0.00166019
5882.86248779,0.00161773
5884.79129517,0.00162973
5886.72010254,0.00161390
5888.64890991,0.00158718
5890.57771728,0.00161248
5892.50652466,0.00157824
5894.43533203,0.00158237
5896.36413940,0.00149587
5898.29294678,0.00154510
5900.22175415,0.00161485
5902.15056152,0.00154590
5904.07936890,0.00155271
5906.00817627,0.00148042
5907.93698364,0.00154667
5909.86579102,0.00156257
5911.79459839,0.00153513
5913.72340576,0.00161015
5915.65221313,0.00155340
5917.58102051,0.00152765
5919.50982788,0.00150321
5921.43863525,0.00154024
5923.36744263,0.00154384
5925.29625000,0.00150687
5927.22505737,0.00146836
5929.15386475,0.00145695
5931.08267212,0.00159854
5933.01147949,0.00155855
5934.94028686,0.00151778
5936.86909424,0.00152606
5938.79790161,0.00146775
5940.72670898,0.00148424
5942.65551636,0.00148825
5944.58432373,0.00149683
5946.51313110,0.00150440
5948.44193848,0.00150957
5950.37074585,0.00142455
5952.29955322,0.00142598
5954.22836060,0.00149619
5956.15716797,0.00144972
5958.08597534,0.00144646
5960.01478271,0.00142153
5961.94359009,0.00143943
5963.87239746,0.00145777
5965.80120483,0.00141554
5967.73001221,0.00136746
5969.65881958,0.00140936
5971.58762695,0.00155740
5973.51643433,0.00147612
5975.44524170,0.00139877
5977.37404907,0.00145111
5979.30285645,0.00139869
5981.23166382,0.00137418
5983.16047119,0.00137838
5985.08927856,0.00136781
5987.01808594,0.00134940
5988.94689331,0.00137166
5990.87570068,0.00143673
5992.80450806,0.00140362
5994.73331543,0.00136655
5996.66212280,0.00137230
5998.59093018,0.00135792
6000.51973755,0.00137554
