399.26312622,0.00038183
401.19193359,0.00054527
403.12074097,0.00045976
405.04954834,0.00021584
406.97835571,0.00041212
408.90716309,0.00048143
410.83597046,0.00070974
412.76477783,0.00032426
414.69358521,0.00037793
416.62239258,0.00029107
418.55119995,0.00017537
420.48000732,0.00075234
422.40881470,0.00063907
424.33762207,0.00090322
426.26642944,0.00055912
428.19523682,0.00066063
430.12404419,0.00087834
432.05285156,0.00007200
433.98165894,0.00061341
435.91046631,0.00053567
437.83927368,0.00021241
439.76808105,0.00067440
441.69688843,0.00069654
443.62569580,0.00058322
445.55450317,0.00046435
447.48331055,0.00021276
449.41211792,-0.00007987
451.34092529,0.00026017
453.26973267,0.00038930
455.19854004,0.00065836
457.12734741,0.00062564
459.05615479,0.00018212
460.98496216,0.00069692
462.91376953,0.00051415
464.84257690,0.00013583
466.77138428,0.00011049
468.70019165,0.00026832
470.62899902,0.00063116
472.55780640,0.00042826
474.48661377,0.00019700
476.41542114,0.00020287
478.34422852,0.00034741
480.27303589,0.00016434
482.20184326,0.00041729
484.13065063,0.00052128
486.05945801,0.00022196
487.98826538,0.00002264
489.91707275,-0.00015655
491.84588013,0.00037194
493.77468750,0.00001323
495.70349487,0.00018157
497.63230225,0.00043437
499.56110962,-0.00024804
501.48991699,-0.00000765
503.41872437,0.00001627
505.34753174,0.00039874
507.27633911,0.00012670
509.20514648,-0.00005005
511.13395386,0.00041482
513.06276123,0.00007250
514.99156860,0.00010924
516.92037598,-0.00001249
518.84918335,0.00010380
520.77799072,-0.00000129
522.70679810,-0.00004687
524.63560547,0.00010677
526.56441284,-0.00020175
528.49322021,0.00012781
530.42202759,0.00073034
532.35083496,0.00039753
534.27964233,-0.00012010
536.20844971,0.00013308
538.13725708,0.00013544
540.06606445,0.00016189
541.99487183,0.00019760
543.92367920,-0.00008687
545.85248657,0.00019739
547.78129395,0.00027649
549.71010132,0.00006408
551.63890869,0.00006863
553.56771606,0.00016918
555.49652344,-0.00000487
557.42533081,-0.00017285
559.35413818,0.00010219
561.28294556,0.00014794
563.21175293,0.00009965
565.14056030,0.00018892
567.06936768,0.00030619
568.99817505,0.00031191
570.92698242,-0.00006731
572.85578979,-0.00005385
574.78459717,-0.00001442
576.71340454,-0.00014594
578.64221191,0.00022146
580.57101929,0.00013314
582.49982666,0.00000011
584.42863403,0.00012132
586.35744141,-0.00001318
588.28624878,-0.00015650
590.21505615,-0.00024754
592.14386353,0.00020555
594.07267090,0.00015135
596.00147827,-0.00007821
597.93028564,0.00034653
599.85909302,0.00002705
601.78790039,-0.00020238
603.71670776,0.00031667
605.64551514,0.00014380
607.57432251,-0.00035655
609.50312988,0.00009741
611.43193726,0.00047142
613.36074463,0.00028939
615.28955200,0.00024336
617.21835938,0.00000822
619.14716675,-0.00007884
621.07597412,0.00003240
623.00478149,0.00009464
624.93358887,0.00011842
626.86239624,0.00015621
628.79120361,-0.00006792
630.72001099,0.00011536
632.64881836,0.00094352
634.57762573,0.00061802
636.50643311,0.00023034
638.43524048,0.00069391
640.36404785,0.00049024
642.29285522,0.00031954
644.22166260,0.00082060
646.15046997,0.00082281
648.07927734,0.00024672
650.00808472,0.00027528
651.93689209,0.00087086
653.86569946,0.00111445
655.79450684,0.00090602
657.72331421,0.00084849
659.65212158,0.00100692
661.58092896,0.00094215
663.50973633,0.00101943
665.43854370,0.00096526
667.36735107,0.00059133
669.29615845,0.00091062
671.22496582,0.00128133
673.15377319,0.00122636
675.08258057,0.00140599
677.01138794,0.00143894
678.94019531,0.00130830
680.86900269,0.00116068
682.79781006,0.00121832
684.72661743,0.00150436
686.65542480,0.00144797
688.58423218,0.00138013
690.51303955,0.00135668
692.44184692,0.00150827
694.37065430,0.00174959
696.29946167,0.00186595
698.22826904,0.00201508
700.15707642,0.00188674
702.08588379,0.00216621
704.01469116,0.00182789
705.94349854,0.00118838
707.87230591,0.00169276
709.80111328,0.00107652
711.72992065,0.00057528
713.65872803,0.00085304
715.58753540,0.00021607
717.51634277,0.00013282
719.44515015,0.00037378
721.37395752,0.00036880
723.30276489,0.00005278
725.23157227,-0.00014176
727.16037964,0.00021872
729.08918701,0.00002851
731.01799438,-0.00008233
732.94680176,0.00014154
734.87560913,0.00029533
736.80441650,0.00020499
738.73322388,0.00008066
740.66203125,0.00016774
742.59083862,0.00013268
744.51964600,0.00036824
746.44845337,0.00042935
748.37726074,0.00022393
750.30606812,0.00014980
752.23487549,0.00028052
754.16368286,0.00028465
756.09249023,-0.00002931
758.02129761,0.00005750
759.95010498,0.00022942
761.87891235,0.00010469
763.80771973,0.00012720
765.73652710,0.00022907
767.66533447,0.00029963
769.59414185,0.00029851
771.52294922,0.00020176
773.45175659,0.00023279
775.38056396,0.00045741
777.30937134,0.00059287
779.23817871,0.00012460
781.16698608,-0.00000002
783.09579346,0.00032775
785.02460083,-0.00000077
786.95340820,0.00012310
788.88221558,0.00047839
790.81102295,0.00024307
792.73983032,0.00023653
794.66863770,0.00016313
796.59744507,0.00011647
798.52625244,0.00038892
800.45505981,0.00041284
802.38386719,0.00026269
804.31267456,0.00024323
806.24148193,0.00043225
808.17028931,0.00028902
810.09909668,-0.00006805
812.02790405,0.00011838
813.95671143,0.00030829
815.88551880,0.00014813
817.81432617,0.00019306
819.74313354,0.00025547
821.67194092,0.00006673
823.60074829,0.00031673
825.52955566,0.00046551
827.45836304,0.00038373
829.38717041,0.00058570
831.31597778,0.00022962
833.24478516,0.00010588
835.17359253,0.00045060
837.10239990,0.00040760
839.03120728,0.00047840
840.96001465,0.00052827
842.88882202,0.00036055
844.81762939,0.00045544
846.74643677,0.00060600
848.67524414,0.00036007
850.60405151,0.00042068
852.53285889,0.00051138
854.46166626,0.00035413
856.39047363,0.00057226
858.31928101,0.00043127
860.24808838,0.00035248
862.17689575,0.00035886
864.10570313,0.00014965
866.03451050,0.00026474
867.96331787,0.00017866
869.89212524,0.00030242
871.82093262,0.00040098
873.74973999,0.00017995
875.67854736,0.00025796
877.60735474,0.00030997
879.53616211,0.00031534
881.46496948,0.00029913
883.39377686,0.00035871
885.32258423,0.00037446
887.25139160,0.00013796
889.18019897,0.00015568
891.10900635,0.00032438
893.03781372,0.00039784
894.96662109,0.00028738
896.89542847,0.00012326
898.82423584,0.00026776
900.75304321,0.00023643
902.68185059,0.00031423
904.61065796,0.00071647
906.53946533,0.00063454
908.46827271,0.00039951
910.39708008,0.00025864
912.32588745,0.00020896
914.25469482,0.00028501
916.18350220,0.00038625
918.11230957,0.00056883
920.04111694,0.00051574
921.96992432,0.00053912
923.89873169,0.00065686
925.82753906,0.00059264
927.75634644,0.00058979
929.68515381,0.00065555
931.61396118,0.00076274
933.54276855,0.00071100
935.47157593,0.00078061
937.40038330,0.00109960
939.32919067,0.00096202
941.25799805,0.00050615
943.18680542,0.00066835
945.11561279,0.00095812
947.04442017,0.00071292
948.97322754,0.00079660
950.90203491,0.00092919
952.83084229,0.00085457
954.75964966,0.00082030
956.68845703,0.00073775
958.61726440,0.00096056
960.54607178,0.00094193
962.47487915,0.00087438
964.40368652,0.00094266
966.33249390,0.00081400
968.26130127,0.00085309
970.19010864,0.00098421
972.11891602,0.00108222
974.04772339,0.00103502
975.97653076,0.00111087
977.90533813,0.00122336
979.83414551,0.00120459
981.76295288,0.00135055
983.69176025,0.00163637
985.62056763,0.00197765
987.54937500,0.00186745
989.47818237,0.00183733
991.40698975,0.00233277
993.33579712,0.00260414
995.26460449,0.00272948
997.19341187,0.00279053
999.12221924,0.00300660
1001.05102661,0.00343749
1002.97983398,0.00346933
1004.90864136,0.00369833
1006.83744873,0.00418708
1008.76625610,0.00410938
1010.69506348,0.00422783
1012.62387085,0.00458638
1014.55267822,0.00480532
1016.48148560,0.00533631
1018.41029297,0.00562785
1020.33910034,0.00574318
1022.26790771,0.00587293
1024.19671509,0.00602412
1026.12552246,0.00646910
1028.05432983,0.00654254
1029.98313721,0.00658877
1031.91194458,0.00694178
1033.84075195,0.00708122
1035.76955933,0.00730462
1037.69836670,0.00749709
1039.62717407,0.00735791
1041.55598145,0.00726687
1043.48478882,0.00732069
1045.41359619,0.00724976
1047.34240356,0.00703490
1049.27121094,0.00705582
1051.20001831,0.00716920
1053.12882568,0.00693348
1055.05763306,0.00671719
1056.98644043,0.00653380
1058.91524780,0.00634216
1060.84405518,0.00629994
1062.77286255,0.00611392
1064.70166992,0.00587592
1066.63047729,0.00569264
1068.55928467,0.00562847
1070.48809204,0.00535597
1072.41689941,0.00501093
1074.34570679,0.00501009
1076.27451416,0.00465404
1078.20332153,0.00417918
1080.13212891,0.00426100
1082.06093628,0.00440724
1083.98974365,0.00405180
1085.91855103,0.00371041
1087.84735840,0.00363407
1089.77616577,0.00352649
1091.70497314,0.00335842
1093.63378052,0.00302434
1095.56258789,0.00310237
1097.49139526,0.00319176
1099.42020264,0.00292912
1101.34901001,0.00279582
1103.27781738,0.00283592
1105.20662476,0.00294525
1107.13543213,0.00268833
1109.06423950,0.00266959
1110.99304687,0.00271252
1112.92185425,0.00268632
1114.85066162,0.00278734
1116.77946899,0.00250833
1118.70827637,0.00244714
1120.63708374,0.00243082
1122.56589111,0.00238170
1124.49469849,0.00249549
1126.42350586,0.00276584
1128.35231323,0.00274612
1130.28112061,0.00272755
1132.20992798,0.00326682
1134.13873535,0.00303918
1136.06754272,0.00295791
1137.99635010,0.00318255
1139.92515747,0.00328059
1141.85396484,0.00380750
1143.78277222,0.00388248
1145.71157959,0.00394307
1147.64038696,0.00415614
1149.56919434,0.00467614
1151.49800171,0.00501156
1153.42680908,0.00494566
1155.35561646,0.00538698
1157.28442383,0.00560097
1159.21323120,0.00563482
1161.14203857,0.00584727
1163.07084595,0.00619859
1164.99965332,0.00625478
1166.92846069,0.00633609
1168.85726807,0.00676396
1170.78607544,0.00695893
1172.71488281,0.00740633
1174.64369019,0.00767015
1176.57249756,0.00797948
1178.50130493,0.00845150
1180.43011230,0.00855871
1182.35891968,0.00887537
1184.28772705,0.00914991
1186.21653442,0.00957631
1188.14534180,0.01028841
1190.07414917,0.01064621
1192.00295654,0.01102972
1193.93176392,0.01176467
1195.86057129,0.01216828
1197.78937866,0.01273883
1199.71818604,0.01351104
1201.64699341,0.01377993
1203.57580078,0.01431997
1205.50460815,0.01493055
1207.43341553,0.01555526
1209.36222290,0.01613571
1211.29103027,0.01656243
1213.21983765,0.01726986
1215.14864502,0.01752372
1217.07745239,0.01771677
1219.00625977,0.01832383
1220.93506714,0.01861339
1222.86387451,0.01859673
1224.79268188,0.01889189
1226.72148926,0.01912182
1228.65029663,0.01906700
1230.57910400,0.01930389
1232.50791138,0.01953079
1234.43671875,0.01951003
1236.36552612,0.01934563
1238.29433350,0.01924722
1240.22314087,0.01920374
1242.15194824,0.01934444
1244.08075562,0.01933825
1246.00956299,0.01900793
1247.93837036,0.01901231
1249.86717773,0.01891124
1251.79598511,0.01881737
1253.72479248,0.01864548
1255.65359985,0.01848439
1257.58240723,0.01839490
1259.51121460,0.01777596
1261.44002197,0.01747019
1263.36882935,0.01740931
1265.29763672,0.01709798
1267.22644409,0.01685237
1269.15525146,0.01696878
1271.08405884,0.01666565
1273.01286621,0.01627526
1274.94167358,0.01629718
1276.87048096,0.01580999
1278.79928833,0.01568038
1280.72809570,0.01523304
1282.65690308,0.01479975
1284.58571045,0.01485612
1286.51451782,0.01427323
1288.44332520,0.01408106
1290.37213257,0.01395512
1292.30093994,0.01397915
1294.22974731,0.01390123
1296.15855469,0.01361488
1298.08736206,0.01378218
1300.01616943,0.01371226
1301.94497681,0.01391078
1303.87378418,0.01415781
1305.80259155,0.01425084
1307.73139893,0.01435206
1309.66020630,0.01455497
1311.58901367,0.01492005
1313.51782104,0.01514513
1315.44662842,0.01552683
1317.37543579,0.01585538
1319.30424316,0.01630387
1321.23305054,0.01695404
1323.16185791,0.01745939
1325.09066528,0.01784210
1327.01947266,0.01853019
1328.94828003,0.01902530
1330.87708740,0.01921349
1332.80589478,0.01964508
1334.73470215,0.01997080
1336.66350952,0.02039742
1338.59231689,0.02008330
1340.52112427,0.02038253
1342.44993164,0.02154268
1344.37873901,0.02157658
1346.30754639,0.02167329
1348.23635376,0.02147230
1350.16516113,0.02133070
1352.09396851,0.02132463
1354.02277588,0.02111701
1355.95158325,0.02107645
1357.88039062,0.02063377
1359.80919800,0.02064512
1361.73800537,0.01960386
1363.66681274,0.01934021
1365.59562012,0.02062288
1367.52442749,0.01978306
1369.45323486,0.01975114
1371.38204224,0.02026098
1373.31084961,0.01908829
1375.23965698,0.01922170
1377.16846436,0.01976904
1379.09727173,0.01956568
1381.02607910,0.01977767
1382.95488647,0.01972849
1384.88369385,0.01937483
1386.81250122,0.01898940
1388.74130859,0.01928303
1390.67011597,0.02060552
1392.59892334,0.02008068
1394.52773071,0.01886162
1396.45653809,0.01995401
1398.38534546,0.01982215
1400.31415283,0.01970166
1402.24296021,0.02126252
1404.17176758,0.02039954
1406.10057495,0.02039471
1408.02938232,0.02105414
1409.95818970,0.02044817
1411.88699707,0.02073866
1413.81580444,0.02019813
1415.74461182,0.02037435
1417.67341919,0.01838300
1419.60222656,0.01642181
1421.53103394,0.01881520
1423.45984131,0.01841745
1425.38864868,0.01772773
1427.31745605,0.01819997
1429.24626343,0.01702937
1431.17507080,0.01654022
1433.10387817,0.01660529
1435.03268555,0.01520710
1436.96149292,0.01310797
1438.89030029,0.01467094
1440.81910767,0.01517040
1442.74791504,0.01406802
1444.67672241,0.01464811
1446.60552979,0.01351098
1448.53433716,0.01390165
1450.46314453,0.01447440
1452.39195190,0.01457313
1454.32075928,0.01507615
1456.24956665,0.01254492
1458.17837402,0.01331804
1460.10718140,0.01752720
1462.03598877,0.01851001
1463.96479614,0.01841935
1465.89360352,0.01908957
1467.82241089,0.02164818
1469.75121826,0.02336606
1471.68002563,0.02107362
1473.60883301,0.02204439
1475.53764038,0.02499208
1477.46644775,0.02691043
1479.39525513,0.02963919
1481.32406250,0.02987350
1483.25286987,0.03156872
1485.18167725,0.03294922
1487.11048462,0.03238189
1489.03929199,0.03227110
1490.96809937,0.03243751
1492.89690674,0.03760882
1494.82571411,0.03697159
1496.75452148,0.03296509
1498.68332886,0.03727398
1500.61213623,0.03864437
1502.54094360,0.04121583
1504.46975098,0.03906202
1506.39855835,0.02883783
1508.32736572,0.03503529
1510.25617310,0.04090498
1512.18498047,0.03959765
1514.11378784,0.04283580
1516.04259521,0.03887332
1517.97140259,0.04051338
1519.90020996,0.03916712
1521.82901733,0.03412146
1523.75782471,0.04150316
1525.68663208,0.04091129
1527.61543945,0.04070445
1529.54424683,0.04476891
1531.47305420,0.04317505
1533.40186157,0.03984650
1535.33066895,0.04213701
1537.25947632,0.04509329
1539.18828369,0.03285546
1541.11709106,0.03418842
1543.04589844,0.04075162
1544.97470581,0.03912484
1546.90351318,0.04597362
1548.83232056,0.04308707
1550.76112793,0.04442459
1552.68993530,0.04421589
1554.61874268,0.04022880
1556.54755005,0.04304641
1558.47635742,0.03110037
1560.40516479,0.03328527
1562.33397217,0.04648832
1564.26277954,0.04415793
1566.19158691,0.04523429
1568.12039429,0.04483594
1570.04920166,0.04006443
1571.97800903,0.04591367
1573.90681641,0.04658808
1575.83562378,0.03738543
1577.76443115,0.04204073
1579.69323853,0.04725129
1581.62204590,0.04523830
1583.55085327,0.04650417
1585.47966064,0.04593772
1587.40846802,0.04617136
1589.33727539,0.04583347
1591.26608276,0.04597710
1593.19489014,0.04606817
1595.12369751,0.04552002
1597.05250488,0.04602142
1598.98131226,0.04583479
1600.91011963,0.04623979
1602.83892700,0.04531455
1604.76773437,0.04613499
1606.69654175,0.04559851
1608.62534912,0.04547535
1610.55415649,0.04556105
1612.48296387,0.04594524
1614.41177124,0.04644478
1616.34057861,0.03836926
1618.26938599,0.04136568
1620.19819336,0.04781481
1622.12700073,0.04293428
1624.05580811,0.04297458
1625.98461548,0.04507593
1627.91342285,0.04494296
1629.84223022,0.04457462
1631.77103760,0.04774170
1633.69984497,0.04408246
1635.62865234,0.03684882
1637.55745972,0.04254255
1639.48626709,0.04655169
1641.41507446,0.04568350
1643.34388184,0.04666040
1645.27268921,0.04240415
1647.20149658,0.03753271
1649.13030396,0.04620549
1651.05911133,0.04400563
1652.98791870,0.02888008
1654.91672607,0.03869873
1656.84553345,0.04811689
1658.77434082,0.04618310
1660.70314819,0.04735847
1662.63195557,0.04322172
1664.56076294,0.04569474
1666.48957031,0.04880301
1668.41837769,0.04294913
1670.34718506,0.04169721
1672.27599243,0.04691133
1674.20479980,0.04371233
1676.13360718,0.04190881
1678.06241455,0.04802842
1679.99122192,0.04634464
1681.92002930,0.04586719
1683.84883667,0.03782701
1685.77764404,0.03711067
1687.70645142,0.05041157
1689.63525879,0.04424576
1691.56406616,0.04834319
1693.49287354,0.04950918
1695.42168091,0.03654996
1697.35048828,0.04453652
1699.27929565,0.03958450
1701.20810303,0.03571214
1703.13691040,0.04802752
1705.06571777,0.04422965
1706.99452515,0.04466329
1708.92333252,0.04836185
1710.85213989,0.04643271
1712.78094727,0.04753682
1714.70975464,0.04423748
1716.63856201,0.03970493
1718.56736938,0.03923863
1720.49617676,0.04617397
1722.42498413,0.04777138
1724.35379150,0.04463147
1726.28259888,0.04853735
1728.21140625,0.04489278
1730.14021362,0.04521196
1732.06902100,0.04412779
1733.99782837,0.03405344
1735.92663574,0.04194978
1737.85544312,0.04624783
1739.78425049,0.04145873
1741.71305786,0.04495781
1743.64186523,0.04551785
1745.57067261,0.04571605
1747.49947998,0.04604743
1749.42828735,0.04409185
1751.35709473,0.04223467
1753.28590210,0.04656719
1755.21470947,0.04884958
1757.14351685,0.04476561
1759.07232422,0.04899633
1761.00113159,0.04623492
1762.92993896,0.04467253
1764.85874634,0.05088592
1766.78755371,0.04609325
1768.71636108,0.04656268
1770.64516846,0.04630874
1772.57397583,0.04181239
1774.50278320,0.04643116
1776.43159058,0.04904403
1778.36039795,0.04834498
1780.28920532,0.04771161
1782.21801270,0.04829126
1784.14682007,0.04821109
1786.07562744,0.04717684
1788.00443481,0.04965342
1789.93324219,0.04844574
1791.86204956,0.04384957
1793.79085693,0.04577840
1795.71966431,0.04926540
1797.64847168,0.04857656
1799.57727905,0.04784147
1801.50608643,0.04709279
1803.43489380,0.04845925
1805.36370117,0.04971613
1807.29250854,0.04917309
1809.22131592,0.04920354
1811.15012329,0.04806497
1813.07893066,0.04953652
1815.00773804,0.04974841
1816.93654541,0.04927339
1818.86535278,0.04963606
1820.79416016,0.04943267
1822.72296753,0.05016870
1824.65177490,0.04694716
1826.58058228,0.04866957
1828.50938965,0.04900432
1830.43819702,0.04603719
1832.36700439,0.04991515
1834.29581177,0.04970770
1836.22461914,0.04948801
1838.15342651,0.04927821
1840.08223389,0.04966139
1842.01104126,0.04982212
1843.93984863,0.04453981
1845.86865601,0.04724722
1847.79746338,0.04967397
1849.72627075,0.04886738
1851.65507812,0.05034841
1853.58388550,0.04925242
1855.51269287,0.04977573
1857.44150024,0.04949440
1859.37030762,0.04926342
1861.29911499,0.04964059
1863.22792236,0.04911153
1865.15672974,0.04971384
1867.08553711,0.04809704
1869.01434448,0.04630167
1870.94315186,0.04784060
1872.87195923,0.04954730
1874.80076660,0.04908716
1876.72957397,0.04924309
1878.65838135,0.04912262
1880.58718872,0.04883574
1882.51599609,0.04939356
1884.44480347,0.04874479
1886.37361084,0.04924763
1888.30241821,0.04826356
1890.23122559,0.04730503
1892.16003296,0.04914128
1894.08884033,0.04862425
1896.01764771,0.04840043
1897.94645508,0.04894025
1899.87526245,0.04868247
1901.80406982,0.04883310
1903.73287720,0.04849313
1905.66168457,0.04881065
1907.59049194,0.04831809
1909.51929932,0.04795268
1911.44810669,0.04842260
1913.37691406,0.04847966
1915.30572144,0.04879308
1917.23452881,0.04684808
1919.16333618,0.04706440
1921.09214355,0.04863577
1923.02095093,0.04719654
1924.94975830,0.04812401
1926.87856567,0.04855311
1928.80737305,0.04819229
1930.73618042,0.04856620
1932.66498779,0.04803137
1934.59379517,0.04870866
1936.52260254,0.04825598
1938.45140991,0.04847412
1940.38021729,0.04845622
1942.30902466,0.04699967
1944.23783203,0.04779804
1946.16663940,0.04820925
1948.09544678,0.04817477
1950.02425415,0.04836504
1951.95306152,0.04845206
1953.88186890,0.04840766
1955.81067627,0.04802547
1957.73948364,0.04839006
1959.66829102,0.04838350
1961.59709839,0.04834049
1963.52590576,0.04845177
1965.45471313,0.04807597
1967.38352051,0.04771644
1969.31232788,0.04809492
1971.24113525,0.04837448
1973.16994263,0.04810726
1975.09875000,0.04843757
1977.02755737,0.04833429
1978.95636475,0.04823391
1980.88517212,0.04812428
1982.81397949,0.04799707
1984.74278687,0.04829641
1986.67159424,0.04793910
1988.60040161,0.04813782
1990.52920898,0.04775061
1992.45801636,0.04706855
1994.38682373,0.04794677
1996.31563110,0.04804315
1998.24443848,0.04762040
2000.17324585,0.04781837
2002.10205322,0.04779417
2004.03086060,0.04777774
2005.95966797,0.04765652
2007.88847534,0.04748774
2009.81728271,0.04754388
2011.74609009,0.04744107
2013.67489746,0.04743002
2015.60370483,0.04709542
2017.53251221,0.04681715
2019.46131958,0.04712531
2021.39012695,0.04708032
2023.31893433,0.04693327
2025.24774170,0.04684383
2027.17654907,0.04703853
2029.10535645,0.04695781
2031.03416382,0.04658115
2032.96297119,0.04674245
2034.89177856,0.04657596
2036.82058594,0.04661411
2038.74939331,0.04656449
2040.67820068,0.04628339
2042.60700806,0.04639889
2044.53581543,0.04626068
2046.46462280,0.04632602
2048.39343018,0.04620381
2050.32223755,0.04603065
2052.25104492,0.04619720
2054.17985229,0.04605651
2056.10865967,0.04598909
2058.03746704,0.04591288
2059.96627441,0.04580387
2061.89508179,0.04586454
2063.82388916,0.04561362
2065.75269653,0.04541220
2067.68150391,0.04561792
2069.61031128,0.04559004
2071.53911865,0.04547917
2073.46792603,0.04537612
2075.39673340,0.04523269
2077.32554077,0.04533825
2079.25434814,0.04527799
2081.18315552,0.04515031
2083.11196289,0.04516421
2085.04077026,0.04512660
2086.96957764,0.04497613
2088.89838501,0.04498937
2090.82719238,0.04496810
2092.75599976,0.04473206
2094.68480713,0.04484122
2096.61361450,0.04480087
2098.54242187,0.04474074
2100.47122925,0.04489105
2102.40003662,0.04470135
2104.32884399,0.04455725
2106.25765137,0.04449966
2108.18645874,0.04444380
2110.11526611,0.04444564
2112.04407349,0.04441013
2113.97288086,0.04437050
2115.90168823,0.04425123
2117.83049561,0.04423356
2119.75930298,0.04430875
2121.68811035,0.04410932
2123.61691772,0.04405946
2125.54572510,0.04423028
2127.47453247,0.04416262
2129.40333984,0.04410362
2131.33214722,0.04399933
2133.26095459,0.04403552
2135.18976196,0.04401692
2137.11856934,0.04391551
2139.04737671,0.04400547
2140.97618408,0.04381886
2142.90499146,0.04384433
2144.83379883,0.04384688
2146.76260620,0.04373420
2148.69141357,0.04376350
2150.62022095,0.04367537
2152.54902832,0.04379297
2154.47783569,0.04369641
2156.40664307,0.04363854
2158.33545044,0.04375021
2160.26425781,0.04367474
2162.19306519,0.04372085
2164.12187256,0.04370586
2166.05067993,0.04350980
2167.97948730,0.04345556
2169.90829468,0.04348186
2171.83710205,0.04337866
2173.76590942,0.04347484
2175.69471680,0.04340006
2177.62352417,0.04336502
2179.55233154,0.04351962
2181.48113892,0.04334816
2183.40994629,0.04334942
2185.33875366,0.04335413
2187.26756104,0.04335087
2189.19636841,0.04329073
2191.12517578,0.04324145
2193.05398315,0.04326088
2194.98279053,0.04319160
2196.91159790,0.04326185
2198.84040527,0.04303323
2200.76921265,0.04314309
2202.69802002,0.04323879
2204.62682739,0.04299740
2206.55563477,0.04306329
2208.48444214,0.04296374
2210.41324951,0.04304595
2212.34205688,0.04309325
2214.27086426,0.04287589
2216.19967163,0.04277176
2218.12847900,0.04293218
2220.05728638,0.04301636
2221.98609375,0.04277530
2223.91490112,0.04273573
2225.84370850,0.04274599
2227.77251587,0.04273491
2229.70132324,0.04252931
2231.63013062,0.04243114
2233.55893799,0.04261403
2235.48774536,0.04262909
2237.41655273,0.04256085
2239.34536011,0.04246134
2241.27416748,0.04242431
2243.20297485,0.04222164
2245.13178223,0.04228592
2247.06058960,0.04238168
2248.98939697,0.04224548
2250.91820435,0.04231150
2252.84701172,0.04219747
2254.77581909,0.04217778
2256.70462646,0.04212159
2258.63343384,0.04205777
2260.56224121,0.04204559
2262.49104858,0.04196959
2264.41985596,0.04193985
2266.34866333,0.04185540
2268.27747070,0.04191213
2270.20627808,0.04174218
2272.13508545,0.04184099
2274.06389282,0.04203016
2275.99270020,0.04188870
2277.92150757,0.04184535
2279.85031494,0.04165253
2281.77912231,0.04173790
2283.70792969,0.04183734
2285.63673706,0.04169714
2287.56554443,0.04161481
2289.49435181,0.04148814
2291.42315918,0.04136902
2293.35196655,0.04137513
2295.28077393,0.04141152
2297.20958130,0.04121590
2299.13838867,0.04108346
2301.06719604,0.04089077
2302.99600342,0.04069645
2304.92481079,0.04056321
2306.85361816,0.04033357
2308.78242554,0.04009123
2310.71123291,0.03969817
2312.64004028,0.03945340
2314.56884766,0.03913158
2316.49765503,0.03868004
2318.42646240,0.03829053
2320.35526978,0.03792456
2322.28407715,0.03734671
2324.21288452,0.03667332
2326.14169189,0.03647825
2328.07049927,0.03609139
2329.99930664,0.03564394
2331.92811401,0.03547031
2333.85692139,0.03523834
2335.78572876,0.03502586
2337.71453613,0.03500032
2339.64334351,0.03519121
2341.57215088,0.03534140
2343.50095825,0.03578566
2345.42976562,0.03650241
2347.35857300,0.03791530
2349.28738037,0.03892009
2351.21618774,0.03768107
2353.14499512,0.03595740
2355.07380249,0.03468411
2357.00260986,0.03359998
2358.93141724,0.03309623
2360.86022461,0.03280768
2362.78903198,0.03265253
2364.71783936,0.03293166
2366.64664673,0.03336627
2368.57545410,0.03397133
2370.50426147,0.03489757
2372.43306885,0.03570759
2374.36187622,0.03672811
2376.29068359,0.03773551
2378.21949097,0.03847285
2380.14829834,0.03915676
2382.07710571,0.03960674
2384.00591309,0.03992435
2385.93472046,0.03997441
2387.86352783,0.04004415
2389.79233521,0.04008596
2391.72114258,0.04012098
2393.64994995,0.04001722
2395.57875732,0.03989077
2397.50756470,0.04012126
2399.43637207,0.03989766
2401.36517944,0.03988437
2403.29398682,0.04000489
2405.22279419,0.03979858
2407.15160156,0.03975208
2409.08040894,0.03974834
2411.00921631,0.03988188
2412.93802368,0.03967698
2414.86683105,0.03962375
2416.79563843,0.03969631
2418.72444580,0.03952175
2420.65325317,0.03956056
2422.58206055,0.03949298
2424.51086792,0.03946244
2426.43967529,0.03946442
2428.36848267,0.03946450
2430.29729004,0.03940000
2432.22609741,0.03933442
2434.15490479,0.03936633
2436.08371216,0.03928419
2438.01251953,0.03934022
2439.94132690,0.03935684
2441.87013428,0.03923795
2443.79894165,0.03916351
2445.72774902,0.03921833
2447.65655640,0.03922297
2449.58536377,0.03913470
2451.51417114,0.03913552
2453.44297852,0.03917023
2455.37178589,0.03906591
2457.30059326,0.03892889
2459.22940063,0.03906399
2461.15820801,0.03900772
2463.08701538,0.03894004
2465.01582275,0.03886470
2466.94463013,0.03878612
2468.87343750,0.03887460
2470.80224487,0.03874100
2472.73105225,0.03886722
2474.65985962,0.03873798
2476.58866699,0.03865829
2478.51747437,0.03874158
2480.44628174,0.03853902
2482.37508911,0.03866099
2484.30389648,0.03854595
2486.23270386,0.03861795
2488.16151123,0.03861731
2490.09031860,0.03841668
2492.01912598,0.03848221
2493.94793335,0.03837624
2495.87674072,0.03849104
2497.80554810,0.03840750
2499.73435547,0.03833933
2501.66316284,0.03833130
2503.59197021,0.03825063
2505.52077759,0.03825439
2507.44958496,0.03813393
2509.37839233,0.03835160
2511.30719971,0.03830786
2513.23600708,0.03822548
2515.16481445,0.03828466
2517.09362183,0.03806622
2519.02242920,0.03806569
2520.95123657,0.03812321
2522.88004395,0.03800754
2524.80885132,0.03787409
2526.73765869,0.03794397
2528.66646606,0.03786670
2530.59527344,0.03776163
2532.52408081,0.03789432
2534.45288818,0.03800529
2536.38169556,0.03793985
2538.31050293,0.03775501
2540.23931030,0.03782727
2542.16811768,0.03765565
2544.09692505,0.03756680
2546.02573242,0.03778777
2547.95453979,0.03770696
2549.88334717,0.03765734
2551.81215454,0.03760341
2553.74096191,0.03758881
2555.66976929,0.03758609
2557.59857666,0.03746048
2559.52738403,0.03738157
2561.45619141,0.03744183
2563.38499878,0.03741302
2565.31380615,0.03729992
2567.24261353,0.03747398
2569.17142090,0.03735089
2571.10022827,0.03717336
2573.02903564,0.03726669
2574.95784302,0.03716748
2576.88665039,0.03721551
2578.81545776,0.03726520
2580.74426514,0.03715028
2582.67307251,0.03712868
2584.60187988,0.03706596
2586.53068726,0.03697601
2588.45949463,0.03694242
2590.38830200,0.03687702
2592.31710937,0.03687881
2594.24591675,0.03687580
2596.17472412,0.03684652
2598.10353149,0.03685693
2600.03233887,0.03680317
2601.96114624,0.03684294
2603.88995361,0.03679618
2605.81876099,0.03668253
2607.74756836,0.03666468
2609.67637573,0.03666898
2611.60518311,0.03668318
2613.53399048,0.03665291
2615.46279785,0.03667834
2617.39160522,0.03649746
2619.32041260,0.03634776
2621.24921997,0.03640337
2623.17802734,0.03642801
2625.10683472,0.03643327
2627.03564209,0.03630821
2628.96444946,0.03635027
2630.89325684,0.03633914
2632.82206421,0.03626068
2634.75087158,0.03639171
2636.67967895,0.03632292
2638.60848633,0.03612885
2640.53729370,0.03610539
2642.46610107,0.03612346
2644.39490845,0.03606488
2646.32371582,0.03607016
2648.25252319,0.03601553
2650.18133057,0.03602447
2652.11013794,0.03609423
2654.03894531,0.03601316
2655.96775269,0.03588229
2657.89656006,0.03572732
2659.82536743,0.03582153
2661.75417480,0.03581115
2663.68298218,0.03564949
2665.61178955,0.03573192
2667.54059692,0.03581807
2669.46940430,0.03570363
2671.39821167,0.03556397
2673.32701904,0.03558099
2675.25582642,0.03544235
2677.18463379,0.03546681
2679.11344116,0.03549960
2681.04224854,0.03537785
2682.97105591,0.03542523
2684.89986328,0.03538408
2686.82867065,0.03541703
2688.75747803,0.03529305
2690.68628540,0.03527301
2692.61509277,0.03529204
2694.54390015,0.03522688
2696.47270752,0.03533233
2698.40151489,0.03514873
2700.33032227,0.03518232
2702.25912964,0.03510495
2704.18793701,0.03498391
2706.11674438,0.03509901
2708.04555176,0.03497485
2709.97435913,0.03497590
2711.90316650,0.03486923
2713.83197388,0.03487969
2715.76078125,0.03486701
2717.68958862,0.03480366
2719.61839600,0.03485437
2721.54720337,0.03463356
2723.47601074,0.03467099
2725.40481812,0.03464627
2727.33362549,0.03457358
2729.26243286,0.03469297
2731.19124023,0.03458752
2733.12004761,0.03449452
2735.04885498,0.03453436
2736.97766235,0.03457410
2738.90646973,0.03443049
2740.83527710,0.03430482
2742.76408447,0.03431984
2744.69289185,0.03430112
2746.62169922,0.03426983
2748.55050659,0.03429574
2750.47931396,0.03425856
2752.40812134,0.03412572
2754.33692871,0.03415787
2756.26573608,0.03411258
2758.19454346,0.03392624
2760.12335083,0.03389606
2762.05215820,0.03394142
2763.98096558,0.03393771
2765.90977295,0.03391205
2767.83858032,0.03386937
2769.76738770,0.03387229
2771.69619507,0.03386190
2773.62500244,0.03372085
2775.55380981,0.03373252
2777.48261719,0.03370050
2779.41142456,0.03357964
2781.34023193,0.03358106
2783.26903931,0.03350431
2785.19784668,0.03345913
2787.12665405,0.03340754
2789.05546143,0.03338236
2790.98426880,0.03334702
2792.91307617,0.03324858
2794.84188354,0.03318042
2796.77069092,0.03312633
2798.69949829,0.03316502
2800.62830566,0.03314818
2802.55711304,0.03309671
2804.48592041,0.03302783
2806.41472778,0.03293888
2808.34353516,0.03284120
2810.27234253,0.03284092
2812.20114990,0.03284511
2814.12995728,0.03269197
2816.05876465,0.03276759
2817.98757202,0.03273433
2819.91637939,0.03255448
2821.84518677,0.03259972
2823.77399414,0.03262234
2825.70280151,0.03253355
2827.63160889,0.03246245
2829.56041626,0.03242688
2831.48922363,0.03233531
2833.41803101,0.03233355
2835.34683838,0.03218977
2837.27564575,0.03217953
2839.20445312,0.03227390
2841.13326050,0.03201241
2843.06206787,0.03193492
2844.99087524,0.03181817
2846.91968262,0.03171576
2848.84848999,0.03168926
2850.77729736,0.03150056
2852.70610474,0.03146923
2854.63491211,0.03146586
2856.56371948,0.03142666
2858.49252686,0.03134383
2860.42133423,0.03138820
2862.35014160,0.03137222
2864.27894897,0.03129044
2866.20775635,0.03131802
2868.13656372,0.03126783
2870.06537109,0.03122390
2871.99417847,0.03104897
2873.92298584,0.03101108
2875.85179321,0.03108544
2877.78060059,0.03115150
2879.70940796,0.03104367
2881.63821533,0.03087110
2883.56702270,0.03110713
2885.49583008,0.03101249
2887.42463745,0.03084869
2889.35344482,0.03088077
2891.28225220,0.03080155
2893.21105957,0.03074023
2895.13986694,0.03056721
2897.06867432,0.03063948
2898.99748169,0.03064940
2900.92628906,0.03049373
2902.85509644,0.03041970
2904.78390381,0.03031205
2906.71271118,0.03033410
2908.64151855,0.03029037
2910.57032593,0.03016489
2912.49913330,0.03002315
2914.42794067,0.02985239
2916.35674805,0.02973147
2918.28555542,0.02970846
2920.21436279,0.02971439
2922.14317017,0.02960841
2924.07197754,0.02963155
2926.00078491,0.02967919
2927.92959229,0.02948628
2929.85839966,0.02953748
2931.78720703,0.02967961
2933.71601440,0.02948892
2935.64482178,0.02953521
2937.57362915,0.02959066
2939.50243652,0.02951018
2941.43124390,0.02957405
2943.36005127,0.02953820
2945.28885864,0.02951346
2947.21766602,0.02941729
2949.14647339,0.02942007
2951.07528076,0.02941184
2953.00408813,0.02937980
2954.93289551,0.02942364
2956.86170288,0.02919643
2958.79051025,0.02915007
2960.71931763,0.02912386
2962.64812500,0.02901737
2964.57693237,0.02889184
2966.50573975,0.02881927
2968.43454712,0.02903078
2970.36335449,0.02901973
2972.29216187,0.02903777
2974.22096924,0.02902924
2976.14977661,0.02899778
2978.07858398,0.02908829
2980.00739136,0.02896244
2981.93619873,0.02900908
2983.86500610,0.02906125
2985.79381348,0.02895700
2987.72262085,0.02901647
2989.65142822,0.02904711
2991.58023560,0.02887040
2993.50904297,0.02887464
2995.43785034,0.02895539
2997.36665771,0.02884186
2999.29546509,0.02885222
3001.22427246,0.02879192
3003.15307983,0.02871667
3005.08188721,0.02866512
3007.01069458,0.02859313
3008.93950195,0.02865708
3010.86830933,0.02858708
3012.79711670,0.02848472
3014.72592407,0.02845927
3016.65473145,0.02842261
3018.58353882,0.02839090
3020.51234619,0.02835972
3022.44115356,0.02830660
3024.36996094,0.02835208
3026.29876831,0.02828598
3028.22757568,0.02808368
3030.15638306,0.02814056
3032.08519043,0.02808189
3034.01399780,0.02794704
3035.94280518,0.02789866
3037.87161255,0.02782143
3039.80041992,0.02782253
3041.72922729,0.02785105
3043.65803467,0.02785991
3045.58684204,0.02774235
3047.51564941,0.02765448
3049.44445679,0.02759682
3051.37326416,0.02773355
3053.30207153,0.02769575
3055.23087891,0.02742597
3057.15968628,0.02754616
3059.08849365,0.02746307
3061.01730103,0.02741691
3062.94610840,0.02739795
3064.87491577,0.02725426
3066.80372314,0.02730290
3068.73253052,0.02714564
3070.66133789,0.02720589
3072.59014526,0.02719260
3074.51895264,0.02708581
3076.44776001,0.02719976
3078.37656738,0.02706698
3080.30537476,0.02699144
3082.23418213,0.02695734
3084.16298950,0.02687106
3086.09179687,0.02686798
3088.02060425,0.02691678
3089.94941162,0.02689000
3091.87821899,0.02681593
3093.80702637,0.02677777
3095.73583374,0.02662751
3097.66464111,0.02661661
3099.59344849,0.02660086
3101.52225586,0.02645285
3103.45106323,0.02644039
3105.37987061,0.02645785
3107.30867798,0.02640244
3109.23748535,0.02633056
3111.16629272,0.02628324
3113.09510010,0.02621299
3115.02390747,0.02624581
3116.95271484,0.02614625
3118.88152222,0.02590588
3120.81032959,0.02599090
3122.73913696,0.02594965
3124.66794434,0.02585175
3126.59675171,0.02594773
3128.52555908,0.02580776
3130.45436645,0.02581479
3132.38317383,0.02578431
3134.31198120,0.02561635
3136.24078857,0.02564003
3138.16959595,0.02550809
3140.09840332,0.02557575
3142.02721069,0.02555455
3143.95601807,0.02535994
3145.88482544,0.02539164
3147.81363281,0.02523598
3149.74244019,0.02518883
3151.67124756,0.02510963
3153.60005493,0.02506864
3155.52886230,0.02518195
3157.45766968,0.02497900
3159.38647705,0.02482123
3161.31528442,0.02478182
3163.24409180,0.02481044
3165.17289917,0.02477113
3167.10170654,0.02469762
3169.03051392,0.02471958
3170.95932129,0.02460617
3172.88812866,0.02455873
3174.81693604,0.02453524
3176.74574341,0.02438647
3178.67455078,0.02425194
3180.60335815,0.02425691
3182.53216553,0.02418921
3184.46097290,0.02409359
3186.38978027,0.02419951
3188.31858765,0.02420656
3190.24739502,0.02414945
3192.17620239,0.02400361
3194.10500977,0.02380643
3196.03381714,0.02390565
3197.96262451,0.02396746
3199.89143188,0.02378672
3201.82023926,0.02376044
3203.74904663,0.02377525
3205.67785400,0.02374134
3207.60666138,0.02370999
3209.53546875,0.02354172
3211.46427612,0.02357259
3213.39308350,0.02355248
3215.32189087,0.02340659
3217.25069824,0.02346356
3219.17950562,0.02351069
3221.10831299,0.02349446
3223.03712036,0.02338823
3224.96592773,0.02337521
3226.89473511,0.02331807
3228.82354248,0.02327727
3230.75234985,0.02331596
3232.68115723,0.02320227
3234.60996460,0.02327677
3236.53877197,0.02329437
3238.46757935,0.02311144
3240.39638672,0.02309459
3242.32519409,0.02319458
3244.25400146,0.02309639
3246.18280884,0.02302860
3248.11161621,0.02306124
3250.04042358,0.02298558
3251.96923096,0.02296509
3253.89803833,0.02281995
3255.82684570,0.02289240
3257.75565308,0.02292442
3259.68446045,0.02277757
3261.61326782,0.02285649
3263.54207520,0.02279024
3265.47088257,0.02281920
3267.39968994,0.02287753
3269.32849731,0.02282203
3271.25730469,0.02270377
3273.18611206,0.02273180
3275.11491943,0.02270870
3277.04372681,0.02259922
3278.97253418,0.02278749
3280.90134155,0.02258823
3282.83014893,0.02263169
3284.75895630,0.02271150
3286.68776367,0.02244815
3288.61657104,0.02256882
3290.54537842,0.02255318
3292.47418579,0.02250380
3294.40299316,0.02243830
3296.33180054,0.02245775
3298.26060791,0.02245504
3300.18941528,0.02242570
3302.11822266,0.02243852
3304.04703003,0.02230850
3305.97583740,0.02249313
3307.90464478,0.02238086
3309.83345215,0.02223857
3311.76225952,0.02226821
3313.69106689,0.02221640
3315.61987427,0.02232791
3317.54868164,0.02229588
3319.47748901,0.02220617
3321.40629639,0.02207620
3323.33510376,0.02214918
3325.26391113,0.02210279
3327.19271851,0.02207969
3329.12152588,0.02213245
3331.05033325,0.02194377
3332.97914062,0.02204094
3334.90794800,0.02197396
3336.83675537,0.02196161
3338.76556274,0.02196927
3340.69437012,0.02183139
3342.62317749,0.02186305
3344.55198486,0.02183047
3346.48079224,0.02184795
3348.40959961,0.02176490
3350.33840698,0.02178656
3352.26721436,0.02177818
3354.19602173,0.02170576
3356.12482910,0.02174815
3358.05363647,0.02165210
3359.98244385,0.02154966
3361.91125122,0.02153049
3363.84005859,0.02153689
3365.76886597,0.02149942
3367.69767334,0.02157873
3369.62648071,0.02149819
3371.55528809,0.02142056
3373.48409546,0.02141663
3375.41290283,0.02137672
3377.34171020,0.02137866
3379.27051758,0.02122406
3381.19932495,0.02133011
3383.12813232,0.02120847
3385.05693970,0.02116245
3386.98574707,0.02126021
3388.91455444,0.02111218
3390.84336182,0.02118680
3392.77216919,0.02102069
3394.70097656,0.02097750
3396.62978394,0.02089755
3398.55859131,0.02091396
3400.48739868,0.02100602
3402.41620605,0.02078952
3404.34501343,0.02089542
3406.27382080,0.02086341
3408.20262817,0.02081517
3410.13143555,0.02072610
3412.06024292,0.02071915
3413.98905029,0.02072081
3415.91785767,0.02060015
3417.84666504,0.02070877
3419.77547241,0.02052145
3421.70427979,0.02054445
3423.63308716,0.02050665
3425.56189453,0.02043678
3427.49070190,0.02056783
3429.41950928,0.02045499
3431.34831665,0.02046466
3433.27712402,0.02044381
3435.20593140,0.02038247
3437.13473877,0.02022080
3439.06354614,0.02032480
3440.99235352,0.02025494
3442.92116089,0.01998327
3444.84996826,0.02017812
3446.77877563,0.02001498
3448.70758301,0.01998388
3450.63639038,0.02014982
3452.56519775,0.02012319
3454.49400513,0.02017751
3456.42281250,0.02007512
3458.35161987,0.02002764
3460.28042725,0.02003491
3462.20923462,0.01991731
3464.13804199,0.01993469
3466.06684937,0.01998344
3467.99565674,0.01987354
3469.92446411,0.01998033
3471.85327148,0.01996027
3473.78207886,0.01982987
3475.71088623,0.01981045
3477.63969360,0.01983978
3479.56850098,0.01991927
3481.49730835,0.01965788
3483.42611572,0.01974557
3485.35492310,0.01979402
3487.28373047,0.01961145
3489.21253784,0.01977095
3491.14134521,0.01981407
3493.07015259,0.01977229
3494.99895996,0.01966181
3496.92776733,0.01973403
3498.85657471,0.01975837
3500.78538208,0.01969939
3502.71418945,0.01940880
3504.64299683,0.01936979
3506.57180420,0.01984028
3508.50061157,0.01947266
3510.42941895,0.01937574
3512.35822632,0.01959555
3514.28703369,0.01956561
3516.21584106,0.01967590
3518.14464844,0.01958847
3520.07345581,0.01967371
3522.00226318,0.01946931
3523.93107056,0.01926199
3525.85987793,0.01929043
3527.78868530,0.01930664
3529.71749268,0.01947212
3531.64630005,0.01959764
3533.57510742,0.01960894
3535.50391479,0.01934265
3537.43272217,0.01944176
3539.36152954,0.01967957
3541.29033691,0.01953837
3543.21914429,0.01943242
3545.14795166,0.01907164
3547.07675903,0.01878536
3549.00556641,0.01941972
3550.93437378,0.01958125
3552.86318115,0.01905739
3554.79198853,0.01942064
3556.72079590,0.01953645
3558.64960327,0.01939397
3560.57841064,0.01931911
3562.50721802,0.01920159
3564.43602539,0.01931238
3566.36483276,0.01819485
3568.29364014,0.01775138
3570.22244751,0.01912834
3572.15125488,0.01954921
3574.08006226,0.01926368
3576.00886963,0.01937982
3577.93767700,0.01929033
3579.86648437,0.01934242
3581.79529175,0.01926931
3583.72409912,0.01931303
3585.65290649,0.01902841
3587.58171387,0.01747556
3589.51052124,0.01806984
3591.43932861,0.01946658
3593.36813599,0.01892772
3595.29694336,0.01873123
3597.22575073,0.01898322
3599.15455811,0.01916352
3601.08336548,0.01904738
3603.01217285,0.01922793
3604.94098022,0.01943463
3606.86978760,0.01887151
3608.79859497,0.01780128
3610.72740234,0.01816162
3612.65620972,0.01869303
3614.58501709,0.01792835
3616.51382446,0.01926215
3618.44263184,0.01793840
3620.37143921,0.01726763
3622.30024658,0.01948377
3624.22905395,0.01892281
3626.15786133,0.01990325
3628.08666870,0.01695087
3630.01547607,0.01540821
3631.94428345,0.01925009
3633.87309082,0.01870352
3635.80189819,0.01906904
3637.73070557,0.01944917
3639.65951294,0.01911422
3641.58832031,0.01924527
3643.51712769,0.01899299
3645.44593506,0.01923670
3647.37474243,0.01739647
3649.30354980,0.01608015
3651.23235718,0.01621250
3653.16116455,0.01907087
3655.08997192,0.01887533
3657.01877930,0.01697741
3658.94758667,0.01942702
3660.87639404,0.01898229
3662.80520142,0.01923688
3664.73400879,0.01923848
3666.66281616,0.01903256
3668.59162354,0.01855965
3670.52043091,0.01531517
3672.44923828,0.01830967
3674.37804565,0.01757776
3676.30685303,0.01474901
3678.23566040,0.01825499
3680.16446777,0.01856766
3682.09327515,0.01857791
3684.02208252,0.01913122
3685.95088989,0.01877674
3687.87969727,0.01703740
3689.80850464,0.01569334
3691.73731201,0.01774989
3693.66611938,0.01828567
3695.59492676,0.01875115
3697.52373413,0.01872286
3699.45254150,0.01856684
3701.38134888,0.01822222
3703.31015625,0.01740262
3705.23896362,0.01905455
3707.16777100,0.01821626
3709.09657837,0.01771349
3711.02538574,0.01683516
3712.95419312,0.01579263
3714.88300049,0.01837117
3716.81180786,0.01816872
3718.74061523,0.01825336
3720.66942261,0.01790201
3722.59822998,0.01734087
3724.52703735,0.01795048
3726.45584473,0.01662923
3728.38465210,0.01794285
3730.31345947,0.01788962
3732.24226685,0.01654182
3734.17107422,0.01598011
3736.09988159,0.01527495
3738.02868896,0.01619876
3739.95749634,0.01737293
3741.88630371,0.01826536
3743.81511108,0.01440389
3745.74391846,0.01358019
3747.67272583,0.01732166
3749.60153320,0.01506991
3751.53034058,0.01399934
3753.45914795,0.01590628
3755.38795532,0.01716289
3757.31676270,0.01772705
3759.24557007,0.01646231
3761.17437744,0.01710503
3763.10318481,0.01808292
3765.03199219,0.01687740
3766.96079956,0.01716065
3768.88960693,0.01709453
3770.81841431,0.01633962
3772.74722168,0.01765961
3774.67602905,0.01763365
3776.60483643,0.01753487
3778.53364380,0.01714091
3780.46245117,0.01640280
3782.39125854,0.01759453
3784.32006592,0.01721255
3786.24887329,0.01702483
3788.17768066,0.01744130
3790.10648804,0.01728367
3792.03529541,0.01719515
3793.96410278,0.01739515
3795.89291016,0.01652418
3797.82171753,0.01635005
3799.75052490,0.01708499
3801.67933228,0.01379825
3803.60813965,0.01588391
3805.53694702,0.01726153
3807.46575439,0.01426699
3809.39456177,0.01700243
3811.32336914,0.01672604
3813.25217651,0.01720098
3815.18098389,0.01574168
3817.10979126,0.01397446
3819.03859863,0.01730886
3820.96740601,0.01424758
3822.89621338,0.01492637
3824.82502075,0.01721528
3826.75382812,0.01569174
3828.68263550,0.01684050
3830.61144287,0.01611750
3832.54025024,0.01557705
3834.46905762,0.01600362
3836.39786499,0.01524912
3838.32667236,0.01383314
3840.25547974,0.01493580
3842.18428711,0.01600882
3844.11309448,0.01525001
3846.04190186,0.01644463
3847.97070923,0.01627192
3849.89951660,0.01630747
3851.82832397,0.01482102
3853.75713135,0.01132353
3855.68593872,0.01314455
3857.61474609,0.01632338
3859.54355347,0.01593306
3861.47236084,0.01573774
3863.40116821,0.01543346
3865.32997559,0.01435658
3867.25878296,0.01595204
3869.18759033,0.01472107
3871.11639770,0.01366014
3873.04520508,0.01600490
3874.97401245,0.01480430
3876.90281982,0.01582784
3878.83162720,0.01614098
3880.76043457,0.01406706
3882.68924194,0.01597007
3884.61804932,0.01498858
3886.54685669,0.01378309
3888.47566406,0.01596473
3890.40447144,0.01525242
3892.33327881,0.01428530
3894.26208618,0.01558766
3896.19089355,0.01595777
3898.11970093,0.01519759
3900.04850830,0.01436582
3901.97731567,0.01422139
3903.90612305,0.01410920
3905.83493042,0.01430223
3907.76373779,0.01557477
3909.69254517,0.01554885
3911.62135254,0.01540423
3913.55015991,0.01573532
3915.47896728,0.01509265
3917.40777466,0.01466225
3919.33658203,0.01472917
3921.26538940,0.01516539
3923.19419678,0.01512414
3925.12300415,0.01484608
3927.05181152,0.01504256
3928.98061890,0.01532188
3930.90942627,0.01495098
3932.83823364,0.01444326
3934.76704102,0.01501853
3936.69584839,0.01508476
3938.62465576,0.01501990
3940.55346313,0.01514846
3942.48227051,0.01461683
3944.41107788,0.01476548
3946.33988525,0.01499430
3948.26869263,0.01468643
3950.19750000,0.01475916
3952.12630737,0.01490727
3954.05511475,0.01479394
3955.98392212,0.01484642
3957.91272949,0.01488192
3959.84153687,0.01484788
3961.77034424,0.01467036
3963.69915161,0.01462979
3965.62795898,0.01475869
3967.55676636,0.01459740
3969.48557373,0.01469747
3971.41438110,0.01457371
3973.34318848,0.01452430
3975.27199585,0.01451518
3977.20080322,0.01434745
3979.12961060,0.01461399
3981.05841797,0.01450273
3982.98722534,0.01453726
3984.91603271,0.01456495
3986.84484009,0.01446603
3988.77364746,0.01438399
3990.70245483,0.01425097
3992.63126221,0.01446744
3994.56006958,0.01430508
3996.48887695,0.01429315
3998.41768433,0.01430845
4000.34649170,0.01429642
4002.27529907,0.01431714
4004.20410645,0.01416469
4006.13291382,0.01423532
4008.06172119,0.01406824
4009.99052856,0.01416863
4011.91933594,0.01414493
4013.84814331,0.01401215
4015.77695068,0.01409761
4017.70575806,0.01400082
4019.63456543,0.01404492
4021.56337280,0.01398748
4023.49218018,0.01398559
4025.42098755,0.01393189
4027.34979492,0.01387759
4029.27860229,0.01382695
4031.20740967,0.01384953
4033.13621704,0.01391649
4035.06502441,0.01373672
4036.99383179,0.01382829
4038.92263916,0.01377891
4040.85144653,0.01375619
4042.78025391,0.01378293
4044.70906128,0.01367458
4046.63786865,0.01369510
4048.56667603,0.01359225
4050.49548340,0.01358964
4052.42429077,0.01356923
4054.35309814,0.01359651
4056.28190552,0.01361153
4058.21071289,0.01354445
4060.13952026,0.01350255
4062.06832764,0.01344371
4063.99713501,0.01340845
4065.92594238,0.01337573
4067.85474976,0.01340465
4069.78355713,0.01328606
4071.71236450,0.01328598
4073.64117187,0.01325282
4075.56997925,0.01321144
4077.49878662,0.01321679
4079.42759399,0.01319586
4081.35640137,0.01333235
4083.28520874,0.01317173
4085.21401611,0.01319939
4087.14282349,0.01320744
4089.07163086,0.01308041
4091.00043823,0.01306834
4092.92924561,0.01296809
4094.85805298,0.01303329
4096.78686035,0.01296670
4098.71566772,0.01301257
4100.64447510,0.01294349
4102.57328247,0.01287544
4104.50208984,0.01296440
4106.43089722,0.01287823
4108.35970459,0.01282248
4110.28851196,0.01266768
4112.21731934,0.01281422
4114.14612671,0.01281324
4116.07493408,0.01272719
4118.00374145,0.01277166
4119.93254883,0.01262499
4121.86135620,0.01269304
4123.79016357,0.01267163
4125.71897095,0.01265834
4127.64777832,0.01258973
4129.57658569,0.01251827
4131.50539307,0.01253615
4133.43420044,0.01251594
4135.36300781,0.01256023
4137.29181519,0.01245242
4139.22062256,0.01250725
4141.14942993,0.01249547
4143.07823730,0.01235265
4145.00704468,0.01232805
4146.93585205,0.01229506
4148.86465942,0.01227806
4150.79346680,0.01230553
4152.72227417,0.01227913
4154.65108154,0.01219956
4156.57988892,0.01226315
4158.50869629,0.01213432
4160.43750366,0.01215507
4162.36631103,0.01224745
4164.29511841,0.01207097
4166.22392578,0.01202700
4168.15273315,0.01206046
4170.08154053,0.01213683
4172.01034790,0.01201046
4173.93915527,0.01202107
4175.86796265,0.01203764
4177.79677002,0.01195076
4179.72557739,0.01198347
4181.65438477,0.01187667
4183.58319214,0.01198303
4185.51199951,0.01189214
4187.44080688,0.01178776
4189.36961426,0.01182259
4191.29842163,0.01178540
4193.22722900,0.01185141
4195.15603638,0.01173819
4197.08484375,0.01176369
4199.01365112,0.01173713
4200.94245850,0.01166557
4202.87126587,0.01165955
4204.80007324,0.01161546
4206.72888062,0.01163122
4208.65768799,0.01159068
4210.58649536,0.01161683
4212.51530273,0.01150246
4214.44411011,0.01144033
4216.37291748,0.01142839
4218.30172485,0.01144664
4220.23053223,0.01153009
4222.15933960,0.01143920
4224.08814697,0.01139659
4226.01695435,0.01132327
4227.94576172,0.01132180
4229.87456909,0.01130513
4231.80337646,0.01129318
4233.73218384,0.01137763
4235.66099121,0.01131940
4237.58979858,0.01121257
4239.51860596,0.01115139
4241.44741333,0.01120523
4243.37622070,0.01119440
4245.30502808,0.01118444
4247.23383545,0.01115759
4249.16264282,0.01110726
4251.09145020,0.01107617
4253.02025757,0.01101907
4254.94906494,0.01112341
4256.87787231,0.01111863
4258.80667969,0.01108285
4260.73548706,0.01103904
4262.66429443,0.01098355
4264.59310181,0.01101574
4266.52190918,0.01094570
4268.45071655,0.01091589
4270.37952393,0.01082271
4272.30833130,0.01075169
4274.23713867,0.01084273
4276.16594604,0.01081158
4278.09475342,0.01073284
4280.02356079,0.01083092
4281.95236816,0.01079588
4283.88117554,0.01074341
4285.80998291,0.01078359
4287.73879028,0.01063898
4289.66759766,0.01062183
4291.59640503,0.01058610
4293.52521240,0.01064957
4295.45401978,0.01071710
4297.38282715,0.01058174
4299.31163452,0.01058582
4301.24044189,0.01051236
4303.16924927,0.01051333
4305.09805664,0.01046852
4307.02686401,0.01048352
4308.95567139,0.01048093
4310.88447876,0.01032859
4312.81328613,0.01040236
4314.74209351,0.01038327
4316.67090088,0.01042748
4318.59970825,0.01033125
4320.52851562,0.01028486
4322.45732300,0.01036104
4324.38613037,0.01019446
4326.31493774,0.01024913
4328.24374512,0.01021627
4330.17255249,0.01022482
4332.10135986,0.01024536
4334.03016724,0.01008401
4335.95897461,0.01009833
4337.88778198,0.01016105
4339.81658936,0.01012817
4341.74539673,0.01001712
4343.67420410,0.01003429
4345.60301147,0.00996573
4347.53181885,0.01002784
4349.46062622,0.01015301
4351.38943359,0.00998211
4353.31824097,0.00993504
4355.24704834,0.00988630
4357.17585571,0.00985072
4359.10466309,0.00984084
4361.03347046,0.00983149
4362.96227783,0.00986676
4364.89108520,0.00984612
4366.81989258,0.00987906
4368.74869995,0.00977077
4370.67750732,0.00972760
4372.60631470,0.00979340
4374.53512207,0.00969790
4376.46392944,0.00971726
4378.39273682,0.00973269
4380.32154419,0.00962768
4382.25035156,0.00963784
4384.17915894,0.00956378
4386.10796631,0.00954702
4388.03677368,0.00962401
4389.96558105,0.00955842
4391.89438843,0.00959685
4393.82319580,0.00956322
4395.75200317,0.00948169
4397.68081055,0.00945524
4399.60961792,0.00946304
4401.53842529,0.00950523
4403.46723267,0.00943750
4405.39604004,0.00944242
4407.32484741,0.00933869
4409.25365478,0.00935250
4411.18246216,0.00940110
4413.11126953,0.00929729
4415.04007690,0.00936967
4416.96888428,0.00932436
4418.89769165,0.00929635
4420.82649902,0.00921804
4422.75530640,0.00917972
4424.68411377,0.00924806
4426.61292114,0.00912311
4428.54172852,0.00911444
4430.47053589,0.00915816
4432.39934326,0.00916423
4434.32815063,0.00909706
4436.25695801,0.00907910
4438.18576538,0.00906219
4440.11457275,0.00900764
4442.04338013,0.00908608
4443.97218750,0.00905839
4445.90099487,0.00900960
4447.82980225,0.00890440
4449.75860962,0.00894985
4451.68741699,0.00900871
4453.61622437,0.00888857
4455.54503174,0.00895271
4457.47383911,0.00884579
4459.40264648,0.00876295
4461.33145386,0.00884060
4463.26026123,0.00882109
4465.18906860,0.00881892
4467.11787598,0.00876762
4469.04668335,0.00876523
4470.97549072,0.00878845
4472.90429810,0.00878404
4474.83310547,0.00874613
4476.76191284,0.00866152
4478.69072021,0.00862348
4480.61952759,0.00859775
4482.54833496,0.00865509
4484.47714233,0.00866807
4486.40594971,0.00852462
4488.33475708,0.00852733
4490.26356445,0.00854854
4492.19237183,0.00848628
4494.12117920,0.00845928
4496.04998657,0.00841538
4497.97879395,0.00851382
4499.90760132,0.00848431
4501.83640869,0.00837215
4503.76521606,0.00838688
4505.69402344,0.00835332
4507.62283081,0.00838560
4509.55163818,0.00833108
4511.48044556,0.00831153
4513.40925293,0.00831650
4515.33806030,0.00826755
4517.26686768,0.00828614
4519.19567505,0.00826078
4521.12448242,0.00828862
4523.05328979,0.00822815
4524.98209717,0.00820282
4526.91090454,0.00819899
4528.83971191,0.00815269
4530.76851929,0.00818871
4532.69732666,0.00814943
4534.62613403,0.00810156
4536.55494141,0.00803901
4538.48374878,0.00809207
4540.41255615,0.00812306
4542.34136353,0.00808007
4544.27017090,0.00806406
4546.19897827,0.00803073
4548.12778564,0.00805917
4550.05659302,0.00798140
4551.98540039,0.00796901
4553.91420776,0.00796084
4555.84301514,0.00795092
4557.77182251,0.00796257
4559.70062988,0.00791252
4561.62943726,0.00790707
4563.55824463,0.00783138
4565.48705200,0.00788508
4567.41585937,0.00785936
4569.34466675,0.00782229
4571.27347412,0.00780860
4573.20228149,0.00775439
4575.13108887,0.00783100
4577.05989624,0.00766188
4578.98870361,0.00763207
4580.91751099,0.00767692
4582.84631836,0.00765265
4584.77512573,0.00768308
4586.70393311,0.00758716
4588.63274048,0.00760998
4590.56154785,0.00759491
4592.49035522,0.00762937
4594.41916260,0.00760056
4596.34796997,0.00755763
4598.27677734,0.00758282
4600.20558472,0.00748390
4602.13439209,0.00755894
4604.06319946,0.00749615
4605.99200684,0.00746859
4607.92081421,0.00754271
4609.84962158,0.00745645
4611.77842895,0.00746405
4613.70723633,0.00744096
4615.63604370,0.00739898
4617.56485107,0.00735034
4619.49365845,0.00741385
4621.42246582,0.00742997
4623.35127319,0.00724252
4625.28008057,0.00726483
4627.20888794,0.00732676
4629.13769531,0.00729775
4631.06650269,0.00728730
4632.99531006,0.00723435
4634.92411743,0.00722016
4636.85292480,0.00718740
4638.78173218,0.00719504
4640.71053955,0.00725795
4642.63934692,0.00717010
4644.56815430,0.00716812
4646.49696167,0.00717677
4648.42576904,0.00708952
4650.35457642,0.00718236
4652.28338379,0.00714233
4654.21219116,0.00706435
4656.14099853,0.00708410
4658.06980591,0.00700319
4659.99861328,0.00705426
4661.92742065,0.00707110
4663.85622803,0.00698578
4665.78503540,0.00701769
4667.71384277,0.00700662
4669.64265015,0.00693774
4671.57145752,0.00695999
4673.50026489,0.00690784
4675.42907227,0.00683323
4677.35787964,0.00691105
4679.28668701,0.00690248
4681.21549438,0.00684442
4683.14430176,0.00684413
4685.07310913,0.00684952
4687.00191650,0.00685059
4688.93072388,0.00681658
4690.85953125,0.00686010
4692.78833862,0.00682462
4694.71714600,0.00668130
4696.64595337,0.00673425
4698.57476074,0.00679160
4700.50356812,0.00671580
4702.43237549,0.00670274
4704.36118286,0.00666161
4706.28999023,0.00664457
4708.21879761,0.00669503
4710.14760498,0.00665593
4712.07641235,0.00660286
4714.00521973,0.00659758
4715.93402710,0.00664145
4717.86283447,0.00658442
4719.79164185,0.00647014
4721.72044922,0.00655160
4723.64925659,0.00660354
4725.57806396,0.00652727
4727.50687134,0.00653782
4729.43567871,0.00649213
4731.36448608,0.00641888
4733.29329346,0.00649916
4735.22210083,0.00651071
4737.15090820,0.00645612
4739.07971558,0.00639847
4741.00852295,0.00643584
4742.93733032,0.00643751
4744.86613770,0.00629115
4746.79494507,0.00640149
4748.72375244,0.00637719
4750.65255981,0.00627952
4752.58136719,0.00635656
4754.51017456,0.00632886
4756.43898193,0.00634138
4758.36778931,0.00622047
4760.29659668,0.00625466
4762.22540405,0.00635047
4764.15421143,0.00624463
4766.08301880,0.00621333
4768.01182617,0.00616320
4769.94063354,0.00615565
4771.86944092,0.00612123
4773.79824829,0.00620346
4775.72705566,0.00622145
4777.65586304,0.00618374
4779.58467041,0.00624158
4781.51347778,0.00608503
4783.44228516,0.00605371
4785.37109253,0.00600145
4787.29989990,0.00600655
4789.22870728,0.00607573
4791.15751465,0.00596993
4793.08632202,0.00601124
4795.01512939,0.00597053
4796.94393677,0.00595585
4798.87274414,0.00599925
4800.80155151,0.00598759
4802.73035889,0.00599790
4804.65916626,0.00592040
4806.58797363,0.00587682
4808.51678101,0.00588492
4810.44558838,0.00588336
4812.37439575,0.00586099
4814.30320312,0.00590861
4816.23201050,0.00588449
4818.16081787,0.00581971
4820.08962524,0.00583772
4822.01843262,0.00581737
4823.94723999,0.00582859
4825.87604736,0.00582514
4827.80485474,0.00580904
4829.73366211,0.00574600
4831.66246948,0.00577266
4833.59127686,0.00576709
4835.52008423,0.00565624
4837.44889160,0.00571195
4839.37769897,0.00567078
4841.30650635,0.00566408
4843.23531372,0.00567618
4845.16412109,0.00565861
4847.09292847,0.00566632
4849.02173584,0.00552800
4850.95054321,0.00561312
4852.87935059,0.00570145
4854.80815796,0.00561197
4856.73696533,0.00556255
4858.66577270,0.00550516
4860.59458008,0.00549625
4862.52338745,0.00548185
4864.45219482,0.00549374
4866.38100220,0.00551129
4868.30980957,0.00548396
4870.23861694,0.00545791
4872.16742432,0.00547597
4874.09623169,0.00549119
4876.02503906,0.00544203
4877.95384644,0.00543770
4879.88265381,0.00541518
4881.81146118,0.00538429
4883.74026855,0.00537958
4885.66907593,0.00532855
4887.59788330,0.00532874
4889.52669067,0.00537758
4891.45549805,0.00535822
4893.38430542,0.00527224
4895.31311279,0.00527802
4897.24192017,0.00530339
4899.17072754,0.00523167
4901.09953491,0.00529358
4903.02834228,0.00531267
4904.95714966,0.00519837
4906.88595703,0.00523878
4908.81476440,0.00528954
4910.74357178,0.00528234
4912.67237915,0.00518641
4914.60118652,0.00516767
4916.52999390,0.00520960
4918.45880127,0.00509267
4920.38760864,0.00518232
4922.31641602,0.00516119
4924.24522339,0.00505077
4926.17403076,0.00516558
4928.10283813,0.00514801
4930.03164551,0.00511081
4931.96045288,0.00500659
4933.88926025,0.00500841
4935.81806763,0.00510215
4937.74687500,0.00505315
4939.67568237,0.00503178
4941.60448975,0.00492684
4943.53329712,0.00497876
4945.46210449,0.00506483
4947.39091187,0.00497391
4949.31971924,0.00497422
4951.24852661,0.00496030
4953.17733398,0.00491072
4955.10614136,0.00494367
4957.03494873,0.00493508
4958.96375610,0.00488056
4960.89256348,0.00494748
4962.82137085,0.00489295
4964.75017822,0.00485881
4966.67898560,0.00492961
4968.60779297,0.00477414
4970.53660034,0.00474487
4972.46540771,0.00483109
4974.39421509,0.00483728
4976.32302246,0.00478291
4978.25182983,0.00471115
4980.18063721,0.00478762
4982.10944458,0.00480583
4984.03825195,0.00474910
4985.96705933,0.00472052
4987.89586670,0.00470322
4989.82467407,0.00471390
4991.75348145,0.00471869
4993.68228882,0.00467679
4995.61109619,0.00465149
4997.53990356,0.00468655
4999.46871094,0.00466810
5001.39751831,0.00468051
5003.32632568,0.00468741
5005.25513306,0.00461004
5007.18394043,0.00453494
5009.11274780,0.00455477
5011.04155518,0.00463199
5012.97036255,0.00462678
5014.89916992,0.00464475
5016.82797729,0.00456418
5018.75678467,0.00448814
5020.68559204,0.00454708
5022.61439941,0.00451812
5024.54320679,0.00452738
5026.47201416,0.00447660
5028.40082153,0.00444698
5030.32962891,0.00448846
5032.25843628,0.00436765
5034.18724365,0.00438549
5036.11605103,0.00445947
5038.04485840,0.00440958
5039.97366577,0.00443970
5041.90247314,0.00444397
5043.83128052,0.00433984
5045.76008789,0.00430230
5047.68889526,0.00440514
5049.61770264,0.00442527
5051.54651001,0.00434875
5053.47531738,0.00436542
5055.40412476,0.00434223
5057.33293213,0.00427939
5059.26173950,0.00435707
5061.19054687,0.00438331
5063.11935425,0.00423275
5065.04816162,0.00422646
5066.97696899,0.00431151
5068.90577637,0.00431496
5070.83458374,0.00435859
5072.76339111,0.00426406
5074.69219849,0.00420238
5076.62100586,0.00427535
5078.54981323,0.00423764
5080.47862061,0.00421630
5082.40742798,0.00416343
5084.33623535,0.00415631
5086.26504272,0.00418262
5088.19385010,0.00416552
5090.12265747,0.00418334
5092.05146484,0.00409330
5093.98027222,0.00411585
5095.90907959,0.00412871
5097.83788696,0.00405008
5099.76669434,0.00411402
5101.69550171,0.00409647
5103.62430908,0.00410740
5105.55311645,0.00409278
5107.48192383,0.00401185
5109.41073120,0.00407428
5111.33953857,0.00403594
5113.26834595,0.00400408
5115.19715332,0.00403576
5117.12596069,0.00397200
5119.05476807,0.00396131
5120.98357544,0.00396809
5122.91238281,0.00400175
5124.84119019,0.00396928
5126.76999756,0.00390010
5128.69880493,0.00397654
5130.62761230,0.00396637
5132.55641968,0.00395806
5134.48522705,0.00393545
5136.41403442,0.00388326
5138.34284180,0.00394488
5140.27164917,0.00390418
5142.20045654,0.00389848
5144.12926392,0.00384664
5146.05807129,0.00380937
5147.98687866,0.00387719
5149.91568603,0.00379530
5151.84449341,0.00384785
5153.77330078,0.00385566
5155.70210815,0.00373301
5157.63091553,0.00375382
5159.55972290,0.00377733
5161.48853027,0.00380551
5163.41733765,0.00377001
5165.34614502,0.00372164
5167.27495239,0.00378391
5169.20375977,0.00371603
5171.13256714,0.00363883
5173.06137451,0.00378230
5174.99018188,0.00374471
5176.91898926,0.00365058
5178.84779663,0.00366730
5180.77660400,0.00363609
5182.70541138,0.00375336
5184.63421875,0.00364668
5186.56302612,0.00360533
5188.49183350,0.00374137
5190.42064087,0.00357952
5192.34944824,0.00365866
5194.27825562,0.00370780
5196.20706299,0.00356822
5198.13587036,0.00360697
5200.06467773,0.00360904
5201.99348511,0.00360540
5203.92229248,0.00356831
5205.85109985,0.00353351
5207.77990723,0.00354330
5209.70871460,0.00350651
5211.63752197,0.00349463
5213.56632935,0.00357700
5215.49513672,0.00358475
5217.42394409,0.00347038
5219.35275146,0.00342700
5221.28155884,0.00347276
5223.21036621,0.00356196
5225.13917358,0.00344652
5227.06798096,0.00339733
5228.99678833,0.00356085
5230.92559570,0.00349644
5232.85440308,0.00343104
5234.78321045,0.00344630
5236.71201782,0.00350771
5238.64082520,0.00350682
5240.56963257,0.00338425
5242.49843994,0.00337343
5244.42724731,0.00334243
5246.35605469,0.00340467
5248.28486206,0.00333458
5250.21366943,0.00326808
5252.14247681,0.00343165
5254.07128418,0.00328742
5256.00009155,0.00327547
5257.92889893,0.00333941
5259.85770630,0.00330279
5261.78651367,0.00339934
5263.71532104,0.00324364
5265.64412842,0.00324449
5267.57293579,0.00333407
5269.50174316,0.00332038
5271.43055054,0.00335658
5273.35935791,0.00325049
5275.28816528,0.00329803
5277.21697266,0.00329536
5279.14578003,0.00324601
5281.07458740,0.00327667
5283.00339478,0.00323940
5284.93220215,0.00325186
5286.86100952,0.00323516
5288.78981689,0.00329378
5290.71862427,0.00320638
5292.64743164,0.00310353
5294.57623901,0.00319416
5296.50504639,0.00323191
5298.43385376,0.00321577
5300.36266113,0.00309773
5302.29146851,0.00312851
5304.22027588,0.00314847
5306.14908325,0.00310011
5308.07789062,0.00312736
5310.00669800,0.00313885
5311.93550537,0.00322659
5313.86431274,0.00317570
5315.79312012,0.00315005
5317.72192749,0.00312820
5319.65073486,0.00309078
5321.57954224,0.00313984
5323.50834961,0.00303590
5325.43715698,0.00301458
5327.36596436,0.00304207
5329.29477173,0.00304996
5331.22357910,0.00309714
5333.15238647,0.00306417
5335.08119385,0.00298881
5337.01000122,0.00294118
5338.93880859,0.00285911
5340.86761597,0.00290180
5342.79642334,0.00304720
5344.72523071,0.00286207
5346.65403809,0.00285864
5348.58284546,0.00300652
5350.51165283,0.00295973
5352.44046020,0.00297799
5354.36926758,0.00287631
5356.29807495,0.00292092
5358.22688232,0.00299821
5360.15568970,0.00298405
5362.08449707,0.00296263
5364.01330444,0.00292679
5365.94211182,0.00299678
5367.87091919,0.00286847
5369.79972656,0.00289737
5371.72853394,0.00295630
5373.65734131,0.00285775
5375.58614868,0.00283813
5377.51495605,0.00275077
5379.44376343,0.00287816
5381.37257080,0.00291000
5383.30137817,0.00280846
5385.23018555,0.00280998
5387.15899292,0.00275316
5389.08780029,0.00283336
5391.01660767,0.00284631
5392.94541504,0.00273616
5394.87422241,0.00269632
5396.80302978,0.00273869
5398.73183716,0.00284605
5400.66064453,0.00282991
5402.58945190,0.00278257
5404.51825928,0.00280894
5406.44706665,0.00272117
5408.37587402,0.00260901
5410.30468140,0.00263733
5412.23348877,0.00270436
5414.16229614,0.00268332
5416.09110352,0.00267464
5418.01991089,0.00276147
5419.94871826,0.00272204
5421.87752563,0.00269349
5423.80633301,0.00272388
5425.73514038,0.00267835
5427.66394775,0.00261701
5429.59275513,0.00247643
5431.52156250,0.00258116
5433.45036987,0.00269441
5435.37917725,0.00258154
5437.30798462,0.00262855
5439.23679199,0.00259457
5441.16559936,0.00251890
5443.09440674,0.00257876
5445.02321411,0.00259845
5446.95202148,0.00257810
5448.88082886,0.00257072
5450.80963623,0.00258130
5452.73844360,0.00261326
5454.66725098,0.00258050
5456.59605835,0.00251292
5458.52486572,0.00252670
5460.45367310,0.00250654
5462.38248047,0.00257753
5464.31128784,0.00257463
5466.24009521,0.00250677
5468.16890259,0.00256318
5470.09770996,0.00249449
5472.02651733,0.00256819
5473.95532471,0.00255795
5475.88413208,0.00241110
5477.81293945,0.00245154
5479.74174683,0.00244347
5481.67055420,0.00244203
5483.59936157,0.00243684
5485.52816895,0.00244498
5487.45697632,0.00236996
5489.38578369,0.00237549
5491.31459106,0.00251669
5493.24339844,0.00242633
5495.17220581,0.00241362
5497.10101318,0.00248132
5499.02982056,0.00245865
5500.95862793,0.00242014
5502.88743530,0.00239305
5504.81624268,0.00238932
5506.74505005,0.00240733
5508.67385742,0.00244022
5510.60266479,0.00238097
5512.53147217,0.00242345
5514.46027954,0.00244528
5516.38908691,0.00236255
5518.31789429,0.00233619
5520.24670166,0.00232549
5522.17550903,0.00236228
5524.10431641,0.00232451
5526.03312378,0.00234736
5527.96193115,0.00236260
5529.89073853,0.00228201
5531.81954590,0.00232317
5533.74835327,0.00234588
5535.67716064,0.00232820
5537.60596802,0.00229940
5539.53477539,0.00228490
5541.46358276,0.00229672
5543.39239014,0.00227991
5545.32119751,0.00224993
5547.25000488,0.00223588
5549.17881226,0.00227862
5551.10761963,0.00226520
5553.03642700,0.00225851
5554.96523437,0.00232335
5556.89404175,0.00231404
5558.82284912,0.00222954
5560.75165649,0.00223410
5562.68046387,0.00228855
5564.60927124,0.00217581
5566.53807861,0.00215666
5568.46688599,0.00224856
5570.39569336,0.00213553
5572.32450073,0.00212078
5574.25330811,0.00221340
5576.18211548,0.00218607
5578.11092285,0.00219615
5580.03973022,0.00213409
5581.96853760,0.00208874
5583.89734497,0.00217881
5585.82615234,0.00218558
5587.75495972,0.00219752
5589.68376709,0.00217951
5591.61257446,0.00213138
5593.54138184,0.00217550
5595.47018921,0.00218100
5597.39899658,0.00216685
5599.32780395,0.00220035
5601.25661133,0.00219540
5603.18541870,0.00212756
5605.11422607,0.00216270
5607.04303345,0.00212601
5608.97184082,0.00201326
5610.90064819,0.00208494
5612.82945557,0.00206994
5614.75826294,0.00207325
5616.68707031,0.00213204
5618.61587769,0.00211718
5620.54468506,0.00215165
5622.47349243,0.00205416
5624.40229980,0.00200056
5626.33110718,0.00203003
5628.25991455,0.00201912
5630.18872192,0.00205457
5632.11752930,0.00202685
5634.04633667,0.00201828
5635.97514404,0.00203534
5637.90395142,0.00202205
5639.83275879,0.00201476
5641.76156616,0.00201257
5643.69037353,0.00199841
5645.61918091,0.00197705
5647.54798828,0.00199152
5649.47679565,0.00199873
5651.40560303,0.00198806
5653.33441040,0.00193010
5655.26321777,0.00196501
5657.19202515,0.00197784
5659.12083252,0.00192218
5661.04963989,0.00204281
5662.97844727,0.00202587
5664.90725464,0.00195911
5666.83606201,0.00194849
5668.76486938,0.00191757
5670.69367676,0.00194837
5672.62248413,0.00186408
5674.55129150,0.00189298
5676.48009888,0.00191843
5678.40890625,0.00190889
5680.33771362,0.00197784
5682.26652100,0.00192195
5684.19532837,0.00191748
5686.12413574,0.00188128
5688.05294311,0.00191118
5689.98175049,0.00196097
5691.91055786,0.00188923
5693.83936523,0.00182373
5695.76817261,0.00180399
5697.69697998,0.00194020
5699.62578735,0.00180976
5701.55459473,0.00172553
5703.48340210,0.00191801
5705.41220947,0.00184987
5707.34101685,0.00180599
5709.26982422,0.00181824
5711.19863159,0.00176672
5713.12743896,0.00176007
5715.05624634,0.00181180
5716.98505371,0.00185727
5718.91386108,0.00183006
5720.84266846,0.00181275
5722.77147583,0.00178718
5724.70028320,0.00182487
5726.62909058,0.00176932
5728.55789795,0.00172612
5730.48670532,0.00182627
5732.41551270,0.00178495
5734.34432007,0.00175860
5736.27312744,0.00177549
5738.20193481,0.00173928
5740.13074219,0.00171304
5742.05954956,0.00168452
5743.98835693,0.00172585
5745.91716431,0.00179820
5747.84597168,0.00174841
5749.77477905,0.00169522
5751.70358643,0.00172559
5753.63239380,0.00167579
5755.56120117,0.00165676
5757.49000854,0.00168080
5759.41881592,0.00166399
5761.34762329,0.00167798
5763.27643066,0.00170655
5765.20523804,0.00171637
5767.13404541,0.00171000
5769.06285278,0.00170730
5770.99166016,0.00163226
5772.92046753,0.00165504
5774.84927490,0.00170447
5776.77808228,0.00163134
5778.70688965,0.00165710
5780.63569702,0.00163589
5782.56450439,0.00159838
5784.49331177,0.00159558
5786.42211914,0.00156774
5788.35092651,0.00163359
5790.27973389,0.00167799
5792.20854126,0.00168757
5794.13734863,0.00163416
5796.06615601,0.00158263
5797.99496338,0.00166274
5799.92377075,0.00162924
5801.85257812,0.00156250
5803.78138550,0.00163966
5805.71019287,0.00159740
5807.63900024,0.00155576
5809.56780762,0.00160270
5811.49661499,0.00156047
5813.42542236,0.00153339
5815.35422974,0.00154165
5817.28303711,0.00158619
5819.21184448,0.00154181
5821.14065186,0.00148645
5823.06945923,0.00150484
5824.99826660,0.00149321
5826.92707397,0.00154482
5828.85588135,0.00149667
5830.78468872,0.00150174
5832.71349609,0.00153277
5834.64230347,0.00146136
5836.57111084,0.00148712
5838.49991821,0.00148081
5840.42872559,0.00149408
5842.35753296,0.00148140
5844.28634033,0.00150349
5846.21514770,0.00154000
5848.14395508,0.00147888
5850.07276245,0.00147509
5852.00156982,0.00146947
5853.93037720,0.00147547
5855.85918457,0.00143011
5857.78799194,0.00147979
5859.71679932,0.00152086
5861.64560669,0.00146171
5863.57441406,0.00151973
5865.50322144,0.00143183
5867.43202881,0.00137561
5869.36083618,0.00142532
5871.28964355,0.00141071
5873.21845093,0.00145324
5875.14725830,0.00148337
5877.07606567,0.00146111
5879.00487305,0.00142735
5880.93368042,0.00140272
5882.86248779,0.00142214
5884.79129517,0.00147410
5886.72010254,0.00143565
5888.64890991,0.00143393
5890.57771728,0.00141546
5892.50652466,0.00135637
5894.43533203,0.00139822
5896.36413940,0.00138828
5898.29294678,0.00139628
5900.22175415,0.00132096
5902.15056152,0.00132460
5904.07936890,0.00139274
5906.00817627,0.00135401
5907.93698364,0.00141597
5909.86579102,0.00135836
5911.79459839,0.00138206
5913.72340576,0.00135155
5915.65221313,0.00125165
5917.58102051,0.00140830
5919.50982788,0.00138407
5921.43863525,0.00132349
5923.36744263,0.00132968
5925.29625000,0.00133051
5927.22505737,0.00135921
5929.15386475,0.00131385
5931.08267212,0.00132640
5933.01147949,0.00130789
5934.94028686,0.00129254
5936.86909424,0.00131193
5938.79790161,0.00128487
5940.72670898,0.00127072
5942.65551636,0.00129827
5944.58432373,0.00132466
5946.51313110,0.00125995
5948.44193848,0.00126137
5950.37074585,0.00130964
5952.29955322,0.00125297
5954.22836060,0.00125765
5956.15716797,0.00126807
5958.08597534,0.00127957
5960.01478271,0.00133197
5961.94359009,0.00125648
5963.87239746,0.00130075
5965.80120483,0.00130508
5967.73001221,0.00117004
5969.65881958,0.00122089
5971.58762695,0.00118917
5973.51643433,0.00121251
5975.44524170,0.00124775
5977.37404907,0.00113169
5979.30285645,0.00117351
5981.23166382,0.00122682
5983.16047119,0.00122844
5985.08927856,0.00118364
5987.01808594,0.00120237
5988.94689331,0.00121095
5990.87570068,0.00110523
5992.80450806,0.00113988
5994.73331543,0.00118142
5996.66212280,0.00118224
5998.59093018,0.00117191
6000.51973755,0.00117254
