399.26312622,0.00022513
401.19193359,0.00074248
403.12074097,0.00012636
405.04954834,0.00015776
406.97835571,0.00037581
408.90716309,-0.00013549
410.83597046,-0.00009103
412.76477783,-0.00007663
414.69358521,0.00019844
416.62239258,0.00023616
418.55119995,0.00048950
420.48000732,0.00037997
422.40881470,0.00015238
424.33762207,0.00049220
426.26642944,0.00023864
428.19523682,0.00014896
430.12404419,0.00017765
432.05285156,0.00035474
433.98165894,0.00050349
435.91046631,0.00059554
437.83927368,0.00064279
439.76808105,0.00046548
441.69688843,0.00034984
443.62569580,0.00005809
445.55450317,0.00041198
447.48331055,0.00032056
449.41211792,0.00006984
451.34092529,0.00057892
453.26973267,0.00043284
455.19854004,0.00036968
457.12734741,0.00020021
459.05615479,-0.00025003
460.98496216,-0.00000182
462.91376953,0.00037631
464.84257690,0.00013432
466.77138428,0.00015726
468.70019165,0.00037840
470.62899902,0.00011261
472.55780640,0.00041124
474.48661377,0.00046259
476.41542114,-0.00012925
478.34422852,0.00006819
480.27303589,0.00025314
482.20184326,0.00015444
484.13065063,0.00026237
486.05945801,-0.00015189
487.98826538,-0.00006137
489.91707275,0.00001704
491.84588013,-0.00020549
493.77468750,-0.00000340
495.70349487,-0.00006595
497.63230225,0.00032206
499.56110962,0.00030028
501.48991699,0.00014087
503.41872437,0.00036508
505.34753174,-0.00002057
507.27633911,0.00007439
509.20514648,0.00024930
511.13395386,-0.00002715
513.06276123,0.00003307
514.99156860,-0.00010731
516.92037598,-0.00000974
518.84918335,0.00050457
520.77799072,0.00026394
522.70679810,0.00016553
524.63560547,0.00032101
526.56441284,0.00048158
528.49322021,0.00046019
530.42202759,-0.00002664
532.35083496,-0.00001529
534.27964233,0.00005884
536.20844971,0.00030877
538.13725708,0.00039289
540.06606445,0.00023698
541.99487183,0.00030719
543.92367920,-0.00013639
545.85248657,-0.00029093
547.78129395,0.00022389
549.71010132,0.00023641
551.63890869,0.00010641
553.56771606,0.00026034
555.49652344,0.00009946
557.42533081,0.00004392
559.35413818,0.00020735
561.28294556,0.00016498
563.21175293,-0.00005495
565.14056030,0.00013225
567.06936768,0.00035447
568.99817505,0.00019368
570.92698242,0.00013171
572.85578979,-0.00025692
574.78459717,-0.00026155
576.71340454,0.00007397
578.64221191,0.00021572
580.57101929,0.00031222
582.49982666,0.00019376
584.42863403,0.00020381
586.35744141,0.00010306
588.28624878,0.00010391
590.21505615,0.00028796
592.14386353,0.00041901
594.07267090,0.00028483
596.00147827,0.00006130
597.93028564,0.00003017
599.85909302,-0.00013842
601.78790039,0.00017211
603.71670776,0.00023188
605.64551514,-0.00016544
607.57432251,0.00010465
609.50312988,0.00013385
611.43193726,0.00010518
613.36074463,0.00038664
615.28955200,0.00014192
617.21835938,-0.00016124
619.14716675,-0.00010494
621.07597412,-0.00015002
623.00478149,0.00005264
624.93358887,0.00008324
626.86239624,-0.00011781
628.79120361,0.00016228
630.72001099,0.00012798
632.64881836,-0.00011975
634.57762573,-0.00016852
636.50643311,0.00022781
638.43524048,0.00079614
640.36404785,0.00091916
642.29285522,0.00049071
644.22166260,0.00026165
646.15046997,0.00063743
648.07927734,0.00058535
650.00808472,0.00042281
651.93689209,0.00067084
653.86569946,0.00040268
655.79450684,0.00025157
657.72331421,0.00079295
659.65212158,0.00051088
661.58092896,0.00045368
663.50973633,0.00092099
665.43854370,0.00047043
667.36735107,0.00039754
669.29615845,0.00067814
671.22496582,0.00079703
673.15377319,0.00076674
675.08258057,0.00086520
677.01138794,0.00112535
678.94019531,0.00079919
680.86900269,0.00055059
682.79781006,0.00063418
684.72661743,0.00111096
686.65542480,0.00104429
688.58423218,0.00070322
690.51303955,0.00086666
692.44184692,0.00075083
694.37065430,0.00127998
696.29946167,0.00165304
698.22826904,0.00140135
700.15707642,0.00144547
702.08588379,0.00149992
704.01469116,0.00124138
705.94349854,0.00097526
707.87230591,0.00118421
709.80111328,0.00076636
711.72992065,0.00037334
713.65872803,0.00041835
715.58753540,0.00012742
717.51634277,0.00014483
719.44515015,0.00030398
721.37395752,0.00010217
723.30276489,-0.00026041
725.23157227,-0.00000753
727.16037964,-0.00002635
729.08918701,-0.00006869
731.01799438,0.00033929
732.94680176,0.00029808
734.87560913,0.00005135
736.80441650,-0.00008597
738.73322388,0.00013304
740.66203125,0.00023604
742.59083862,0.00013416
744.51964600,0.00023033
746.44845337,0.00005334
748.37726074,0.00018543
750.30606812,0.00031973
752.23487549,0.00002440
754.16368286,-0.00000707
756.09249023,0.00002881
758.02129761,0.00004049
759.95010498,0.00002733
761.87891235,0.00018889
763.80771973,0.00015015
765.73652710,0.00024930
767.66533447,0.00019257
769.59414185,0.00019266
771.52294922,0.00051574
773.45175659,0.00018173
775.38056396,0.00037328
777.30937134,0.00025454
779.23817871,0.00000577
781.16698608,0.00007352
783.09579346,0.00012372
785.02460083,0.00049609
786.95340820,0.00019284
788.88221558,0.00019904
790.81102295,0.00019460
792.73983032,0.00033272
794.66863770,0.00064741
796.59744507,0.00019111
798.52625244,0.00019771
800.45505981,0.00009120
802.38386719,0.00017021
804.31267456,0.00014919
806.24148193,0.00002212
808.17028931,0.00039905
810.09909668,0.00016747
812.02790405,0.00027893
813.95671143,0.00031912
815.88551880,0.00000239
817.81432617,0.00013017
819.74313354,0.00032460
821.67194092,0.00025857
823.60074829,-0.00004522
825.52955566,0.00017582
827.45836304,0.00037793
829.38717041,0.00022379
831.31597778,0.00022455
833.24478516,0.00028725
835.17359253,0.00024210
837.10239990,0.00025486
839.03120728,0.00038319
840.96001465,0.00045454
842.88882202,0.00026159
844.81762939,0.00001437
846.74643677,0.00051769
848.67524414,0.00054501
850.60405151,0.00009273
852.53285889,0.00020453
854.46166626,0.00015457
856.39047363,0.00025458
858.31928101,0.00008406
860.24808838,0.00020596
862.17689575,0.00036359
864.10570313,0.00003857
866.03451050,0.00051442
867.96331787,0.00033155
869.89212524,0.00007909
871.82093262,0.00018751
873.74973999,0.00004520
875.67854736,0.00036578
877.60735474,0.00030260
879.53616211,0.00028759
881.46496948,0.00024785
883.39377686,0.00031449
885.32258423,0.00063733
887.25139160,0.00027318
889.18019897,0.00010369
891.10900635,0.00018580
893.03781372,0.00040727
894.96662109,0.00052835
896.89542847,0.00005367
898.82423584,0.00024474
900.75304321,0.00028652
902.68185059,-0.00002813
904.61065796,0.00048283
906.53946533,0.00029809
908.46827271,0.00011814
910.39708008,0.00036732
912.32588745,0.00018749
914.25469482,0.00033545
916.18350220,0.00032710
918.11230957,0.00043280
920.04111694,0.00034822
921.96992432,0.00028027
923.89873169,0.00048368
925.82753906,0.00030529
927.75634644,0.00045243
929.68515381,0.00026588
931.61396118,0.00056426
933.54276855,0.00079646
935.47157593,0.00029599
937.40038330,0.00071498
939.32919067,0.00062792
941.25799805,0.00040798
943.18680542,0.00072487
945.11561279,0.00072383
947.04442017,0.00071380
948.97322754,0.00072308
950.90203491,0.00071907
952.83084229,0.00057457
954.75964966,0.00072444
956.68845703,0.00067590
958.61726440,0.00048820
960.54607178,0.00067801
962.47487915,0.00067496
964.40368652,0.00084362
966.33249390,0.00078628
968.26130127,0.00062688
970.19010864,0.00085518
972.11891602,0.00065693
974.04772339,0.00066646
975.97653076,0.00093205
977.90533813,0.00078853
979.83414551,0.00099588
981.76295288,0.00101393
983.69176025,0.00103361
985.62056763,0.00146930
987.54937500,0.00129047
989.47818237,0.00146259
991.40698975,0.00164806
993.33579712,0.00167337
995.26460449,0.00228176
997.19341187,0.00210978
999.12221924,0.00194300
1001.05102661,0.00241931
1002.97983398,0.00270548
1004.90864136,0.00272222
1006.83744873,0.00273310
1008.76625610,0.00314894
1010.69506348,0.00325747
1012.62387085,0.00328694
1014.55267822,0.00362783
1016.48148560,0.00366356
1018.41029297,0.00372748
1020.33910034,0.00394607
1022.26790771,0.00405337
1024.19671509,0.00430253
1026.12552246,0.00457242
1028.05432983,0.00458579
1029.98313721,0.00473796
1031.91194458,0.00491321
1033.84075195,0.00496281
1035.76955933,0.00504807
1037.69836670,0.00518893
1039.62717407,0.00518621
1041.55598145,0.00503237
1043.48478882,0.00527406
1045.41359619,0.00510841
1047.34240356,0.00487992
1049.27121094,0.00501388
1051.20001831,0.00474530
1053.12882568,0.00478400
1055.05763306,0.00460988
1056.98644043,0.00440667
1058.91524780,0.00438613
1060.84405518,0.00418351
1062.77286255,0.00424783
1064.70166992,0.00390477
1066.63047729,0.00395572
1068.55928467,0.00392725
1070.48809204,0.00344963
1072.41689941,0.00364982
1074.34570679,0.00340872
1076.27451416,0.00303914
1078.20332153,0.00304508
1080.13212891,0.00290864
1082.06093628,0.00272389
1083.98974365,0.00269038
1085.91855103,0.00268022
1087.84735840,0.00244115
1089.77616577,0.00248692
1091.70497314,0.00243955
1093.63378052,0.00233016
1095.56258789,0.00239497
1097.49139526,0.00217987
1099.42020264,0.00193480
1101.34901001,0.00187041
1103.27781738,0.00193318
1105.20662476,0.00169790
1107.13543213,0.00190511
1109.06423950,0.00210621
1110.99304687,0.00164267
1112.92185425,0.00194437
1114.85066162,0.00197906
1116.77946899,0.00174557
1118.70827637,0.00186348
1120.63708374,0.00167265
1122.56589111,0.00181464
1124.49469849,0.00180416
1126.42350586,0.00195221
1128.35231323,0.00206911
1130.28112061,0.00183462
1132.20992798,0.00210563
1134.13873535,0.00201402
1136.06754272,0.00207325
1137.99635010,0.00234001
1139.92515747,0.00230385
1141.85396484,0.00261485
1143.78277222,0.00276593
1145.71157959,0.00288163
1147.64038696,0.00318989
1149.56919434,0.00338806
1151.49800171,0.00350334
1153.42680908,0.00361282
1155.35561646,0.00367327
1157.28442383,0.00381394
1159.21323120,0.00394764
1161.14203857,0.00386690
1163.07084595,0.00418957
1164.99965332,0.00441033
1166.92846069,0.00441619
1168.85726807,0.00472708
1170.78607544,0.00484901
1172.71488281,0.00504843
1174.64369019,0.00530786
1176.57249756,0.00556403
1178.50130493,0.00578547
1180.43011230,0.00588215
1182.35891968,0.00617130
1184.28772705,0.00634952
1186.21653442,0.00662376
1188.14534180,0.00707343
1190.07414917,0.00738910
1192.00295654,0.00763024
1193.93176392,0.00792707
1195.86057129,0.00841739
1197.78937866,0.00875357
1199.71818604,0.00899855
1201.64699341,0.00938542
1203.57580078,0.00988409
1205.50460815,0.01040110
1207.43341553,0.01061220
1209.36222290,0.01096281
1211.29103027,0.01138160
1213.21983765,0.01149456
1215.14864502,0.01191925
1217.07745239,0.01236649
1219.00625977,0.01249607
1220.93506714,0.01256006
1222.86387451,0.01269251
1224.79268188,0.01287353
1226.72148926,0.01294699
1228.65029663,0.01320948
1230.57910400,0.01323045
1232.50791138,0.01311232
1234.43671875,0.01317281
1236.36552612,0.01318788
1238.29433350,0.01336012
1240.22314087,0.01317254
1242.15194824,0.01320692
1244.08075562,0.01327235
1246.00956299,0.01301537
1247.93837036,0.01317470
1249.86717773,0.01291861
1251.79598511,0.01276308
1253.72479248,0.01285235
1255.65359985,0.01272863
1257.58240723,0.01266871
1259.51121460,0.01236666
1261.44002197,0.01206040
1263.36882935,0.01180000
1265.29763672,0.01169600
1267.22644409,0.01164208
1269.15525146,0.01164890
1271.08405884,0.01141105
1273.01286621,0.01115424
1274.94167358,0.01114008
1276.87048096,0.01062419
1278.79928833,0.01059211
1280.72809570,0.01053084
1282.65690308,0.01023127
1284.58571045,0.01009646
1286.51451782,0.00961441
1288.44332520,0.00977167
1290.37213257,0.00978824
1292.30093994,0.00949342
1294.22974731,0.00942191
1296.15855469,0.00949644
1298.08736206,0.00966688
1300.01616943,0.00949098
1301.94497681,0.00946914
1303.87378418,0.00942313
1305.80259155,0.00970177
1307.73139893,0.00992143
1309.66020630,0.00988134
1311.58901367,0.01025043
1313.51782104,0.01032434
1315.44662842,0.01066134
1317.37543579,0.01103541
1319.30424316,0.01104612
1321.23305054,0.01142109
1323.16185791,0.01194432
1325.09066528,0.01226021
1327.01947266,0.01263781
1328.94828003,0.01295443
1330.87708740,0.01298833
1332.80589478,0.01346663
1334.73470215,0.01369746
1336.66350952,0.01378180
1338.59231689,0.01394759
1340.52112427,0.01395148
1342.44993164,0.01463968
1344.37873901,0.01468709
1346.30754639,0.01460094
1348.23635376,0.01479512
1350.16516113,0.01444137
1352.09396851,0.01451169
1354.02277588,0.01436268
1355.95158325,0.01415970
1357.88039062,0.01412192
1359.80919800,0.01385285
1361.73800537,0.01343413
1363.66681274,0.01329365
1365.59562012,0.01382443
1367.52442749,0.01353072
1369.45323486,0.01343608
1371.38204224,0.01362272
1373.31084961,0.01292164
1375.23965698,0.01300040
1377.16846436,0.01329452
1379.09727173,0.01339103
1381.02607910,0.01334087
1382.95488647,0.01325006
1384.88369385,0.01335694
1386.81250122,0.01266533
1388.74130859,0.01299311
1390.67011597,0.01411023
1392.59892334,0.01356705
1394.52773071,0.01288208
1396.45653809,0.01346056
1398.38534546,0.01339871
1400.31415283,0.01332051
1402.24296021,0.01427292
1404.17176758,0.01383875
1406.10057495,0.01397000
1408.02938232,0.01445970
1409.95818970,0.01382534
1411.88699707,0.01394032
1413.81580444,0.01359345
1415.74461182,0.01381265
1417.67341919,0.01271781
1419.60222656,0.01130505
1421.53103394,0.01274150
1423.45984131,0.01249167
1425.38864868,0.01223359
1427.31745605,0.01259097
1429.24626343,0.01148452
1431.17507080,0.01109519
1433.10387817,0.01124875
1435.03268555,0.01026605
1436.96149292,0.00895059
1438.89030029,0.01009049
1440.81910767,0.01025571
1442.74791504,0.00947855
1444.67672241,0.01010422
1446.60552979,0.00928973
1448.53433716,0.00933921
1450.46314453,0.00975225
1452.39195190,0.00988988
1454.32075928,0.01017070
1456.24956665,0.00845007
1458.17837402,0.00918347
1460.10718140,0.01190525
1462.03598877,0.01248376
1463.96479614,0.01260777
1465.89360352,0.01284495
1467.82241089,0.01459801
1469.75121826,0.01588304
1471.68002563,0.01441753
1473.60883301,0.01515663
1475.53764038,0.01696119
1477.46644775,0.01822913
1479.39525513,0.01993725
1481.32406250,0.02026595
1483.25286987,0.02150148
1485.18167725,0.02216688
1487.11048462,0.02183234
1489.03929199,0.02166362
1490.96809937,0.02190470
1492.89690674,0.02536725
1494.82571411,0.02489530
1496.75452148,0.02257435
1498.68332886,0.02526138
1500.61213623,0.02609402
1502.54094360,0.02795100
1504.46975098,0.02629836
1506.39855835,0.01960121
1508.32736572,0.02400954
1510.25617310,0.02782648
1512.18498047,0.02681090
1514.11378784,0.02890633
1516.04259521,0.02628508
1517.97140259,0.02739778
1519.90020996,0.02643543
1521.82901733,0.02318083
1523.75782471,0.02803475
1525.68663208,0.02744325
1527.61543945,0.02752526
1529.54424683,0.03049306
1531.47305420,0.02913735
1533.40186157,0.02682827
1535.33066895,0.02870758
1537.25947632,0.03030694
1539.18828369,0.02216639
1541.11709106,0.02342734
1543.04589844,0.02747040
1544.97470581,0.02659531
1546.90351318,0.03116620
1548.83232056,0.02904295
1550.76112793,0.03019942
1552.68993530,0.02991382
1554.61874268,0.02725053
1556.54755005,0.02898006
1558.47635742,0.02086239
1560.40516479,0.02283017
1562.33397217,0.03159846
1564.26277954,0.02979698
1566.19158691,0.03059768
1568.12039429,0.03014677
1570.04920166,0.02700702
1571.97800903,0.03108768
1573.90681641,0.03140578
1575.83562378,0.02509079
1577.76443115,0.02847092
1579.69323853,0.03240554
1581.62204590,0.03081115
1583.55085327,0.03140954
1585.47966064,0.03099228
1587.40846802,0.03111859
1589.33727539,0.03104886
1591.26608276,0.03097329
1593.19489014,0.03101367
1595.12369751,0.03068423
1597.05250488,0.03118400
1598.98131226,0.03128541
1600.91011963,0.03120260
1602.83892700,0.03053163
1604.76773437,0.03120245
1606.69654175,0.03088625
1608.62534912,0.03080421
1610.55415649,0.03063619
1612.48296387,0.03098180
1614.41177124,0.03142710
1616.34057861,0.02597509
1618.26938599,0.02816305
1620.19819336,0.03247002
1622.12700073,0.02883220
1624.05580811,0.02898638
1625.98461548,0.03053373
1627.91342285,0.03031790
1629.84223022,0.03029039
1631.77103760,0.03227566
1633.69984497,0.02970433
1635.62865234,0.02511100
1637.55745972,0.02900005
1639.48626709,0.03139257
1641.41507446,0.03060639
1643.34388184,0.03149144
1645.27268921,0.02846395
1647.20149658,0.02530780
1649.13030396,0.03131378
1651.05911133,0.02949341
1652.98791870,0.01959042
1654.91672607,0.02631806
1656.84553345,0.03252888
1658.77434082,0.03121170
1660.70314819,0.03191958
1662.63195557,0.02921942
1664.56076294,0.03081037
1666.48957031,0.03288634
1668.41837769,0.02889789
1670.34718506,0.02816787
1672.27599243,0.03182774
1674.20479980,0.02953118
1676.13360718,0.02842613
1678.06241455,0.03244928
1679.99122192,0.03139521
1681.92002930,0.03104980
1683.84883667,0.02544695
1685.77764404,0.02554965
1687.70645142,0.03419909
1689.63525879,0.02973193
1691.56406616,0.03277022
1693.49287354,0.03305399
1695.42168091,0.02466485
1697.35048828,0.03030275
1699.27929565,0.02662045
1701.20810303,0.02434249
1703.13691040,0.03243717
1705.06571777,0.02969825
1706.99452515,0.03029661
1708.92333252,0.03278243
1710.85213989,0.03145438
1712.78094727,0.03207855
1714.70975464,0.02981844
1716.63856201,0.02686061
1718.56736938,0.02652401
1720.49617676,0.03128596
1722.42498413,0.03235517
1724.35379150,0.03023136
1726.28259888,0.03279985
1728.21140625,0.03008683
1730.14021362,0.03051264
1732.06902100,0.02988644
1733.99782837,0.02306936
1735.92663574,0.02855720
1737.85544312,0.03125878
1739.78425049,0.02804748
1741.71305786,0.03038064
1743.64186523,0.03068208
1745.57067261,0.03097096
1747.49947998,0.03106341
1749.42828735,0.02966766
1751.35709473,0.02856014
1753.28590210,0.03170099
1755.21470947,0.03307820
1757.14351685,0.03020409
1759.07232422,0.03311625
1761.00113159,0.03113232
1762.92993896,0.03023402
1764.85874634,0.03431273
1766.78755371,0.03108333
1768.71636108,0.03150551
1770.64516846,0.03108779
1772.57397583,0.02819207
1774.50278320,0.03142449
1776.43159058,0.03307609
1778.36039795,0.03258308
1780.28920532,0.03225588
1782.21801270,0.03254686
1784.14682007,0.03248160
1786.07562744,0.03213368
1788.00443481,0.03365027
1789.93324219,0.03260560
1791.86204956,0.02982358
1793.79085693,0.03112372
1795.71966431,0.03308139
1797.64847168,0.03278223
1799.57727905,0.03231439
1801.50608643,0.03167714
1803.43489380,0.03280984
1805.36370117,0.03338141
1807.29250854,0.03308162
1809.22131592,0.03322982
1811.15012329,0.03230892
1813.07893066,0.03350138
1815.00773804,0.03353620
1816.93654541,0.03311381
1818.86535278,0.03341968
1820.79416016,0.03344078
1822.72296753,0.03378626
1824.65177490,0.03157727
1826.58058228,0.03304459
1828.50938965,0.03292587
1830.43819702,0.03099160
1832.36700439,0.03368719
1834.29581177,0.03341984
1836.22461914,0.03351965
1838.15342651,0.03336609
1840.08223389,0.03367851
1842.01104126,0.03350362
1843.93984863,0.02998716
1845.86865601,0.03217943
1847.79746338,0.03356816
1849.72627075,0.03294241
1851.65507812,0.03385821
1853.58388550,0.03312149
1855.51269287,0.03352534
1857.44150024,0.03330908
1859.37030762,0.03324249
1861.29911499,0.03336566
1863.22792236,0.03307677
1865.15672974,0.03353981
1867.08553711,0.03227445
1869.01434448,0.03121477
1870.94315186,0.03247908
1872.87195923,0.03344456
1874.80076660,0.03298116
1876.72957397,0.03313212
1878.65838135,0.03308059
1880.58718872,0.03302637
1882.51599609,0.03319459
1884.44480347,0.03269589
1886.37361084,0.03325046
1888.30241821,0.03250919
1890.23122559,0.03193855
1892.16003296,0.03311360
1894.08884033,0.03268746
1896.01764771,0.03257553
1897.94645508,0.03300011
1899.87526245,0.03290342
1901.80406982,0.03278999
1903.73287720,0.03257009
1905.66168457,0.03285417
1907.59049194,0.03264173
1909.51929932,0.03240804
1911.44810669,0.03256897
1913.37691406,0.03283539
1915.30572144,0.03295285
1917.23452881,0.03151008
1919.16333618,0.03174414
1921.09214355,0.03275037
1923.02095093,0.03178025
1924.94975830,0.03242941
1926.87856567,0.03270594
1928.80737305,0.03234524
1930.73618042,0.03274782
1932.66498779,0.03236562
1934.59379517,0.03267970
1936.52260254,0.03256353
1938.45140991,0.03270267
1940.38021729,0.03270480
1942.30902466,0.03167877
1944.23783203,0.03212625
1946.16663940,0.03242566
1948.09544678,0.03240171
1950.02425415,0.03248781
1951.95306152,0.03245881
1953.88186890,0.03257900
1955.81067627,0.03241185
1957.73948364,0.03265795
1959.66829102,0.03263119
1961.59709839,0.03254113
1963.52590576,0.03262023
1965.45471313,0.03232504
1967.38352051,0.03206182
1969.31232788,0.03214289
1971.24113525,0.03243645
1973.16994263,0.03250813
1975.09875000,0.03249527
1977.02755737,0.03238349
1978.95636475,0.03260336
1980.88517212,0.03245680
1982.81397949,0.03221627
1984.74278687,0.03251265
1986.67159424,0.03214414
1988.60040161,0.03216881
1990.52920898,0.03207579
1992.45801636,0.03173181
1994.38682373,0.03213634
1996.31563110,0.03213108
1998.24443848,0.03212374
2000.17324585,0.03213636
2002.10205322,0.03209050
2004.03086060,0.03217791
2005.95966797,0.03198163
2007.88847534,0.03194983
2009.81728271,0.03196637
2011.74609009,0.03185521
2013.67489746,0.03183468
2015.60370483,0.03165149
2017.53251221,0.03139473
2019.46131958,0.03155517
2021.39012695,0.03162159
2023.31893433,0.03153020
2025.24774170,0.03156168
2027.17654907,0.03149112
2029.10535645,0.03160213
2031.03416382,0.03142511
2032.96297119,0.03129628
2034.89177856,0.03144502
2036.82058594,0.03128213
2038.74939331,0.03131899
2040.67820068,0.03116338
2042.60700806,0.03104504
2044.53581543,0.03116499
2046.46462280,0.03092889
2048.39343018,0.03093601
2050.32223755,0.03091463
2052.25104492,0.03080938
2054.17985229,0.03079539
2056.10865967,0.03071545
2058.03746704,0.03080866
2059.96627441,0.03073721
2061.89508179,0.03082135
2063.82388916,0.03074608
2065.75269653,0.03048821
2067.68150391,0.03063278
2069.61031128,0.03054063
2071.53911865,0.03057454
2073.46792603,0.03051613
2075.39673340,0.03033013
2077.32554077,0.03039889
2079.25434814,0.03026420
2081.18315552,0.03040319
2083.11196289,0.03030447
2085.04077026,0.03015858
2086.96957764,0.03031308
2088.89838501,0.03002674
2090.82719238,0.03001389
2092.75599976,0.03012699
2094.68480713,0.02997593
2096.61361450,0.03004249
2098.54242187,0.03011302
2100.47122925,0.02993764
2102.40003662,0.02977389
2104.32884399,0.02976615
2106.25765137,0.02983638
2108.18645874,0.02990598
2110.11526611,0.02983641
2112.04407349,0.02975118
2113.97288086,0.02967572
2115.90168823,0.02977094
2117.83049561,0.02979765
2119.75930298,0.02968987
2121.68811035,0.02979067
2123.61691772,0.02965687
2125.54572510,0.02959200
2127.47453247,0.02960469
2129.40333984,0.02957980
2131.33214722,0.02959367
2133.26095459,0.02938477
2135.18976196,0.02945479
2137.11856934,0.02940092
2139.04737671,0.02930147
2140.97618408,0.02944351
2142.90499146,0.02932293
2144.83379883,0.02934779
2146.76260620,0.02937411
2148.69141357,0.02928463
2150.62022095,0.02937843
2152.54902832,0.02928559
2154.47783569,0.02915240
2156.40664307,0.02929099
2158.33545044,0.02928667
2160.26425781,0.02923793
2162.19306519,0.02918213
2164.12187256,0.02908198
2166.05067993,0.02924739
2167.97948730,0.02925380
2169.90829468,0.02918639
2171.83710205,0.02902897
2173.76590942,0.02896861
2175.69471680,0.02914531
2177.62352417,0.02897748
2179.55233154,0.02904810
2181.48113892,0.02909164
2183.40994629,0.02901202
2185.33875366,0.02906949
2187.26756104,0.02893086
2189.19636841,0.02894747
2191.12517578,0.02886203
2193.05398315,0.02891886
2194.98279053,0.02897268
2196.91159790,0.02885938
2198.84040527,0.02897170
2200.76921265,0.02888232
2202.69802002,0.02887573
2204.62682739,0.02877298
2206.55563477,0.02868965
2208.48444214,0.02878873
2210.41324951,0.02859936
2212.34205688,0.02873700
2214.27086426,0.02881163
2216.19967163,0.02859200
2218.12847900,0.02860748
2220.05728638,0.02860074
2221.98609375,0.02871929
2223.91490112,0.02868001
2225.84370850,0.02845689
2227.77251587,0.02860406
2229.70132324,0.02858310
2231.63013062,0.02848089
2233.55893799,0.02862535
2235.48774536,0.02849610
2237.41655273,0.02835957
2239.34536011,0.02843242
2241.27416748,0.02846595
2243.20297485,0.02845556
2245.13178223,0.02832853
2247.06058960,0.02825816
2248.98939697,0.02830903
2250.91820435,0.02819367
2252.84701172,0.02814125
2254.77581909,0.02825498
2256.70462646,0.02819490
2258.63343384,0.02824145
2260.56224121,0.02827144
2262.49104858,0.02811424
2264.41985596,0.02809831
2266.34866333,0.02801848
2268.27747070,0.02804314
2270.20627808,0.02804384
2272.13508545,0.02799764
2274.06389282,0.02821943
2275.99270020,0.02810369
2277.92150757,0.02798850
2279.85031494,0.02809655
2281.77912231,0.02794828
2283.70792969,0.02797138
2285.63673706,0.02793474
2287.56554443,0.02772953
2289.49435181,0.02777103
2291.42315918,0.02773169
2293.35196655,0.02767674
2295.28077393,0.02755437
2297.20958130,0.02739784
2299.13838867,0.02746588
2301.06719604,0.02738470
2302.99600342,0.02733745
2304.92481079,0.02725753
2306.85361816,0.02708055
2308.78242554,0.02688948
2310.71123291,0.02651154
2312.64004028,0.02637679
2314.56884766,0.02615277
2316.49765503,0.02580095
2318.42646240,0.02555689
2320.35526978,0.02527827
2322.28407715,0.02501877
2324.21288452,0.02455997
2326.14169189,0.02435990
2328.07049927,0.02416470
2329.99930664,0.02376893
2331.92811401,0.02371011
2333.85692139,0.02359673
2335.78572876,0.02341556
2337.71453613,0.02343170
2339.64334351,0.02345220
2341.57215088,0.02347980
2343.50095825,0.02386747
2345.42976562,0.02447824
2347.35857300,0.02545461
2349.28738037,0.02607954
2351.21618774,0.02517084
2353.14499512,0.02405902
2355.07380249,0.02315490
2357.00260986,0.02244500
2358.93141724,0.02224186
2360.86022461,0.02191121
2362.78903198,0.02191745
2364.71783936,0.02204483
2366.64664673,0.02223370
2368.57545410,0.02273837
2370.50426147,0.02323048
2372.43306885,0.02397161
2374.36187622,0.02467627
2376.29068359,0.02517591
2378.21949097,0.02568529
2380.14829834,0.02620276
2382.07710571,0.02648499
2384.00591309,0.02657446
2385.93472046,0.02676275
2387.86352783,0.02684550
2389.79233521,0.02679581
2391.72114258,0.02668180
2393.64994995,0.02662413
2395.57875732,0.02674555
2397.50756470,0.02682220
2399.43637207,0.02666719
2401.36517944,0.02662974
2403.29398682,0.02675121
2405.22279419,0.02663090
2407.15160156,0.02656040
2409.08040894,0.02659436
2411.00921631,0.02653037
2412.93802368,0.02643874
2414.86683105,0.02645262
2416.79563843,0.02653950
2418.72444580,0.02647472
2420.65325317,0.02641055
2422.58206055,0.02645263
2424.51086792,0.02644137
2426.43967529,0.02632328
2428.36848267,0.02636077
2430.29729004,0.02633052
2432.22609741,0.02621924
2434.15490479,0.02635128
2436.08371216,0.02629693
2438.01251953,0.02623516
2439.94132690,0.02627760
2441.87013428,0.02625929
2443.79894165,0.02621841
2445.72774902,0.02620710
2447.65655640,0.02626130
2449.58536377,0.02614958
2451.51417114,0.02616854
2453.44297852,0.02615861
2455.37178589,0.02612181
2457.30059326,0.02606495
2459.22940063,0.02591439
2461.15820801,0.02604959
2463.08701538,0.02600279
2465.01582275,0.02600234
2466.94463013,0.02588174
2468.87343750,0.02574139
2470.80224487,0.02599199
2472.73105225,0.02582279
2474.65985962,0.02578156
2476.58866699,0.02577538
2478.51747437,0.02568543
2480.44628174,0.02591612
2482.37508911,0.02578764
2484.30389648,0.02570010
2486.23270386,0.02574292
2488.16151123,0.02565471
2490.09031860,0.02567206
2492.01912598,0.02563369
2493.94793335,0.02559975
2495.87674072,0.02564017
2497.80554810,0.02563667
2499.73435547,0.02555685
2501.66316284,0.02554695
2503.59197021,0.02553581
2505.52077759,0.02541794
2507.44958496,0.02545371
2509.37839233,0.02546820
2511.30719971,0.02536998
2513.23600708,0.02543568
2515.16481445,0.02544231
2517.09362183,0.02539426
2519.02242920,0.02531504
2520.95123657,0.02524244
2522.88004395,0.02533999
2524.80885132,0.02533391
2526.73765869,0.02542987
2528.66646606,0.02534101
2530.59527344,0.02514002
2532.52408081,0.02526658
2534.45288818,0.02514945
2536.38169556,0.02517448
2538.31050293,0.02519360
2540.23931030,0.02503308
2542.16811768,0.02516708
2544.09692505,0.02512841
2546.02573242,0.02512002
2547.95453979,0.02511970
2549.88334717,0.02494993
2551.81215454,0.02497362
2553.74096191,0.02498803
2555.66976929,0.02492561
2557.59857666,0.02500426
2559.52738403,0.02500982
2561.45619141,0.02491441
2563.38499878,0.02498276
2565.31380615,0.02487768
2567.24261353,0.02484120
2569.17142090,0.02496528
2571.10022827,0.02471497
2573.02903564,0.02461200
2574.95784302,0.02473168
2576.88665039,0.02462251
2578.81545776,0.02460358
2580.74426514,0.02472012
2582.67307251,0.02467647
2584.60187988,0.02471790
2586.53068726,0.02470514
2588.45949463,0.02456186
2590.38830200,0.02460778
2592.31710937,0.02457039
2594.24591675,0.02461020
2596.17472412,0.02460128
2598.10353149,0.02441045
2600.03233887,0.02440337
2601.96114624,0.02438824
2603.88995361,0.02436244
2605.81876099,0.02435203
2607.74756836,0.02435688
2609.67637573,0.02433308
2611.60518311,0.02434726
2613.53399048,0.02434283
2615.46279785,0.02426051
2617.39160522,0.02429949
2619.32041260,0.02424155
2621.24921997,0.02429527
2623.17802734,0.02423511
2625.10683472,0.02405960
2627.03564209,0.02414615
2628.96444946,0.02405401
2630.89325684,0.02400864
2632.82206421,0.02412158
2634.75087158,0.02416797
2636.67967895,0.02404529
2638.60848633,0.02396571
2640.53729370,0.02404309
2642.46610107,0.02394034
2644.39490845,0.02391197
2646.32371582,0.02389493
2648.25252319,0.02390513
2650.18133057,0.02395596
2652.11013794,0.02382122
2654.03894531,0.02378671
2655.96775269,0.02383914
2657.89656006,0.02382285
2659.82536743,0.02378552
2661.75417480,0.02380728
2663.68298218,0.02372730
2665.61178955,0.02369061
2667.54059692,0.02370196
2669.46940430,0.02358245
2671.39821167,0.02364454
2673.32701904,0.02366629
2675.25582642,0.02360459
2677.18463379,0.02362927
2679.11344116,0.02366247
2681.04224854,0.02358827
2682.97105591,0.02346958
2684.89986328,0.02351832
2686.82867065,0.02348429
2688.75747803,0.02345012
2690.68628540,0.02337269
2692.61509277,0.02334984
2694.54390015,0.02344224
2696.47270752,0.02329759
2698.40151489,0.02327844
2700.33032227,0.02326807
2702.25912964,0.02322118
2704.18793701,0.02326399
2706.11674438,0.02323978
2708.04555176,0.02332030
2709.97435913,0.02323864
2711.90316650,0.02308735
2713.83197388,0.02305073
2715.76078125,0.02300704
2717.68958862,0.02311247
2719.61839600,0.02310183
2721.54720337,0.02296669
2723.47601074,0.02306174
2725.40481812,0.02302577
2727.33362549,0.02291075
2729.26243286,0.02299041
2731.19124023,0.02290819
2733.12004761,0.02284613
2735.04885498,0.02281274
2736.97766235,0.02288398
2738.90646973,0.02298000
2740.83527710,0.02270222
2742.76408447,0.02274979
2744.69289185,0.02278784
2746.62169922,0.02257975
2748.55050659,0.02263676
2750.47931396,0.02258990
2752.40812134,0.02260672
2754.33692871,0.02254884
2756.26573608,0.02245701
2758.19454346,0.02262533
2760.12335083,0.02261272
2762.05215820,0.02249050
2763.98096558,0.02246098
2765.90977295,0.02242522
2767.83858032,0.02242630
2769.76738770,0.02248916
2771.69619507,0.02235041
2773.62500244,0.02229636
2775.55380981,0.02231906
2777.48261719,0.02213244
2779.41142456,0.02223581
2781.34023193,0.02231395
2783.26903931,0.02222908
2785.19784668,0.02217299
2787.12665405,0.02209998
2789.05546143,0.02208692
2790.98426880,0.02197565
2792.91307617,0.02204489
2794.84188354,0.02200035
2796.77069092,0.02183989
2798.69949829,0.02186093
2800.62830566,0.02183898
2802.55711304,0.02194564
2804.48592041,0.02192065
2806.41472778,0.02185353
2808.34353516,0.02184164
2810.27234253,0.02173243
2812.20114990,0.02169115
2814.12995728,0.02165430
2816.05876465,0.02169221
2817.98757202,0.02166225
2819.91637939,0.02158423
2821.84518677,0.02152399
2823.77399414,0.02151307
2825.70280151,0.02158155
2827.63160889,0.02144965
2829.56041626,0.02137031
2831.48922363,0.02147425
2833.41803101,0.02144610
2835.34683838,0.02140121
2837.27564575,0.02139054
2839.20445312,0.02115000
2841.13326050,0.02112011
2843.06206787,0.02117153
2844.99087524,0.02095893
2846.91968262,0.02096629
2848.84848999,0.02083976
2850.77729736,0.02074597
2852.70610474,0.02076977
2854.63491211,0.02070154
2856.56371948,0.02079596
2858.49252686,0.02070491
2860.42133423,0.02075389
2862.35014160,0.02081217
2864.27894897,0.02066515
2866.20775635,0.02063804
2868.13656372,0.02063347
2870.06537109,0.02063911
2871.99417847,0.02055528
2873.92298584,0.02060140
2875.85179321,0.02058845
2877.78060059,0.02050960
2879.70940796,0.02052714
2881.63821533,0.02048275
2883.56702270,0.02050669
2885.49583008,0.02041866
2887.42463745,0.02034693
2889.35344482,0.02035941
2891.28225220,0.02037196
2893.21105957,0.02029440
2895.13986694,0.02026486
2897.06867432,0.02029491
2898.99748169,0.02012231
2900.92628906,0.02015386
2902.85509644,0.02017602
2904.78390381,0.02009691
2906.71271118,0.01994927
2908.64151855,0.01984577
2910.57032593,0.01990950
2912.49913330,0.01971128
2914.42794067,0.01967684
2916.35674805,0.01959486
2918.28555542,0.01948479
2920.21436279,0.01958521
2922.14317017,0.01954751
2924.07197754,0.01960800
2926.00078491,0.01956346
2927.92959229,0.01948069
2929.85839966,0.01947007
2931.78720703,0.01952851
2933.71601440,0.01951755
2935.64482178,0.01934117
2937.57362915,0.01938444
2939.50243652,0.01940672
2941.43124390,0.01942535
2943.36005127,0.01947288
2945.28885864,0.01941290
2947.21766602,0.01942958
2949.14647339,0.01948921
2951.07528076,0.01938907
2953.00408813,0.01930447
2954.93289551,0.01934939
2956.86170288,0.01921670
2958.79051025,0.01914975
2960.71931763,0.01917265
2962.64812500,0.01918704
2964.57693237,0.01907386
2966.50573975,0.01897625
2968.43454712,0.01914854
2970.36335449,0.01907008
2972.29216187,0.01901925
2974.22096924,0.01911357
2976.14977661,0.01919582
2978.07858398,0.01921166
2980.00739136,0.01914612
2981.93619873,0.01916713
2983.86500610,0.01903516
2985.79381348,0.01907425
2987.72262085,0.01906448
2989.65142822,0.01905373
2991.58023560,0.01914176
2993.50904297,0.01909300
2995.43785034,0.01915381
2997.36665771,0.01900521
2999.29546509,0.01909257
3001.22427246,0.01909908
3003.15307983,0.01886643
3005.08188721,0.01886064
3007.01069458,0.01875361
3008.93950195,0.01888890
3010.86830933,0.01878106
3012.79711670,0.01866328
3014.72592407,0.01881798
3016.65473145,0.01868064
3018.58353882,0.01870463
3020.51234619,0.01864571
3022.44115356,0.01855990
3024.36996094,0.01863809
3026.29876831,0.01852762
3028.22757568,0.01853950
3030.15638306,0.01859602
3032.08519043,0.01841682
3034.01399780,0.01840434
3035.94280518,0.01841035
3037.87161255,0.01826398
3039.80041992,0.01837859
3041.72922729,0.01832227
3043.65803467,0.01820072
3045.58684204,0.01827455
3047.51564941,0.01819266
3049.44445679,0.01815371
3051.37326416,0.01811499
3053.30207153,0.01808530
3055.23087891,0.01806980
3057.15968628,0.01800926
3059.08849365,0.01792840
3061.01730103,0.01790551
3062.94610840,0.01797472
3064.87491577,0.01785369
3066.80372314,0.01783521
3068.73253052,0.01787047
3070.66133789,0.01778203
3072.59014526,0.01781517
3074.51895264,0.01782338
3076.44776001,0.01783267
3078.37656738,0.01780124
3080.30537476,0.01774287
3082.23418213,0.01778559
3084.16298950,0.01774500
3086.09179687,0.01761863
3088.02060425,0.01759394
3089.94941162,0.01761325
3091.87821899,0.01758453
3093.80702637,0.01762735
3095.73583374,0.01755263
3097.66464111,0.01742951
3099.59344849,0.01747645
3101.52225586,0.01737505
3103.45106323,0.01736544
3105.37987061,0.01745080
3107.30867798,0.01725683
3109.23748535,0.01720984
3111.16629272,0.01722389
3113.09510010,0.01713171
3115.02390747,0.01711438
3116.95271484,0.01705597
3118.88152222,0.01705196
3120.81032959,0.01695272
3122.73913696,0.01686964
3124.66794434,0.01696168
3126.59675171,0.01698506
3128.52555908,0.01697507
3130.45436645,0.01692186
3132.38317383,0.01687542
3134.31198120,0.01676505
3136.24078857,0.01668486
3138.16959595,0.01667513
3140.09840332,0.01659319
3142.02721069,0.01666339
3143.95601807,0.01670596
3145.88482544,0.01663469
3147.81363281,0.01652992
3149.74244019,0.01641848
3151.67124756,0.01640577
3153.60005493,0.01640708
3155.52886230,0.01634822
3157.45766968,0.01625852
3159.38647705,0.01639765
3161.31528442,0.01634219
3163.24409180,0.01607785
3165.17289917,0.01619764
3167.10170654,0.01621281
3169.03051392,0.01615691
3170.95932129,0.01618692
3172.88812866,0.01603461
3174.81693604,0.01596851
3176.74574341,0.01589071
3178.67455078,0.01582500
3180.60335815,0.01592315
3182.53216553,0.01587607
3184.46097290,0.01573249
3186.38978027,0.01572561
3188.31858765,0.01578685
3190.24739502,0.01575992
3192.17620239,0.01567107
3194.10500977,0.01567973
3196.03381714,0.01566616
3197.96262451,0.01556359
3199.89143188,0.01555346
3201.82023926,0.01552505
3203.74904663,0.01545300
3205.67785400,0.01546598
3207.60666138,0.01545863
3209.53546875,0.01545011
3211.46427612,0.01541762
3213.39308350,0.01533908
3215.32189087,0.01530643
3217.25069824,0.01527289
3219.17950562,0.01527590
3221.10831299,0.01523917
3223.03712036,0.01523270
3224.96592773,0.01529042
3226.89473511,0.01520012
3228.82354248,0.01512137
3230.75234985,0.01509777
3232.68115723,0.01509880
3234.60996460,0.01507947
3236.53877197,0.01510763
3238.46757935,0.01513109
3240.39638672,0.01499846
3242.32519409,0.01504018
3244.25400146,0.01500354
3246.18280884,0.01500950
3248.11161621,0.01509491
3250.04042358,0.01493064
3251.96923096,0.01493789
3253.89803833,0.01484640
3255.82684570,0.01482351
3257.75565308,0.01497421
3259.68446045,0.01492019
3261.61326782,0.01485650
3263.54207520,0.01475999
3265.47088257,0.01480317
3267.39968994,0.01483992
3269.32849731,0.01478266
3271.25730469,0.01477828
3273.18611206,0.01479418
3275.11491943,0.01475372
3277.04372681,0.01469900
3278.97253418,0.01478058
3280.90134155,0.01470848
3282.83014893,0.01471937
3284.75895630,0.01472365
3286.68776367,0.01462897
3288.61657104,0.01465965
3290.54537842,0.01459337
3292.47418579,0.01459646
3294.40299316,0.01454240
3296.33180054,0.01459713
3298.26060791,0.01465631
3300.18941528,0.01460618
3302.11822266,0.01465846
3304.04703003,0.01453981
3305.97583740,0.01454494
3307.90464478,0.01450532
3309.83345215,0.01450616
3311.76225952,0.01459533
3313.69106689,0.01442495
3315.61987427,0.01439117
3317.54868164,0.01439332
3319.47748901,0.01441066
3321.40629639,0.01442001
3323.33510376,0.01435002
3325.26391113,0.01436935
3327.19271851,0.01435123
3329.12152588,0.01435121
3331.05033325,0.01439764
3332.97914062,0.01433227
3334.90794800,0.01421046
3336.83675537,0.01420582
3338.76556274,0.01418545
3340.69437012,0.01417879
3342.62317749,0.01419403
3344.55198486,0.01416542
3346.48079224,0.01415378
3348.40959961,0.01400159
3350.33840698,0.01399785
3352.26721436,0.01419923
3354.19602173,0.01415597
3356.12482910,0.01404391
3358.05363647,0.01409514
3359.98244385,0.01406894
3361.91125122,0.01401862
3363.84005859,0.01401221
3365.76886597,0.01400934
3367.69767334,0.01396004
3369.62648071,0.01384161
3371.55528809,0.01393816
3373.48409546,0.01392877
3375.41290283,0.01385309
3377.34171020,0.01383417
3379.27051758,0.01381370
3381.19932495,0.01394659
3383.12813232,0.01375447
3385.05693970,0.01365667
3386.98574707,0.01369974
3388.91455444,0.01367559
3390.84336182,0.01365920
3392.77216919,0.01348839
3394.70097656,0.01361855
3396.62978394,0.01362362
3398.55859131,0.01359274
3400.48739868,0.01360473
3402.41620605,0.01348807
3404.34501343,0.01362718
3406.27382080,0.01362808
3408.20262817,0.01356392
3410.13143555,0.01353478
3412.06024292,0.01359457
3413.98905029,0.01351678
3415.91785767,0.01330667
3417.84666504,0.01340882
3419.77547241,0.01332948
3421.70427979,0.01315216
3423.63308716,0.01327099
3425.56189453,0.01336634
3427.49070190,0.01322743
3429.41950928,0.01323043
3431.34831665,0.01318777
3433.27712402,0.01315568
3435.20593140,0.01324533
3437.13473877,0.01305809
3439.06354614,0.01316407
3440.99235352,0.01314970
3442.92116089,0.01304597
3444.84996826,0.01318368
3446.77877563,0.01304195
3448.70758301,0.01305235
3450.63639038,0.01305761
3452.56519775,0.01299109
3454.49400513,0.01303299
3456.42281250,0.01303158
3458.35161987,0.01291840
3460.28042725,0.01285377
3462.20923462,0.01291477
3464.13804199,0.01285840
3466.06684937,0.01289328
3467.99565674,0.01291079
3469.92446411,0.01293802
3471.85327148,0.01292073
3473.78207886,0.01281099
3475.71088623,0.01279472
3477.63969360,0.01283564
3479.56850098,0.01289420
3481.49730835,0.01272530
3483.42611572,0.01267903
3485.35492310,0.01272998
3487.28373047,0.01273654
3489.21253784,0.01272327
3491.14134521,0.01278205
3493.07015259,0.01285929
3494.99895996,0.01264444
3496.92776733,0.01272772
3498.85657471,0.01277681
3500.78538208,0.01273977
3502.71418945,0.01261082
3504.64299683,0.01241451
3506.57180420,0.01275111
3508.50061157,0.01269301
3510.42941895,0.01254427
3512.35822632,0.01266478
3514.28703369,0.01269622
3516.21584106,0.01276409
3518.14464844,0.01266029
3520.07345581,0.01261333
3522.00226318,0.01253253
3523.93107056,0.01241085
3525.85987793,0.01249250
3527.78868530,0.01259105
3529.71749268,0.01249833
3531.64630005,0.01261275
3533.57510742,0.01269544
3535.50391479,0.01245792
3537.43272217,0.01255023
3539.36152954,0.01266977
3541.29033691,0.01264905
3543.21914429,0.01253914
3545.14795166,0.01225017
3547.07675903,0.01214798
3549.00556641,0.01253940
3550.93437378,0.01262020
3552.86318115,0.01231303
3554.79198853,0.01260250
3556.72079590,0.01253568
3558.64960327,0.01235922
3560.57841064,0.01239105
3562.50721802,0.01237542
3564.43602539,0.01248065
3566.36483276,0.01168802
3568.29364014,0.01140742
3570.22244751,0.01225696
3572.15125488,0.01262862
3574.08006226,0.01251666
3576.00886963,0.01242559
3577.93767700,0.01241319
3579.86648437,0.01246111
3581.79529175,0.01244851
3583.72409912,0.01243036
3585.65290649,0.01214015
3587.58171387,0.01122585
3589.51052124,0.01166946
3591.43932861,0.01261740
3593.36813599,0.01213433
3595.29694336,0.01201299
3597.22575073,0.01219077
3599.15455811,0.01224489
3601.08336548,0.01230160
3603.01217285,0.01235679
3604.94098022,0.01252940
3606.86978760,0.01210985
3608.79859497,0.01140956
3610.72740234,0.01173460
3612.65620972,0.01195283
3614.58501709,0.01167572
3616.51382446,0.01239251
3618.44263184,0.01137751
3620.37143921,0.01117902
3622.30024658,0.01247211
3624.22905395,0.01209964
3626.15786133,0.01269340
3628.08666870,0.01078082
3630.01547607,0.00990662
3631.94428345,0.01228955
3633.87309082,0.01200516
3635.80189819,0.01232518
3637.73070557,0.01257985
3639.65951294,0.01232202
3641.58832031,0.01236644
3643.51712769,0.01219168
3645.44593506,0.01232503
3647.37474243,0.01116336
3649.30354980,0.01023451
3651.23235718,0.01041046
3653.16116455,0.01224649
3655.08997192,0.01202461
3657.01877930,0.01092142
3658.94758667,0.01243366
3660.87639404,0.01218635
3662.80520142,0.01239474
3664.73400879,0.01233413
3666.66281616,0.01219608
3668.59162354,0.01182499
3670.52043091,0.00984438
3672.44923828,0.01171625
3674.37804565,0.01110548
3676.30685303,0.00936044
3678.23566040,0.01166928
3680.16446777,0.01193960
3682.09327515,0.01192458
3684.02208252,0.01223143
3685.95088989,0.01203898
3687.87969727,0.01093699
3689.80850464,0.01006387
3691.73731201,0.01144223
3693.66611938,0.01181360
3695.59492676,0.01202046
3697.52373413,0.01199583
3699.45254150,0.01182253
3701.38134888,0.01157956
3703.31015625,0.01117031
3705.23896362,0.01219268
3707.16777100,0.01166268
3709.09657837,0.01134258
3711.02538574,0.01077040
3712.95419312,0.01017248
3714.88300049,0.01177091
3716.81180786,0.01160963
3718.74061523,0.01170462
3720.66942261,0.01149328
3722.59822998,0.01109472
3724.52703735,0.01141280
3726.45584473,0.01066141
3728.38465210,0.01156896
3730.31345947,0.01136245
3732.24226685,0.01055063
3734.17107422,0.01038606
3736.09988159,0.00985859
3738.02868896,0.01046106
3739.95749634,0.01126854
3741.88630371,0.01168333
3743.81511108,0.00912428
3745.74391846,0.00871332
3747.67272583,0.01118872
3749.60153320,0.00958457
3751.53034058,0.00888188
3753.45914795,0.01017887
3755.38795532,0.01088931
3757.31676270,0.01127161
3759.24557007,0.01048733
3761.17437744,0.01092649
3763.10318481,0.01151188
3765.03199219,0.01074059
3766.96079956,0.01107327
3768.88960693,0.01093468
3770.81841431,0.01043216
3772.74722168,0.01125722
3774.67602905,0.01119153
3776.60483643,0.01127184
3778.53364380,0.01100895
3780.46245117,0.01048161
3782.39125854,0.01112798
3784.32006592,0.01096861
3786.24887329,0.01097184
3788.17768066,0.01107209
3790.10648804,0.01102225
3792.03529541,0.01107107
3793.96410278,0.01117482
3795.89291016,0.01051010
3797.82171753,0.01043673
3799.75052490,0.01092712
3801.67933228,0.00877256
3803.60813965,0.01021431
3805.53694702,0.01090535
3807.46575439,0.00909033
3809.39456177,0.01094421
3811.32336914,0.01061383
3813.25217651,0.01106455
3815.18098389,0.00996624
3817.10979126,0.00891843
3819.03859863,0.01112439
3820.96740601,0.00894940
3822.89621338,0.00954586
3824.82502075,0.01101187
3826.75382812,0.00999945
3828.68263550,0.01065032
3830.61144287,0.01021871
3832.54025024,0.01001879
3834.46905762,0.01015898
3836.39786499,0.00967236
3838.32667236,0.00872404
3840.25547974,0.00948122
3842.18428711,0.01019299
3844.11309448,0.00965216
3846.04190186,0.01061753
3847.97070923,0.01037772
3849.89951660,0.01024161
3851.82832397,0.00939015
3853.75713135,0.00715584
3855.68593872,0.00834131
3857.61474609,0.01038818
3859.54355347,0.01013735
3861.47236084,0.00998442
3863.40116821,0.00979796
3865.32997559,0.00921626
3867.25878296,0.01021672
3869.18759033,0.00937360
3871.11639770,0.00871128
3873.04520508,0.01015510
3874.97401245,0.00944303
3876.90281982,0.01014818
3878.83162720,0.01020604
3880.76043457,0.00888300
3882.68924194,0.01014766
3884.61804932,0.00949412
3886.54685669,0.00876911
3888.47566406,0.01018403
3890.40447144,0.00967700
3892.33327881,0.00905235
3894.26208618,0.00993470
3896.19089355,0.01012162
3898.11970093,0.00966000
3900.04850830,0.00917860
3901.97731567,0.00895770
3903.90612305,0.00883466
3905.83493042,0.00904598
3907.76373779,0.00993976
3909.69254517,0.00989888
3911.62135254,0.00978232
3913.55015991,0.00998855
3915.47896728,0.00960331
3917.40777466,0.00937385
3919.33658203,0.00932168
3921.26538940,0.00958787
3923.19419678,0.00953191
3925.12300415,0.00936422
3927.05181152,0.00957585
3928.98061890,0.00967997
3930.90942627,0.00953039
3932.83823364,0.00919933
3934.76704102,0.00954851
3936.69584839,0.00966828
3938.62465576,0.00945246
3940.55346313,0.00957832
3942.48227051,0.00931076
3944.41107788,0.00936903
3946.33988525,0.00953137
3948.26869263,0.00922154
3950.19750000,0.00931347
3952.12630737,0.00946340
3954.05511475,0.00936686
3955.98392212,0.00935615
3957.91272949,0.00928865
3959.84153687,0.00937570
3961.77034424,0.00921702
3963.69915161,0.00912717
3965.62795898,0.00942256
3967.55676636,0.00927254
3969.48557373,0.00927635
3971.41438110,0.00923222
3973.34318848,0.00906865
3975.27199585,0.00914919
3977.20080322,0.00908252
3979.12961060,0.00917566
3981.05841797,0.00914408
3982.98722534,0.00907253
3984.91603271,0.00904166
3986.84484009,0.00903020
3988.77364746,0.00909760
3990.70245483,0.00906830
3992.63126221,0.00907749
3994.56006958,0.00894994
3996.48887695,0.00901288
3998.41768433,0.00911120
4000.34649170,0.00900320
4002.27529907,0.00890888
4004.20410645,0.00896543
4006.13291382,0.00904049
4008.06172119,0.00886532
4009.99052856,0.00889512
4011.91933594,0.00890069
4013.84814331,0.00883221
4015.77695068,0.00886555
4017.70575806,0.00882235
4019.63456543,0.00877120
4021.56337280,0.00877562
4023.49218018,0.00885369
4025.42098755,0.00875845
4027.34979492,0.00876655
4029.27860229,0.00872960
4031.20740967,0.00865053
4033.13621704,0.00870695
4035.06502441,0.00866170
4036.99383179,0.00869519
4038.92263916,0.00860742
4040.85144653,0.00858984
4042.78025391,0.00862485
4044.70906128,0.00856312
4046.63786865,0.00854373
4048.56667603,0.00856590
4050.49548340,0.00858721
4052.42429077,0.00848117
4054.35309814,0.00850818
4056.28190552,0.00847472
4058.21071289,0.00848683
4060.13952026,0.00848081
4062.06832764,0.00837063
4063.99713501,0.00842975
4065.92594238,0.00839164
4067.85474976,0.00837930
4069.78355713,0.00832038
4071.71236450,0.00834938
4073.64117187,0.00832293
4075.56997925,0.00826374
4077.49878662,0.00835746
4079.42759399,0.00821769
4081.35640137,0.00822862
4083.28520874,0.00820423
4085.21401611,0.00815809
4087.14282349,0.00824197
4089.07163086,0.00823509
4091.00043823,0.00817520
4092.92924561,0.00809234
4094.85805298,0.00823620
4096.78686035,0.00818417
4098.71566772,0.00810551
4100.64447510,0.00811746
4102.57328247,0.00800075
4104.50208984,0.00805654
4106.43089722,0.00798768
4108.35970459,0.00791415
4110.28851196,0.00801514
4112.21731934,0.00800943
4114.14612671,0.00793364
4116.07493408,0.00795142
4118.00374145,0.00789609
4119.93254883,0.00783440
4121.86135620,0.00791128
4123.79016357,0.00791443
4125.71897095,0.00788077
4127.64777832,0.00782527
4129.57658569,0.00783644
4131.50539307,0.00778466
4133.43420044,0.00774496
4135.36300781,0.00775926
4137.29181519,0.00770297
4139.22062256,0.00779136
4141.14942993,0.00775632
4143.07823730,0.00773178
4145.00704468,0.00771212
4146.93585205,0.00766794
4148.86465942,0.00772698
4150.79346680,0.00762627
4152.72227417,0.00758039
4154.65108154,0.00759765
4156.57988892,0.00767620
4158.50869629,0.00766023
4160.43750366,0.00756745
4162.36631103,0.00756501
4164.29511841,0.00749777
4166.22392578,0.00748428
4168.15273315,0.00743337
4170.08154053,0.00743660
4172.01034790,0.00748581
4173.93915527,0.00749999
4175.86796265,0.00746927
4177.79677002,0.00743596
4179.72557739,0.00748066
4181.65438477,0.00743182
4183.58319214,0.00741439
4185.51199951,0.00733277
4187.44080688,0.00731771
4189.36961426,0.00733050
4191.29842163,0.00731798
4193.22722900,0.00739764
4195.15603638,0.00720653
4197.08484375,0.00716779
4199.01365112,0.00727085
4200.94245850,0.00725691
4202.87126587,0.00723775
4204.80007324,0.00714104
4206.72888062,0.00715833
4208.65768799,0.00719014
4210.58649536,0.00726202
4212.51530273,0.00722849
4214.44411011,0.00711585
4216.37291748,0.00716780
4218.30172485,0.00712037
4220.23053223,0.00708630
4222.15933960,0.00706947
4224.08814697,0.00701810
4226.01695435,0.00710736
4227.94576172,0.00708830
4229.87456909,0.00696591
4231.80337646,0.00703250
4233.73218384,0.00705257
4235.66099121,0.00697790
4237.58979858,0.00699038
4239.51860596,0.00698298
4241.44741333,0.00696546
4243.37622070,0.00694819
4245.30502808,0.00694045
4247.23383545,0.00683934
4249.16264282,0.00682374
4251.09145020,0.00694488
4253.02025757,0.00685366
4254.94906494,0.00677391
4256.87787231,0.00675686
4258.80667969,0.00681302
4260.73548706,0.00681000
4262.66429443,0.00667175
4264.59310181,0.00675203
4266.52190918,0.00670292
4268.45071655,0.00670630
4270.37952393,0.00683200
4272.30833130,0.00665737
4274.23713867,0.00665267
4276.16594604,0.00675199
4278.09475342,0.00671773
4280.02356079,0.00664738
4281.95236816,0.00662212
4283.88117554,0.00670024
4285.80998291,0.00659067
4287.73879028,0.00658252
4289.66759766,0.00664395
4291.59640503,0.00654505
4293.52521240,0.00654926
4295.45401978,0.00647397
4297.38282715,0.00650468
4299.31163452,0.00653731
4301.24044189,0.00646177
4303.16924927,0.00649527
4305.09805664,0.00635883
4307.02686401,0.00637466
4308.95567139,0.00642278
4310.88447876,0.00630158
4312.81328613,0.00636201
4314.74209351,0.00636764
4316.67090088,0.00629592
4318.59970825,0.00630812
4320.52851562,0.00634134
4322.45732300,0.00627088
4324.38613037,0.00626166
4326.31493774,0.00630654
4328.24374512,0.00622555
4330.17255249,0.00620602
4332.10135986,0.00617942
4334.03016724,0.00621468
4335.95897461,0.00625365
4337.88778198,0.00620773
4339.81658936,0.00622009
4341.74539673,0.00615318
4343.67420410,0.00612421
4345.60301147,0.00613624
4347.53181885,0.00611163
4349.46062622,0.00612366
4351.38943359,0.00609266
4353.31824097,0.00605636
4355.24704834,0.00606186
4357.17585571,0.00605543
4359.10466309,0.00607488
4361.03347046,0.00606023
4362.96227783,0.00595287
4364.89108520,0.00603041
4366.81989258,0.00610753
4368.74869995,0.00597948
4370.67750732,0.00596010
4372.60631470,0.00598178
4374.53512207,0.00599485
4376.46392944,0.00598463
4378.39273682,0.00591701
4380.32154419,0.00592724
4382.25035156,0.00589762
4384.17915894,0.00587733
4386.10796631,0.00588810
4388.03677368,0.00579725
4389.96558105,0.00581503
4391.89438843,0.00583747
4393.82319580,0.00577396
4395.75200317,0.00582208
4397.68081055,0.00575333
4399.60961792,0.00570671
4401.53842529,0.00578882
4403.46723267,0.00572418
4405.39604004,0.00569575
4407.32484741,0.00570493
4409.25365478,0.00566697
4411.18246216,0.00565366
4413.11126953,0.00563025
4415.04007690,0.00562395
4416.96888428,0.00562267
4418.89769165,0.00562821
4420.82649902,0.00568551
4422.75530640,0.00565434
4424.68411377,0.00555263
4426.61292114,0.00562051
4428.54172852,0.00559505
4430.47053589,0.00547125
4432.39934326,0.00550786
4434.32815063,0.00546785
4436.25695801,0.00541549
4438.18576538,0.00546668
4440.11457275,0.00547354
4442.04338013,0.00544738
4443.97218750,0.00548576
4445.90099487,0.00546593
4447.82980225,0.00538747
4449.75860962,0.00538055
4451.68741699,0.00535671
4453.61622437,0.00543757
4455.54503174,0.00547070
4457.47383911,0.00538240
4459.40264648,0.00539139
4461.33145386,0.00538830
4463.26026123,0.00536539
4465.18906860,0.00532760
4467.11787598,0.00531087
4469.04668335,0.00526429
4470.97549072,0.00522138
4472.90429810,0.00523005
4474.83310547,0.00521314
4476.76191284,0.00531927
4478.69072021,0.00529586
4480.61952759,0.00519436
4482.54833496,0.00525114
4484.47714233,0.00521619
4486.40594971,0.00521782
4488.33475708,0.00523345
4490.26356445,0.00517496
4492.19237183,0.00517411
4494.12117920,0.00512395
4496.04998657,0.00515208
4497.97879395,0.00517450
4499.90760132,0.00506044
4501.83640869,0.00506508
4503.76521606,0.00504294
4505.69402344,0.00506060
4507.62283081,0.00514496
4509.55163818,0.00504316
4511.48044556,0.00501905
4513.40925293,0.00505376
4515.33806030,0.00496699
4517.26686768,0.00490410
4519.19567505,0.00503788
4521.12448242,0.00507799
4523.05328979,0.00490228
4524.98209717,0.00494650
4526.91090454,0.00498622
4528.83971191,0.00496008
4530.76851929,0.00490040
4532.69732666,0.00479602
4534.62613403,0.00491081
4536.55494141,0.00493343
4538.48374878,0.00494937
4540.41255615,0.00492442
4542.34136353,0.00483747
4544.27017090,0.00496532
4546.19897827,0.00491066
4548.12778564,0.00482985
4550.05659302,0.00487024
4551.98540039,0.00482211
4553.91420776,0.00476522
4555.84301514,0.00470667
4557.77182251,0.00469819
4559.70062988,0.00470080
4561.62943726,0.00474294
4563.55824463,0.00469864
4565.48705200,0.00462924
4567.41585937,0.00470693
4569.34466675,0.00470170
4571.27347412,0.00467607
4573.20228149,0.00460922
4575.13108887,0.00464061
4577.05989624,0.00472718
4578.98870361,0.00460612
4580.91751099,0.00461233
4582.84631836,0.00460520
4584.77512573,0.00457515
4586.70393311,0.00459954
4588.63274048,0.00459684
4590.56154785,0.00464951
4592.49035522,0.00456531
4594.41916260,0.00455898
4596.34796997,0.00451748
4598.27677734,0.00447635
4600.20558472,0.00449525
4602.13439209,0.00440064
4604.06319946,0.00449028
4605.99200684,0.00445752
4607.92081421,0.00445888
4609.84962158,0.00447966
4611.77842895,0.00438444
4613.70723633,0.00442481
4615.63604370,0.00435305
4617.56485107,0.00443078
4619.49365845,0.00440407
4621.42246582,0.00434289
4623.35127319,0.00444239
4625.28008057,0.00434444
4627.20888794,0.00430229
4629.13769531,0.00425930
4631.06650269,0.00435308
4632.99531006,0.00438067
4634.92411743,0.00420986
4636.85292480,0.00422268
4638.78173218,0.00432570
4640.71053955,0.00439599
4642.63934692,0.00427391
4644.56815430,0.00420223
4646.49696167,0.00426446
4648.42576904,0.00428222
4650.35457642,0.00418461
4652.28338379,0.00414756
4654.21219116,0.00424156
4656.14099853,0.00417878
4658.06980591,0.00421537
4659.99861328,0.00417206
4661.92742065,0.00404596
4663.85622803,0.00414517
4665.78503540,0.00416423
4667.71384277,0.00409420
4669.64265015,0.00412688
4671.57145752,0.00417443
4673.50026489,0.00407327
4675.42907227,0.00409618
4677.35787964,0.00415283
4679.28668701,0.00411440
4681.21549438,0.00411573
4683.14430176,0.00408921
4685.07310913,0.00401450
4687.00191650,0.00389204
4688.93072388,0.00403566
4690.85953125,0.00402657
4692.78833862,0.00390741
4694.71714600,0.00401937
4696.64595337,0.00394350
4698.57476074,0.00397549
4700.50356812,0.00393144
4702.43237549,0.00385256
4704.36118286,0.00399759
4706.28999023,0.00396281
4708.21879761,0.00387080
4710.14760498,0.00388720
4712.07641235,0.00389515
4714.00521973,0.00384346
4715.93402710,0.00388939
4717.86283447,0.00388387
4719.79164185,0.00384559
4721.72044922,0.00384902
4723.64925659,0.00382453
4725.57806396,0.00389147
4727.50687134,0.00384152
4729.43567871,0.00378210
4731.36448608,0.00379969
4733.29329346,0.00382583
4735.22210083,0.00380995
4737.15090820,0.00380109
4739.07971558,0.00378451
4741.00852295,0.00372186
4742.93733032,0.00383939
4744.86613770,0.00373400
4746.79494507,0.00369922
4748.72375244,0.00379173
4750.65255981,0.00364685
4752.58136719,0.00367683
4754.51017456,0.00363266
4756.43898193,0.00363920
4758.36778931,0.00365991
4760.29659668,0.00358673
4762.22540405,0.00369350
4764.15421143,0.00365859
4766.08301880,0.00356310
4768.01182617,0.00358073
4769.94063354,0.00363317
4771.86944092,0.00359357
4773.79824829,0.00363042
4775.72705566,0.00368704
4777.65586304,0.00357918
4779.58467041,0.00359529
4781.51347778,0.00359963
4783.44228516,0.00357952
4785.37109253,0.00355265
4787.29989990,0.00348984
4789.22870728,0.00351609
4791.15751465,0.00348582
4793.08632202,0.00346687
4795.01512939,0.00355191
4796.94393677,0.00353655
4798.87274414,0.00348147
4800.80155151,0.00355165
4802.73035889,0.00344678
4804.65916626,0.00340805
4806.58797363,0.00352107
4808.51678101,0.00341343
4810.44558838,0.00340623
4812.37439575,0.00345425
4814.30320312,0.00344695
4816.23201050,0.00339807
4818.16081787,0.00332603
4820.08962524,0.00335743
4822.01843262,0.00330899
4823.94723999,0.00333572
4825.87604736,0.00342343
4827.80485474,0.00338535
4829.73366211,0.00331407
4831.66246948,0.00330944
4833.59127686,0.00333682
4835.52008423,0.00333072
4837.44889160,0.00333757
4839.37769897,0.00326258
4841.30650635,0.00327445
4843.23531372,0.00329306
4845.16412109,0.00319058
4847.09292847,0.00325705
4849.02173584,0.00328383
4850.95054321,0.00321773
4852.87935059,0.00319187
4854.80815796,0.00323014
4856.73696533,0.00331036
4858.66577270,0.00319963
4860.59458008,0.00314156
4862.52338745,0.00321229
4864.45219482,0.00318016
4866.38100220,0.00316819
4868.30980957,0.00319366
4870.23861694,0.00316881
4872.16742432,0.00310370
4874.09623169,0.00313808
4876.02503906,0.00316464
4877.95384644,0.00308095
4879.88265381,0.00307784
4881.81146118,0.00306508
4883.74026855,0.00308118
4885.66907593,0.00310197
4887.59788330,0.00311031
4889.52669067,0.00321831
4891.45549805,0.00313369
4893.38430542,0.00303178
4895.31311279,0.00309962
4897.24192017,0.00310763
4899.17072754,0.00305406
4901.09953491,0.00300624
4903.02834228,0.00304395
4904.95714966,0.00307588
4906.88595703,0.00306054
4908.81476440,0.00300365
4910.74357178,0.00296229
4912.67237915,0.00304111
4914.60118652,0.00303933
4916.52999390,0.00296590
4918.45880127,0.00294814
4920.38760864,0.00295469
4922.31641602,0.00295268
4924.24522339,0.00294790
4926.17403076,0.00301656
4928.10283813,0.00299351
4930.03164551,0.00291671
4931.96045288,0.00296352
4933.88926025,0.00292575
4935.81806763,0.00291494
4937.74687500,0.00293403
4939.67568237,0.00282638
4941.60448975,0.00285816
4943.53329712,0.00293778
4945.46210449,0.00291894
4947.39091187,0.00283195
4949.31971924,0.00280233
4951.24852661,0.00283669
4953.17733398,0.00277157
4955.10614136,0.00279926
4957.03494873,0.00276669
4958.96375610,0.00273080
4960.89256348,0.00279145
4962.82137085,0.00276690
4964.75017822,0.00280293
4966.67898560,0.00275799
4968.60779297,0.00276356
4970.53660034,0.00277218
4972.46540771,0.00271680
4974.39421509,0.00277445
4976.32302246,0.00271542
4978.25182983,0.00270317
4980.18063721,0.00271524
4982.10944458,0.00268673
4984.03825195,0.00269499
4985.96705933,0.00267810
4987.89586670,0.00268538
4989.82467407,0.00268153
4991.75348145,0.00269087
4993.68228882,0.00261882
4995.61109619,0.00261692
4997.53990356,0.00268574
4999.46871094,0.00263815
5001.39751831,0.00261303
5003.32632568,0.00262510
5005.25513306,0.00262916
5007.18394043,0.00259618
5009.11274780,0.00265428
5011.04155518,0.00264196
5012.97036255,0.00251824
5014.89916992,0.00255915
5016.82797729,0.00259234
5018.75678467,0.00256071
5020.68559204,0.00252874
5022.61439941,0.00253672
5024.54320679,0.00256404
5026.47201416,0.00253642
5028.40082153,0.00257612
5030.32962891,0.00263147
5032.25843628,0.00250274
5034.18724365,0.00239801
5036.11605103,0.00251401
5038.04485840,0.00257929
5039.97366577,0.00253518
5041.90247314,0.00248133
5043.83128052,0.00254814
5045.76008789,0.00257897
5047.68889526,0.00243318
5049.61770264,0.00244029
5051.54651001,0.00243073
5053.47531738,0.00239139
5055.40412476,0.00244956
5057.33293213,0.00246060
5059.26173950,0.00247910
5061.19054687,0.00243891
5063.11935425,0.00241624
5065.04816162,0.00247454
5066.97696899,0.00246263
5068.90577637,0.00234747
5070.83458374,0.00234930
5072.76339111,0.00246552
5074.69219849,0.00243062
5076.62100586,0.00234426
5078.54981323,0.00233163
5080.47862061,0.00234078
5082.40742798,0.00234748
5084.33623535,0.00237957
5086.26504272,0.00237566
5088.19385010,0.00236059
5090.12265747,0.00236600
5092.05146484,0.00231615
5093.98027222,0.00231241
5095.90907959,0.00228782
5097.83788696,0.00223427
5099.76669434,0.00226096
5101.69550171,0.00227404
5103.62430908,0.00227424
5105.55311645,0.00227804
5107.48192383,0.00223206
5109.41073120,0.00227404
5111.33953857,0.00229343
5113.26834595,0.00223598
5115.19715332,0.00231862
5117.12596069,0.00222303
5119.05476807,0.00222978
5120.98357544,0.00231231
5122.91238281,0.00211190
5124.84119019,0.00222474
5126.76999756,0.00224017
5128.69880493,0.00212726
5130.62761230,0.00220642
5132.55641968,0.00219147
5134.48522705,0.00224432
5136.41403442,0.00217908
5138.34284180,0.00214447
5140.27164917,0.00217146
5142.20045654,0.00214580
5144.12926392,0.00216920
5146.05807129,0.00214004
5147.98687866,0.00219021
5149.91568603,0.00214421
5151.84449341,0.00208528
5153.77330078,0.00210388
5155.70210815,0.00207797
5157.63091553,0.00209729
5159.55972290,0.00210220
5161.48853027,0.00213963
5163.41733765,0.00211377
5165.34614502,0.00206270
5167.27495239,0.00211726
5169.20375977,0.00210669
5171.13256714,0.00208534
5173.06137451,0.00207983
5174.99018188,0.00202753
5176.91898926,0.00209595
5178.84779663,0.00201459
5180.77660400,0.00191134
5182.70541138,0.00209662
5184.63421875,0.00202215
5186.56302612,0.00196487
5188.49183350,0.00202072
5190.42064087,0.00196836
5192.34944824,0.00203254
5194.27825562,0.00200056
5196.20706299,0.00200253
5198.13587036,0.00197075
5200.06467773,0.00202630
5201.99348511,0.00207974
5203.92229248,0.00193105
5205.85109985,0.00196027
5207.77990723,0.00191585
5209.70871460,0.00197958
5211.63752197,0.00205326
5213.56632935,0.00197834
5215.49513672,0.00199224
5217.42394409,0.00192848
5219.35275146,0.00193176
5221.28155884,0.00185006
5223.21036621,0.00184555
5225.13917358,0.00186053
5227.06798096,0.00174397
5228.99678833,0.00188895
5230.92559570,0.00197562
5232.85440308,0.00189727
5234.78321045,0.00186691
5236.71201782,0.00188118
5238.64082520,0.00185899
5240.56963257,0.00190198
5242.49843994,0.00191385
5244.42724731,0.00182616
5246.35605469,0.00190904
5248.28486206,0.00180974
5250.21366943,0.00173467
5252.14247681,0.00185853
5254.07128418,0.00183669
5256.00009155,0.00184464
5257.92889893,0.00179875
5259.85770630,0.00176929
5261.78651367,0.00183448
5263.71532104,0.00182339
5265.64412842,0.00178386
5267.57293579,0.00181711
5269.50174316,0.00179650
5271.43055054,0.00171704
5273.35935791,0.00181142
5275.28816528,0.00181901
5277.21697266,0.00179044
5279.14578003,0.00178524
5281.07458740,0.00170802
5283.00339478,0.00174332
5284.93220215,0.00171011
5286.86100952,0.00174526
5288.78981689,0.00173122
5290.71862427,0.00164783
5292.64743164,0.00174246
5294.57623901,0.00171710
5296.50504639,0.00173388
5298.43385376,0.00172399
5300.36266113,0.00165636
5302.29146851,0.00166839
5304.22027588,0.00164466
5306.14908325,0.00172166
5308.07789062,0.00171230
5310.00669800,0.00171600
5311.93550537,0.00173632
5313.86431274,0.00169878
5315.79312012,0.00172192
5317.72192749,0.00167661
5319.65073486,0.00171955
5321.57954224,0.00163881
5323.50834961,0.00156786
5325.43715698,0.00165569
5327.36596436,0.00160912
5329.29477173,0.00163834
5331.22357910,0.00161844
5333.15238647,0.00156502
5335.08119385,0.00162197
5337.01000122,0.00160891
5338.93880859,0.00153945
5340.86761597,0.00157519
5342.79642334,0.00159161
5344.72523071,0.00154537
5346.65403809,0.00165699
5348.58284546,0.00159580
5350.51165283,0.00158183
5352.44046020,0.00165837
5354.36926758,0.00153092
5356.29807495,0.00157676
5358.22688232,0.00156844
5360.15568970,0.00158831
5362.08449707,0.00160873
5364.01330444,0.00148866
5365.94211182,0.00156517
5367.87091919,0.00157162
5369.79972656,0.00156222
5371.72853394,0.00156045
5373.65734131,0.00149502
5375.58614868,0.00150259
5377.51495605,0.00148550
5379.44376343,0.00153793
5381.37257080,0.00157564
5383.30137817,0.00151247
5385.23018555,0.00145765
5387.15899292,0.00141483
5389.08780029,0.00147092
5391.01660767,0.00155193
5392.94541504,0.00144732
5394.87422241,0.00140008
5396.80302978,0.00149127
5398.73183716,0.00146169
5400.66064453,0.00145143
5402.58945190,0.00148950
5404.51825928,0.00147847
5406.44706665,0.00149571
5408.37587402,0.00144398
5410.30468140,0.00134110
5412.23348877,0.00140299
5414.16229614,0.00142259
5416.09110352,0.00140148
5418.01991089,0.00151636
5419.94871826,0.00144680
5421.87752563,0.00139535
5423.80633301,0.00144747
5425.73514038,0.00141340
5427.66394775,0.00137480
5429.59275513,0.00133607
5431.52156250,0.00145177
5433.45036987,0.00144033
5435.37917725,0.00131523
5437.30798462,0.00134572
5439.23679199,0.00137986
5441.16559936,0.00141163
5443.09440674,0.00136112
5445.02321411,0.00134031
5446.95202148,0.00140384
5448.88082886,0.00134878
5450.80963623,0.00128531
5452.73844360,0.00138254
5454.66725098,0.00136383
5456.59605835,0.00128450
5458.52486572,0.00135643
5460.45367310,0.00133662
5462.38248047,0.00137643
5464.31128784,0.00135242
5466.24009521,0.00130105
5468.16890259,0.00140678
5470.09770996,0.00134412
5472.02651733,0.00129021
5473.95532471,0.00130243
5475.88413208,0.00132177
5477.81293945,0.00128412
5479.74174683,0.00123061
5481.67055420,0.00133727
5483.59936157,0.00132769
5485.52816895,0.00122698
5487.45697632,0.00126481
5489.38578369,0.00136695
5491.31459106,0.00133310
5493.24339844,0.00126365
5495.17220581,0.00127245
5497.10101318,0.00125549
5499.02982056,0.00124534
5500.95862793,0.00124403
5502.88743530,0.00120350
5504.81624268,0.00118542
5506.74505005,0.00125940
5508.67385742,0.00121984
5510.60266479,0.00120692
5512.53147217,0.00126849
5514.46027954,0.00119771
5516.38908691,0.00117995
5518.31789429,0.00121257
5520.24670166,0.00126500
5522.17550903,0.00120805
5524.10431641,0.00122181
5526.03312378,0.00128274
5527.96193115,0.00121479
5529.89073853,0.00128231
5531.81954590,0.00120533
5533.74835327,0.00118214
5535.67716064,0.00121562
5537.60596802,0.00115397
5539.53477539,0.00122495
5541.46358276,0.00113669
5543.39239014,0.00112749
5545.32119751,0.00119056
5547.25000488,0.00113653
5549.17881226,0.00115247
5551.10761963,0.00114870
5553.03642700,0.00114845
5554.96523437,0.00118218
5556.89404175,0.00115792
5558.82284912,0.00115805
5560.75165649,0.00120586
5562.68046387,0.00113789
5564.60927124,0.00119995
5566.53807861,0.00125959
5568.46688599,0.00111531
5570.39569336,0.00109947
5572.32450073,0.00115142
5574.25330811,0.00116312
5576.18211548,0.00109419
5578.11092285,0.00108586
5580.03973022,0.00112145
5581.96853760,0.00114183
5583.89734497,0.00117432
5585.82615234,0.00110230
5587.75495972,0.00111575
5589.68376709,0.00110847
5591.61257446,0.00108353
5593.54138184,0.00108678
5595.47018921,0.00107637
5597.39899658,0.00112192
5599.32780395,0.00112388
5601.25661133,0.00114274
5603.18541870,0.00109200
5605.11422607,0.00105378
5607.04303345,0.00106878
5608.97184082,0.00106924
5610.90064819,0.00105383
5612.82945557,0.00103142
5614.75826294,0.00106705
5616.68707031,0.00104243
5618.61587769,0.00107733
5620.54468506,0.00107831
5622.47349243,0.00105024
5624.40229980,0.00103653
5626.33110718,0.00101983
5628.25991455,0.00103115
5630.18872192,0.00093514
5632.11752930,0.00106878
5634.04633667,0.00110903
5635.97514404,0.00099131
5637.90395142,0.00102631
5639.83275879,0.00096578
5641.76156616,0.00100838
5643.69037353,0.00103652
5645.61918091,0.00100131
5647.54798828,0.00098324
5649.47679565,0.00096404
5651.40560303,0.00099741
5653.33441040,0.00101078
5655.26321777,0.00103044
5657.19202515,0.00098894
5659.12083252,0.00101110
5661.04963989,0.00097344
5662.97844727,0.00094419
5664.90725464,0.00103570
5666.83606201,0.00096187
5668.76486938,0.00092561
5670.69367676,0.00097451
5672.62248413,0.00099103
5674.55129150,0.00095891
5676.48009888,0.00091288
5678.40890625,0.00093766
5680.33771362,0.00094290
5682.26652100,0.00092414
5684.19532837,0.00095297
5686.12413574,0.00098753
5688.05294311,0.00099248
5689.98175049,0.00100003
5691.91055786,0.00094087
5693.83936523,0.00094409
5695.76817261,0.00096760
5697.69697998,0.00092350
5699.62578735,0.00090423
5701.55459473,0.00086131
5703.48340210,0.00093435
5705.41220947,0.00095723
5707.34101685,0.00094028
5709.26982422,0.00096975
5711.19863159,0.00087577
5713.12743896,0.00085328
5715.05624634,0.00091969
5716.98505371,0.00095810
5718.91386108,0.00091379
5720.84266846,0.00090590
5722.77147583,0.00087452
5724.70028320,0.00081522
5726.62909058,0.00091170
5728.55789795,0.00091865
5730.48670532,0.00090075
5732.41551270,0.00093563
5734.34432007,0.00091115
5736.27312744,0.00089369
5738.20193481,0.00090586
5740.13074219,0.00084716
5742.05954956,0.00076829
5743.98835693,0.00085074
5745.91716431,0.00088689
5747.84597168,0.00086561
5749.77477905,0.00087345
5751.70358643,0.00085724
5753.63239380,0.00083944
5755.56120117,0.00084452
5757.49000854,0.00086036
5759.41881592,0.00081461
5761.34762329,0.00085889
5763.27643066,0.00085400
5765.20523804,0.00080833
5767.13404541,0.00082601
5769.06285278,0.00076970
5770.99166016,0.00081123
5772.92046753,0.00084187
5774.84927490,0.00084038
5776.77808228,0.00083514
5778.70688965,0.00079504
5780.63569702,0.00083811
5782.56450439,0.00080060
5784.49331177,0.00074629
5786.42211914,0.00076052
5788.35092651,0.00074638
5790.27973389,0.00078112
5792.20854126,0.00079726
5794.13734863,0.00072627
5796.06615601,0.00078562
5797.99496338,0.00084975
5799.92377075,0.00080617
5801.85257812,0.00084232
5803.78138550,0.00081481
5805.71019287,0.00078380
5807.63900024,0.00080976
5809.56780762,0.00073012
5811.49661499,0.00065306
5813.42542236,0.00073792
5815.35422974,0.00078149
5817.28303711,0.00065577
5819.21184448,0.00071117
5821.14065186,0.00077676
5823.06945923,0.00070998
5824.99826660,0.00076173
5826.92707397,0.00075334
5828.85588135,0.00067353
5830.78468872,0.00071662
5832.71349609,0.00076934
5834.64230347,0.00071362
5836.57111084,0.00073635
5838.49991821,0.00077639
5840.42872559,0.00074870
5842.35753296,0.00078530
5844.28634033,0.00079174
5846.21514770,0.00074414
5848.14395508,0.00070769
5850.07276245,0.00075782
5852.00156982,0.00074160
5853.93037720,0.00066798
5855.85918457,0.00071115
5857.78799194,0.00073336
5859.71679932,0.00072892
5861.64560669,0.00066073
5863.57441406,0.00066375
5865.50322144,0.00071495
5867.43202881,0.00065698
5869.36083618,0.00068042
5871.28964355,0.00064889
5873.21845093,0.00060334
5875.14725830,0.00067047
5877.07606567,0.00070469
5879.00487305,0.00071962
5880.93368042,0.00068237
5882.86248779,0.00066739
5884.79129517,0.00069438
5886.72010254,0.00067361
5888.64890991,0.00065538
5890.57771728,0.00061602
5892.50652466,0.00066356
5894.43533203,0.00070636
5896.36413940,0.00061083
5898.29294678,0.00061663
5900.22175415,0.00064039
5902.15056152,0.00066738
5904.07936890,0.00065395
5906.00817627,0.00061008
5907.93698364,0.00071809
5909.86579102,0.00067692
5911.79459839,0.00062620
5913.72340576,0.00062395
5915.65221313,0.00057146
5917.58102051,0.00064780
5919.50982788,0.00069036
5921.43863525,0.00067380
5923.36744263,0.00063904
5925.29625000,0.00065697
5927.22505737,0.00061619
5929.15386475,0.00061780
5931.08267212,0.00071883
5933.01147949,0.00064474
5934.94028686,0.00064772
5936.86909424,0.00064434
5938.79790161,0.00060554
5940.72670898,0.00061685
5942.65551636,0.00059558
5944.58432373,0.00061569
5946.51313110,0.00059442
5948.44193848,0.00059742
5950.37074585,0.00056809
5952.29955322,0.00059279
5954.22836060,0.00058765
5956.15716797,0.00052093
5958.08597534,0.00057187
5960.01478271,0.00056798
5961.94359009,0.00059961
5963.87239746,0.00056948
5965.80120483,0.00053222
5967.73001221,0.00054580
5969.65881958,0.00052372
5971.58762695,0.00059447
5973.51643433,0.00062106
5975.44524170,0.00058692
5977.37404907,0.00051876
5979.30285645,0.00057315
5981.23166382,0.00060172
5983.16047119,0.00053264
5985.08927856,0.00056983
5987.01808594,0.00052964
5988.94689331,0.00053557
5990.87570068,0.00056391
5992.80450806,0.00054500
5994.73331543,0.00052764
5996.66212280,0.00051337
5998.59093018,0.00052726
6000.51973755,0.00053628
