399.26312622,-0.00011042
401.19193359,0.00006546
403.12074097,0.00021859
405.04954834,0.00017709
406.97835571,-0.00005879
408.90716309,0.00018585
410.83597046,0.00024314
412.76477783,-0.00001563
414.69358521,0.00023011
416.62239258,-0.00012218
418.55119995,-0.00010882
420.48000732,0.00009723
422.40881470,0.00014749
424.33762207,0.00006941
426.26642944,-0.00003532
428.19523682,0.00030850
430.12404419,0.00002827
432.05285156,0.00019884
433.98165894,0.00014632
435.91046631,-0.00022268
437.83927368,-0.00000446
439.76808105,-0.00018764
441.69688843,0.00014513
443.62569580,0.00036873
445.55450317,0.00008061
447.48331055,-0.00012833
449.41211792,-0.00007423
451.34092529,0.00039217
453.26973267,-0.00000315
455.19854004,-0.00008506
457.12734741,0.00020667
459.05615479,-0.00013556
460.98496216,0.00023585
462.91376953,0.00020364
464.84257690,0.00019790
466.77138428,0.00046675
468.70019165,0.00008556
470.62899902,0.00032045
472.55780640,0.00052961
474.48661377,0.00034556
476.41542114,0.00017069
478.34422852,0.00010463
480.27303589,0.00000805
482.20184326,0.00000923
484.13065063,0.00012029
486.05945801,-0.00004577
487.98826538,0.00018613
489.91707275,0.00007779
491.84588013,0.00001151
493.77468750,0.00027094
495.70349487,0.00027515
497.63230225,0.00035127
499.56110962,-0.00000011
501.48991699,0.00016357
503.41872437,0.00005706
505.34753174,-0.00005094
507.27633911,0.00054149
509.20514648,0.00025503
511.13395386,0.00004967
513.06276123,-0.00010938
514.99156860,0.00004430
516.92037598,0.00040071
518.84918335,0.00022457
520.77799072,0.00000015
522.70679810,-0.00001764
524.63560547,0.00042490
526.56441284,0.00026367
528.49322021,0.00000829
530.42202759,-0.00007671
532.35083496,0.00007760
534.27964233,0.00020672
536.20844971,-0.00021723
538.13725708,0.00020741
540.06606445,0.00007920
541.99487183,-0.00017184
543.92367920,0.00020020
545.85248657,-0.00006672
547.78129395,-0.00000647
549.71010132,-0.00000685
551.63890869,-0.00001411
553.56771606,0.00002154
555.49652344,0.00001763
557.42533081,0.00029731
559.35413818,0.00002548
561.28294556,0.00018390
563.21175293,0.00041933
565.14056030,-0.00001903
567.06936768,0.00007561
568.99817505,0.00009599
570.92698242,0.00003579
572.85578979,0.00034952
574.78459717,0.00018279
576.71340454,-0.00004993
578.64221191,0.00006814
580.57101929,0.00015850
582.49982666,0.00021906
584.42863403,0.00019157
586.35744141,0.00013773
588.28624878,0.00003943
590.21505615,0.00006392
592.14386353,0.00021012
594.07267090,0.00008955
596.00147827,0.00007085
597.93028564,0.00015311
599.85909302,0.00013571
601.78790039,0.00004330
603.71670776,-0.00023236
605.64551514,-0.00013859
607.57432251,0.00019805
609.50312988,0.00001523
611.43193726,0.00011082
613.36074463,0.00039464
615.28955200,-0.00004719
617.21835938,-0.00011213
619.14716675,0.00038642
621.07597412,0.00023699
623.00478149,0.00004850
624.93358887,0.00032737
626.86239624,0.00012694
628.79120361,0.00001051
630.72001099,0.00020066
632.64881836,0.00014031
634.57762573,0.00027624
636.50643311,0.00020992
638.43524048,0.00014147
640.36404785,0.00009505
642.29285522,-0.00010793
644.22166260,0.00012707
646.15046997,0.00024766
648.07927734,0.00017140
650.00808472,0.00006994
651.93689209,0.00012113
653.86569946,0.00008729
655.79450684,-0.00006020
657.72331421,0.00033405
659.65212158,0.00033160
661.58092896,0.00006892
663.50973633,0.00015689
665.43854370,0.00015613
667.36735107,0.00019739
669.29615845,0.00009463
671.22496582,0.00010728
673.15377319,0.00018717
675.08258057,0.00004959
677.01138794,0.00034074
678.94019531,0.00033957
680.86900269,0.00002622
682.79781006,0.00020985
684.72661743,0.00024323
686.65542480,0.00023732
688.58423218,0.00003685
690.51303955,-0.00000387
692.44184692,0.00038883
694.37065430,0.00015585
696.29946167,-0.00002047
698.22826904,0.00011173
700.15707642,0.00005057
702.08588379,0.00018866
704.01469116,0.00027992
705.94349854,0.00014472
707.87230591,0.00021328
709.80111328,0.00030940
711.72992065,0.00016452
713.65872803,0.00005790
715.58753540,-0.00012085
717.51634277,-0.00009403
719.44515015,0.00014594
721.37395752,0.00002336
723.30276489,0.00002215
725.23157227,0.00009463
727.16037964,-0.00000800
729.08918701,0.00022625
731.01799438,0.00017775
732.94680176,-0.00005463
734.87560913,0.00026517
736.80441650,0.00029394
738.73322388,-0.00002795
740.66203125,0.00026283
742.59083862,0.00031159
744.51964600,-0.00028430
746.44845337,-0.00007432
748.37726074,0.00022659
750.30606812,0.00007532
752.23487549,0.00023406
754.16368286,0.00027799
756.09249023,0.00032053
758.02129761,0.00012715
759.95010498,0.00002701
761.87891235,0.00033590
763.80771973,0.00027141
765.73652710,0.00031339
767.66533447,0.00027314
769.59414185,0.00009141
771.52294922,0.00012341
773.45175659,-0.00010218
775.38056396,-0.00010114
777.30937134,0.00002616
779.23817871,-0.00011499
781.16698608,0.00015869
783.09579346,0.00027220
785.02460083,0.00000010
786.95340820,0.00020264
788.88221558,0.00026475
790.81102295,-0.00001939
792.73983032,-0.00004057
794.66863770,0.00023760
796.59744507,0.00030197
798.52625244,0.00022662
800.45505981,0.00021911
802.38386719,0.00007609
804.31267456,0.00016710
806.24148193,0.00024207
808.17028931,0.00013723
810.09909668,0.00025629
812.02790405,0.00025264
813.95671143,-0.00002312
815.88551880,0.00000466
817.81432617,0.00014644
819.74313354,0.00001076
821.67194092,0.00005184
823.60074829,0.00015046
825.52955566,0.00037570
827.45836304,0.00041079
829.38717041,0.00007636
831.31597778,0.00014018
833.24478516,0.00006734
835.17359253,-0.00004368
837.10239990,0.00019370
839.03120728,0.00013046
840.96001465,0.00020356
842.88882202,0.00039413
844.81762939,0.00034154
846.74643677,0.00030391
848.67524414,0.00006325
850.60405151,0.00013004
852.53285889,0.00047996
854.46166626,0.00047498
856.39047363,0.00042498
858.31928101,0.00017189
860.24808838,0.00005046
862.17689575,0.00026931
864.10570313,0.00029668
866.03451050,0.00009319
867.96331787,-0.00024405
869.89212524,-0.00004554
871.82093262,0.00035923
873.74973999,0.00028597
875.67854736,0.00033006
877.60735474,0.00042536
879.53616211,0.00019782
881.46496948,0.00008025
883.39377686,0.00025047
885.32258423,0.00022221
887.25139160,0.00011344
889.18019897,0.00015180
891.10900635,0.00009923
893.03781372,0.00024891
894.96662109,0.00039371
896.89542847,0.00012929
898.82423584,0.00014836
900.75304321,0.00025867
902.68185059,0.00012158
904.61065796,0.00025265
906.53946533,0.00011827
908.46827271,0.00011576
910.39708008,0.00026469
912.32588745,-0.00001006
914.25469482,0.00029133
916.18350220,0.00049042
918.11230957,0.00027006
920.04111694,0.00026541
921.96992432,0.00029400
923.89873169,0.00022249
925.82753906,0.00015994
927.75634644,0.00045616
929.68515381,0.00026933
931.61396118,0.00022026
933.54276855,0.00043098
935.47157593,0.00018094
937.40038330,0.00046878
939.32919067,0.00045356
941.25799805,0.00017520
943.18680542,0.00031908
945.11561279,0.00022050
947.04442017,0.00021707
948.97322754,0.00038790
950.90203491,0.00011174
952.83084229,0.00007865
954.75964966,0.00048915
956.68845703,0.00029475
958.61726440,0.00032977
960.54607178,0.00021506
962.47487915,0.00003610
964.40368652,0.00049684
966.33249390,0.00029881
968.26130127,0.00031989
970.19010864,0.00023168
972.11891602,0.00014482
974.04772339,0.00052615
975.97653076,0.00029022
977.90533813,0.00045067
979.83414551,0.00046685
981.76295288,0.00025872
983.69176025,0.00036002
985.62056763,0.00046455
987.54937500,0.00046813
989.47818237,0.00025306
991.40698975,0.00056846
993.33579712,0.00041087
995.26460449,0.00012478
997.19341187,0.00059206
999.12221924,0.00062703
1001.05102661,0.00039787
1002.97983398,0.00052672
1004.90864136,0.00075652
1006.83744873,0.00052425
1008.76625610,0.00044281
1010.69506348,0.00059168
1012.62387085,0.00071755
1014.55267822,0.00096997
1016.48148560,0.00086943
1018.41029297,0.00098261
1020.33910034,0.00094493
1022.26790771,0.00077850
1024.19671509,0.00077268
1026.12552246,0.00061956
1028.05432983,0.00109051
1029.98313721,0.00113683
1031.91194458,0.00087390
1033.84075195,0.00089747
1035.76955933,0.00082223
1037.69836670,0.00122735
1039.62717407,0.00122473
1041.55598145,0.00106583
1043.48478882,0.00117322
1045.41359619,0.00096031
1047.34240356,0.00091766
1049.27121094,0.00098486
1051.20001831,0.00095531
1053.12882568,0.00099732
1055.05763306,0.00107409
1056.98644043,0.00100875
1058.91524780,0.00102032
1060.84405518,0.00096451
1062.77286255,0.00087068
1064.70166992,0.00091068
1066.63047729,0.00082462
1068.55928467,0.00106233
1070.48809204,0.00107125
1072.41689941,0.00075504
1074.34570679,0.00073457
1076.27451416,0.00072773
1078.20332153,0.00079131
1080.13212891,0.00082082
1082.06093628,0.00075528
1083.98974365,0.00061700
1085.91855103,0.00060373
1087.84735840,0.00068599
1089.77616577,0.00068232
1091.70497314,0.00061410
1093.63378052,0.00050812
1095.56258789,0.00063453
1097.49139526,0.00066234
1099.42020264,0.00061729
1101.34901001,0.00046908
1103.27781738,0.00042891
1105.20662476,0.00078914
1107.13543213,0.00070945
1109.06423950,0.00055935
1110.99304687,0.00067685
1112.92185425,0.00054480
1114.85066162,0.00063177
1116.77946899,0.00073529
1118.70827637,0.00057957
1120.63708374,0.00057803
1122.56589111,0.00040154
1124.49469849,0.00052632
1126.42350586,0.00080475
1128.35231323,0.00056736
1130.28112061,0.00068432
1132.20992798,0.00065156
1134.13873535,0.00041800
1136.06754272,0.00071246
1137.99635010,0.00080275
1139.92515747,0.00075552
1141.85396484,0.00077406
1143.78277222,0.00067239
1145.71157959,0.00075995
1147.64038696,0.00098476
1149.56919434,0.00091981
1151.49800171,0.00086766
1153.42680908,0.00099779
1155.35561646,0.00096342
1157.28442383,0.00095571
1159.21323120,0.00094076
1161.14203857,0.00101398
1163.07084595,0.00102385
1164.99965332,0.00090146
1166.92846069,0.00109107
1168.85726807,0.00109171
1170.78607544,0.00101457
1172.71488281,0.00123701
1174.64369019,0.00129495
1176.57249756,0.00117016
1178.50130493,0.00134503
1180.43011230,0.00156587
1182.35891968,0.00146408
1184.28772705,0.00155287
1186.21653442,0.00157478
1188.14534180,0.00165075
1190.07414917,0.00184614
1192.00295654,0.00171881
1193.93176392,0.00180809
1195.86057129,0.00181933
1197.78937866,0.00193871
1199.71818604,0.00218514
1201.64699341,0.00213118
1203.57580078,0.00230741
1205.50460815,0.00231916
1207.43341553,0.00231989
1209.36222290,0.00244767
1211.29103027,0.00246083
1213.21983765,0.00270838
1215.14864502,0.00271660
1217.07745239,0.00254271
1219.00625977,0.00269372
1220.93506714,0.00282812
1222.86387451,0.00284264
1224.79268188,0.00292631
1226.72148926,0.00287707
1228.65029663,0.00287851
1230.57910400,0.00295356
1232.50791138,0.00277571
1234.43671875,0.00274138
1236.36552612,0.00288207
1238.29433350,0.00282659
1240.22314087,0.00281138
1242.15194824,0.00306147
1244.08075562,0.00310463
1246.00956299,0.00292695
1247.93837036,0.00291613
1249.86717773,0.00295596
1251.79598511,0.00290573
1253.72479248,0.00273344
1255.65359985,0.00282105
1257.58240723,0.00284834
1259.51121460,0.00264909
1261.44002197,0.00266507
1263.36882935,0.00272925
1265.29763672,0.00282624
1267.22644409,0.00271117
1269.15525146,0.00269393
1271.08405884,0.00269765
1273.01286621,0.00256245
1274.94167358,0.00268721
1276.87048096,0.00256693
1278.79928833,0.00250154
1280.72809570,0.00250321
1282.65690308,0.00249275
1284.58571045,0.00248875
1286.51451782,0.00227490
1288.44332520,0.00239324
1290.37213257,0.00230268
1292.30093994,0.00210893
1294.22974731,0.00228269
1296.15855469,0.00239178
1298.08736206,0.00233968
1300.01616943,0.00224903
1301.94497681,0.00236792
1303.87378418,0.00235137
1305.80259155,0.00234822
1307.73139893,0.00243526
1309.66020630,0.00240489
1311.58901367,0.00253413
1313.51782104,0.00258444
1315.44662842,0.00270587
1317.37543579,0.00274801
1319.30424316,0.00261573
1321.23305054,0.00276811
1323.16185791,0.00285025
1325.09066528,0.00285296
1327.01947266,0.00296751
1328.94828003,0.00307958
1330.87708740,0.00316553
1332.80589478,0.00315800
1334.73470215,0.00323662
1336.66350952,0.00331407
1338.59231689,0.00324247
1340.52112427,0.00330321
1342.44993164,0.00344270
1344.37873901,0.00343741
1346.30754639,0.00350934
1348.23635376,0.00360227
1350.16516113,0.00351852
1352.09396851,0.00356698
1354.02277588,0.00342704
1355.95158325,0.00323172
1357.88039062,0.00354389
1359.80919800,0.00348851
1361.73800537,0.00318005
1363.66681274,0.00329094
1365.59562012,0.00336291
1367.52442749,0.00331023
1369.45323486,0.00329492
1371.38204224,0.00319727
1373.31084961,0.00309180
1375.23965698,0.00329331
1377.16846436,0.00329044
1379.09727173,0.00318551
1381.02607910,0.00341361
1382.95488647,0.00337290
1384.88369385,0.00329285
1386.81250122,0.00323181
1388.74130859,0.00323157
1390.67011597,0.00347263
1392.59892334,0.00337315
1394.52773071,0.00320632
1396.45653809,0.00335877
1398.38534546,0.00330454
1400.31415283,0.00332246
1402.24296021,0.00360767
1404.17176758,0.00334030
1406.10057495,0.00341167
1408.02938232,0.00373824
1409.95818970,0.00362616
1411.88699707,0.00360972
1413.81580444,0.00339673
1415.74461182,0.00356883
1417.67341919,0.00321759
1419.60222656,0.00285537
1421.53103394,0.00342011
1423.45984131,0.00316235
1425.38864868,0.00320786
1427.31745605,0.00327753
1429.24626343,0.00287209
1431.17507080,0.00295695
1433.10387817,0.00301561
1435.03268555,0.00291681
1436.96149292,0.00250723
1438.89030029,0.00259488
1440.81910767,0.00278378
1442.74791504,0.00259160
1444.67672241,0.00266694
1446.60552979,0.00273883
1448.53433716,0.00264823
1450.46314453,0.00261368
1452.39195190,0.00299278
1454.32075928,0.00275874
1456.24956665,0.00220172
1458.17837402,0.00247727
1460.10718140,0.00315270
1462.03598877,0.00341042
1463.96479614,0.00306628
1465.89360352,0.00327954
1467.82241089,0.00379756
1469.75121826,0.00395407
1471.68002563,0.00379041
1473.60883301,0.00392435
1475.53764038,0.00433765
1477.46644775,0.00447736
1479.39525513,0.00492606
1481.32406250,0.00514529
1483.25286987,0.00541964
1485.18167725,0.00555581
1487.11048462,0.00539676
1489.03929199,0.00549141
1490.96809937,0.00553505
1492.89690674,0.00622179
1494.82571411,0.00606004
1496.75452148,0.00561040
1498.68332886,0.00631762
1500.61213623,0.00660478
1502.54094360,0.00703827
1504.46975098,0.00638458
1506.39855835,0.00495532
1508.32736572,0.00599446
1510.25617310,0.00687259
1512.18498047,0.00678830
1514.11378784,0.00714806
1516.04259521,0.00661869
1517.97140259,0.00694948
1519.90020996,0.00667616
1521.82901733,0.00593777
1523.75782471,0.00709690
1525.68663208,0.00678609
1527.61543945,0.00680982
1529.54424683,0.00771255
1531.47305420,0.00727249
1533.40186157,0.00680048
1535.33066895,0.00721198
1537.25947632,0.00742949
1539.18828369,0.00558024
1541.11709106,0.00589158
1543.04589844,0.00691115
1544.97470581,0.00668352
1546.90351318,0.00791787
1548.83232056,0.00752082
1550.76112793,0.00757618
1552.68993530,0.00750565
1554.61874268,0.00684127
1556.54755005,0.00714223
1558.47635742,0.00535341
1560.40516479,0.00595257
1562.33397217,0.00802100
1564.26277954,0.00762741
1566.19158691,0.00793149
1568.12039429,0.00782801
1570.04920166,0.00703803
1571.97800903,0.00796117
1573.90681641,0.00792300
1575.83562378,0.00645671
1577.76443115,0.00712619
1579.69323853,0.00793464
1581.62204590,0.00781527
1583.55085327,0.00800054
1585.47966064,0.00800981
1587.40846802,0.00813447
1589.33727539,0.00804571
1591.26608276,0.00808250
1593.19489014,0.00796378
1595.12369751,0.00790344
1597.05250488,0.00797925
1598.98131226,0.00800657
1600.91011963,0.00815453
1602.83892700,0.00788418
1604.76773437,0.00806278
1606.69654175,0.00794979
1608.62534912,0.00790481
1610.55415649,0.00797172
1612.48296387,0.00807243
1614.41177124,0.00819878
1616.34057861,0.00680257
1618.26938599,0.00729387
1620.19819336,0.00839846
1622.12700073,0.00760522
1624.05580811,0.00769336
1625.98461548,0.00807396
1627.91342285,0.00788466
1629.84223022,0.00781766
1631.77103760,0.00849499
1633.69984497,0.00782056
1635.62865234,0.00657435
1637.55745972,0.00761462
1639.48626709,0.00830431
1641.41507446,0.00811656
1643.34388184,0.00829556
1645.27268921,0.00744974
1647.20149658,0.00669539
1649.13030396,0.00835128
1651.05911133,0.00779224
1652.98791870,0.00533447
1654.91672607,0.00701329
1656.84553345,0.00838918
1658.77434082,0.00816922
1660.70314819,0.00843986
1662.63195557,0.00778651
1664.56076294,0.00824517
1666.48957031,0.00873780
1668.41837769,0.00760781
1670.34718506,0.00747884
1672.27599243,0.00849401
1674.20479980,0.00782968
1676.13360718,0.00765192
1678.06241455,0.00857995
1679.99122192,0.00822154
1681.92002930,0.00828088
1683.84883667,0.00687107
1685.77764404,0.00703190
1687.70645142,0.00920616
1689.63525879,0.00791516
1691.56406616,0.00875579
1693.49287354,0.00891995
1695.42168091,0.00682236
1697.35048828,0.00816796
1699.27929565,0.00716424
1701.20810303,0.00660709
1703.13691040,0.00870576
1705.06571777,0.00801168
1706.99452515,0.00807211
1708.92333252,0.00878194
1710.85213989,0.00850839
1712.78094727,0.00846354
1714.70975464,0.00792286
1716.63856201,0.00738962
1718.56736938,0.00717926
1720.49617676,0.00829379
1722.42498413,0.00868273
1724.35379150,0.00812372
1726.28259888,0.00888748
1728.21140625,0.00830656
1730.14021362,0.00825438
1732.06902100,0.00806095
1733.99782837,0.00641072
1735.92663574,0.00783599
1737.85544312,0.00842838
1739.78425049,0.00761696
1741.71305786,0.00829960
1743.64186523,0.00823285
1745.57067261,0.00839737
1747.49947998,0.00853754
1749.42828735,0.00806809
1751.35709473,0.00790053
1753.28590210,0.00870004
1755.21470947,0.00888288
1757.14351685,0.00818995
1759.07232422,0.00909093
1761.00113159,0.00866367
1762.92993896,0.00830234
1764.85874634,0.00929948
1766.78755371,0.00860762
1768.71636108,0.00867504
1770.64516846,0.00858591
1772.57397583,0.00790130
1774.50278320,0.00863882
1776.43159058,0.00904708
1778.36039795,0.00892493
1780.28920532,0.00886808
1782.21801270,0.00882877
1784.14682007,0.00888442
1786.07562744,0.00897144
1788.00443481,0.00914110
1789.93324219,0.00891047
1791.86204956,0.00827609
1793.79085693,0.00868748
1795.71966431,0.00931817
1797.64847168,0.00910694
1799.57727905,0.00902484
1801.50608643,0.00881650
1803.43489380,0.00912725
1805.36370117,0.00932346
1807.29250854,0.00919578
1809.22131592,0.00933864
1811.15012329,0.00906952
1813.07893066,0.00930712
1815.00773804,0.00920851
1816.93654541,0.00921423
1818.86535278,0.00945364
1820.79416016,0.00924046
1822.72296753,0.00926946
1824.65177490,0.00893837
1826.58058228,0.00924153
1828.50938965,0.00903737
1830.43819702,0.00879301
1832.36700439,0.00934703
1834.29581177,0.00921932
1836.22461914,0.00941411
1838.15342651,0.00913508
1840.08223389,0.00937939
1842.01104126,0.00939499
1843.93984863,0.00843056
1845.86865601,0.00909176
1847.79746338,0.00945666
1849.72627075,0.00927421
1851.65507812,0.00936567
1853.58388550,0.00932744
1855.51269287,0.00936091
1857.44150024,0.00935468
1859.37030762,0.00951211
1861.29911499,0.00929682
1863.22792236,0.00933517
1865.15672974,0.00945946
1867.08553711,0.00907003
1869.01434448,0.00879512
1870.94315186,0.00903674
1872.87195923,0.00943411
1874.80076660,0.00936793
1876.72957397,0.00942760
1878.65838135,0.00938783
1880.58718872,0.00950215
1882.51599609,0.00953595
1884.44480347,0.00920502
1886.37361084,0.00952736
1888.30241821,0.00931709
1890.23122559,0.00906619
1892.16003296,0.00930713
1894.08884033,0.00917306
1896.01764771,0.00930781
1897.94645508,0.00929599
1899.87526245,0.00937669
1901.80406982,0.00945566
1903.73287720,0.00911867
1905.66168457,0.00931085
1907.59049194,0.00937331
1909.51929932,0.00924537
1911.44810669,0.00939279
1913.37691406,0.00938659
1915.30572144,0.00933795
1917.23452881,0.00902804
1919.16333618,0.00903051
1921.09214355,0.00925400
1923.02095093,0.00907485
1924.94975830,0.00929757
1926.87856567,0.00940890
1928.80737305,0.00928750
1930.73618042,0.00936141
1932.66498779,0.00932916
1934.59379517,0.00934684
1936.52260254,0.00920369
1938.45140991,0.00928979
1940.38021729,0.00932458
1942.30902466,0.00901555
1944.23783203,0.00924025
1946.16663940,0.00944014
1948.09544678,0.00936037
1950.02425415,0.00940833
1951.95306152,0.00939233
1953.88186890,0.00930528
1955.81067627,0.00925169
1957.73948364,0.00940845
1959.66829102,0.00954957
1961.59709839,0.00946860
1963.52590576,0.00942712
1965.45471313,0.00932011
1967.38352051,0.00920405
1969.31232788,0.00926906
1971.24113525,0.00928552
1973.16994263,0.00938780
1975.09875000,0.00945499
1977.02755737,0.00937109
1978.95636475,0.00937222
1980.88517212,0.00929086
1982.81397949,0.00939915
1984.74278687,0.00951679
1986.67159424,0.00934604
1988.60040161,0.00932574
1990.52920898,0.00929519
1992.45801636,0.00930821
1994.38682373,0.00946962
1996.31563110,0.00943443
1998.24443848,0.00934318
2000.17324585,0.00930559
2002.10205322,0.00925895
2004.03086060,0.00928572
2005.95966797,0.00933317
2007.88847534,0.00935796
2009.81728271,0.00929178
2011.74609009,0.00928474
2013.67489746,0.00937920
2015.60370483,0.00916129
2017.53251221,0.00911640
2019.46131958,0.00926222
2021.39012695,0.00921144
2023.31893433,0.00939755
2025.24774170,0.00925509
2027.17654907,0.00908482
2029.10535645,0.00933674
2031.03416382,0.00931346
2032.96297119,0.00931998
2034.89177856,0.00919246
2036.82058594,0.00907605
2038.74939331,0.00924715
2040.67820068,0.00914632
2042.60700806,0.00916281
2044.53581543,0.00926378
2046.46462280,0.00915610
2048.39343018,0.00904832
2050.32223755,0.00899098
2052.25104492,0.00904188
2054.17985229,0.00909436
2056.10865967,0.00907840
2058.03746704,0.00897813
2059.96627441,0.00906960
2061.89508179,0.00920257
2063.82388916,0.00907190
2065.75269653,0.00901479
2067.68150391,0.00894782
2069.61031128,0.00904058
2071.53911865,0.00921312
2073.46792603,0.00907174
2075.39673340,0.00903268
2077.32554077,0.00905560
2079.25434814,0.00900397
2081.18315552,0.00896700
2083.11196289,0.00893882
2085.04077026,0.00897833
2086.96957764,0.00893979
2088.89838501,0.00892475
2090.82719238,0.00894213
2092.75599976,0.00892265
2094.68480713,0.00892684
2096.61361450,0.00890429
2098.54242187,0.00899552
2100.47122925,0.00898953
2102.40003662,0.00880569
2104.32884399,0.00883826
2106.25765137,0.00889811
2108.18645874,0.00890761
2110.11526611,0.00890223
2112.04407349,0.00879478
2113.97288086,0.00884064
2115.90168823,0.00890471
2117.83049561,0.00894781
2119.75930298,0.00887848
2121.68811035,0.00872843
2123.61691772,0.00881677
2125.54572510,0.00884221
2127.47453247,0.00891716
2129.40333984,0.00894866
2131.33214722,0.00886082
2133.26095459,0.00883033
2135.18976196,0.00872554
2137.11856934,0.00879411
2139.04737671,0.00881073
2140.97618408,0.00889461
2142.90499146,0.00886787
2144.83379883,0.00867465
2146.76260620,0.00883246
2148.69141357,0.00879490
2150.62022095,0.00888654
2152.54902832,0.00896287
2154.47783569,0.00874266
2156.40664307,0.00887645
2158.33545044,0.00892003
2160.26425781,0.00873362
2162.19306519,0.00862774
2164.12187256,0.00881071
2166.05067993,0.00891061
2167.97948730,0.00875046
2169.90829468,0.00876310
2171.83710205,0.00871232
2173.76590942,0.00874858
2175.69471680,0.00882751
2177.62352417,0.00877464
2179.55233154,0.00890438
2181.48113892,0.00889968
2183.40994629,0.00871402
2185.33875366,0.00877311
2187.26756104,0.00881699
2189.19636841,0.00877686
2191.12517578,0.00880052
2193.05398315,0.00870622
2194.98279053,0.00874128
2196.91159790,0.00874231
2198.84040527,0.00872340
2200.76921265,0.00883960
2202.69802002,0.00880418
2204.62682739,0.00881090
2206.55563477,0.00879536
2208.48444214,0.00888504
2210.41324951,0.00883042
2212.34205688,0.00862180
2214.27086426,0.00877407
2216.19967163,0.00879798
2218.12847900,0.00879923
2220.05728638,0.00877337
2221.98609375,0.00871186
2223.91490112,0.00887562
2225.84370850,0.00874424
2227.77251587,0.00863720
2229.70132324,0.00875805
2231.63013062,0.00863292
2233.55893799,0.00864526
2235.48774536,0.00873531
2237.41655273,0.00853634
2239.34536011,0.00861622
2241.27416748,0.00869345
2243.20297485,0.00872331
2245.13178223,0.00891140
2247.06058960,0.00867475
2248.98939697,0.00860431
2250.91820435,0.00863270
2252.84701172,0.00856233
2254.77581909,0.00868572
2256.70462646,0.00863350
2258.63343384,0.00865944
2260.56224121,0.00862855
2262.49104858,0.00853141
2264.41985596,0.00859763
2266.34866333,0.00864089
2268.27747070,0.00863478
2270.20627808,0.00863624
2272.13508545,0.00868673
2274.06389282,0.00859515
2275.99270020,0.00854750
2277.92150757,0.00855300
2279.85031494,0.00858648
2281.77912231,0.00868009
2283.70792969,0.00857975
2285.63673706,0.00850364
2287.56554443,0.00860617
2289.49435181,0.00869638
2291.42315918,0.00860597
2293.35196655,0.00855751
2295.28077393,0.00852563
2297.20958130,0.00846137
2299.13838867,0.00851292
2301.06719604,0.00847753
2302.99600342,0.00840585
2304.92481079,0.00837012
2306.85361816,0.00837430
2308.78242554,0.00828267
2310.71123291,0.00830498
2312.64004028,0.00833949
2314.56884766,0.00805331
2316.49765503,0.00804318
2318.42646240,0.00814189
2320.35526978,0.00795537
2322.28407715,0.00772454
2324.21288452,0.00769762
2326.14169189,0.00765046
2328.07049927,0.00751755
2329.99930664,0.00752904
2331.92811401,0.00743880
2333.85692139,0.00748495
2335.78572876,0.00740625
2337.71453613,0.00733597
2339.64334351,0.00750928
2341.57215088,0.00747249
2343.50095825,0.00761098
2345.42976562,0.00769449
2347.35857300,0.00794565
2349.28738037,0.00816952
2351.21618774,0.00781264
2353.14499512,0.00760924
2355.07380249,0.00732177
2357.00260986,0.00705572
2358.93141724,0.00705720
2360.86022461,0.00692088
2362.78903198,0.00695215
2364.71783936,0.00711223
2366.64664673,0.00704817
2368.57545410,0.00710046
2370.50426147,0.00733801
2372.43306885,0.00751656
2374.36187622,0.00780595
2376.29068359,0.00792236
2378.21949097,0.00799204
2380.14829834,0.00822160
2382.07710571,0.00827813
2384.00591309,0.00828174
2385.93472046,0.00834571
2387.86352783,0.00841949
2389.79233521,0.00834816
2391.72114258,0.00840854
2393.64994995,0.00843024
2395.57875732,0.00830507
2397.50756470,0.00841508
2399.43637207,0.00837041
2401.36517944,0.00827373
2403.29398682,0.00821399
2405.22279419,0.00830703
2407.15160156,0.00840844
2409.08040894,0.00830535
2411.00921631,0.00839543
2412.93802368,0.00831761
2414.86683105,0.00828978
2416.79563843,0.00831886
2418.72444580,0.00829975
2420.65325317,0.00840794
2422.58206055,0.00825129
2424.51086792,0.00825041
2426.43967529,0.00838090
2428.36848267,0.00835378
2430.29729004,0.00821705
2432.22609741,0.00821969
2434.15490479,0.00840804
2436.08371216,0.00827155
2438.01251953,0.00823283
2439.94132690,0.00832308
2441.87013428,0.00829234
2443.79894165,0.00834907
2445.72774902,0.00831688
2447.65655640,0.00823881
2449.58536377,0.00824316
2451.51417114,0.00819608
2453.44297852,0.00815493
2455.37178589,0.00828336
2457.30059326,0.00824738
2459.22940063,0.00822140
2461.15820801,0.00832425
2463.08701538,0.00825656
2465.01582275,0.00823918
2466.94463013,0.00816745
2468.87343750,0.00818007
2470.80224487,0.00820521
2472.73105225,0.00818626
2474.65985962,0.00825344
2476.58866699,0.00820701
2478.51747437,0.00828069
2480.44628174,0.00814870
2482.37508911,0.00805074
2484.30389648,0.00815545
2486.23270386,0.00814549
2488.16151123,0.00820001
2490.09031860,0.00804670
2492.01912598,0.00814416
2493.94793335,0.00824086
2495.87674072,0.00812120
2497.80554810,0.00820316
2499.73435547,0.00813865
2501.66316284,0.00821334
2503.59197021,0.00808881
2505.52077759,0.00802182
2507.44958496,0.00820315
2509.37839233,0.00806126
2511.30719971,0.00809148
2513.23600708,0.00806649
2515.16481445,0.00809124
2517.09362183,0.00810944
2519.02242920,0.00800288
2520.95123657,0.00815673
2522.88004395,0.00813889
2524.80885132,0.00813180
2526.73765869,0.00804444
2528.66646606,0.00796541
2530.59527344,0.00806187
2532.52408081,0.00799730
2534.45288818,0.00806268
2536.38169556,0.00814149
2538.31050293,0.00810750
2540.23931030,0.00803821
2542.16811768,0.00813546
2544.09692505,0.00816938
2546.02573242,0.00798700
2547.95453979,0.00799761
2549.88334717,0.00794090
2551.81215454,0.00794859
2553.74096191,0.00798891
2555.66976929,0.00792366
2557.59857666,0.00797097
2559.52738403,0.00805851
2561.45619141,0.00806596
2563.38499878,0.00788207
2565.31380615,0.00790910
2567.24261353,0.00797205
2569.17142090,0.00792309
2571.10022827,0.00796018
2573.02903564,0.00793896
2574.95784302,0.00792156
2576.88665039,0.00786222
2578.81545776,0.00796807
2580.74426514,0.00801200
2582.67307251,0.00799349
2584.60187988,0.00794889
2586.53068726,0.00775131
2588.45949463,0.00788816
2590.38830200,0.00791335
2592.31710937,0.00791219
2594.24591675,0.00802907
2596.17472412,0.00790523
2598.10353149,0.00785414
2600.03233887,0.00788375
2601.96114624,0.00795629
2603.88995361,0.00789393
2605.81876099,0.00782003
2607.74756836,0.00777541
2609.67637573,0.00778785
2611.60518311,0.00792954
2613.53399048,0.00785154
2615.46279785,0.00789258
2617.39160522,0.00789289
2619.32041260,0.00777104
2621.24921997,0.00783284
2623.17802734,0.00786290
2625.10683472,0.00785129
2627.03564209,0.00777603
2628.96444946,0.00777032
2630.89325684,0.00785102
2632.82206421,0.00788906
2634.75087158,0.00779467
2636.67967895,0.00778705
2638.60848633,0.00784910
2640.53729370,0.00775964
2642.46610107,0.00783486
2644.39490845,0.00780883
2646.32371582,0.00775048
2648.25252319,0.00775155
2650.18133057,0.00775118
2652.11013794,0.00782768
2654.03894531,0.00764060
2655.96775269,0.00771042
2657.89656006,0.00780251
2659.82536743,0.00766339
2661.75417480,0.00770368
2663.68298218,0.00764046
2665.61178955,0.00765047
2667.54059692,0.00764516
2669.46940430,0.00764852
2671.39821167,0.00770344
2673.32701904,0.00764590
2675.25582642,0.00769246
2677.18463379,0.00765859
2679.11344116,0.00768274
2681.04224854,0.00771589
2682.97105591,0.00762863
2684.89986328,0.00766364
2686.82867065,0.00761767
2688.75747803,0.00757079
2690.68628540,0.00762372
2692.61509277,0.00760088
2694.54390015,0.00761849
2696.47270752,0.00759959
2698.40151489,0.00751009
2700.33032227,0.00762112
2702.25912964,0.00766413
2704.18793701,0.00755634
2706.11674438,0.00758442
2708.04555176,0.00761921
2709.97435913,0.00766711
2711.90316650,0.00761850
2713.83197388,0.00751588
2715.76078125,0.00757602
2717.68958862,0.00755530
2719.61839600,0.00748648
2721.54720337,0.00747192
2723.47601074,0.00748180
2725.40481812,0.00755817
2727.33362549,0.00751118
2729.26243286,0.00744244
2731.19124023,0.00752701
2733.12004761,0.00748371
2735.04885498,0.00738775
2736.97766235,0.00740462
2738.90646973,0.00747526
2740.83527710,0.00759404
2742.76408447,0.00748850
2744.69289185,0.00736263
2746.62169922,0.00745341
2748.55050659,0.00746102
2750.47931396,0.00738058
2752.40812134,0.00738668
2754.33692871,0.00748432
2756.26573608,0.00738770
2758.19454346,0.00736279
2760.12335083,0.00750569
2762.05215820,0.00734041
2763.98096558,0.00731036
2765.90977295,0.00740493
2767.83858032,0.00734538
2769.76738770,0.00735597
2771.69619507,0.00728332
2773.62500244,0.00730987
2775.55380981,0.00729910
2777.48261719,0.00721487
2779.41142456,0.00731232
2781.34023193,0.00721736
2783.26903931,0.00725209
2785.19784668,0.00731530
2787.12665405,0.00717541
2789.05546143,0.00727920
2790.98426880,0.00724034
2792.91307617,0.00721538
2794.84188354,0.00725266
2796.77069092,0.00720926
2798.69949829,0.00735299
2800.62830566,0.00727995
2802.55711304,0.00719972
2804.48592041,0.00717038
2806.41472778,0.00718950
2808.34353516,0.00727699
2810.27234253,0.00716724
2812.20114990,0.00728552
2814.12995728,0.00723164
2816.05876465,0.00708847
2817.98757202,0.00718378
2819.91637939,0.00706553
2821.84518677,0.00705040
2823.77399414,0.00710891
2825.70280151,0.00711629
2827.63160889,0.00708956
2829.56041626,0.00702847
2831.48922363,0.00712723
2833.41803101,0.00705947
2835.34683838,0.00691052
2837.27564575,0.00705043
2839.20445312,0.00706259
2841.13326050,0.00696192
2843.06206787,0.00711797
2844.99087524,0.00705082
2846.91968262,0.00693466
2848.84848999,0.00701709
2850.77729736,0.00697141
2852.70610474,0.00693391
2854.63491211,0.00691713
2856.56371948,0.00696116
2858.49252686,0.00685018
2860.42133423,0.00682115
2862.35014160,0.00690177
2864.27894897,0.00674067
2866.20775635,0.00689847
2868.13656372,0.00687477
2870.06537109,0.00665957
2871.99417847,0.00681986
2873.92298584,0.00679138
2875.85179321,0.00671622
2877.78060059,0.00677438
2879.70940796,0.00676017
2881.63821533,0.00677104
2883.56702270,0.00678971
2885.49583008,0.00675622
2887.42463745,0.00675454
2889.35344482,0.00674176
2891.28225220,0.00676713
2893.21105957,0.00676425
2895.13986694,0.00668818
2897.06867432,0.00673597
2898.99748169,0.00666531
2900.92628906,0.00664643
2902.85509644,0.00663947
2904.78390381,0.00656870
2906.71271118,0.00667038
2908.64151855,0.00664996
2910.57032593,0.00667264
2912.49913330,0.00664815
2914.42794067,0.00654827
2916.35674805,0.00652709
2918.28555542,0.00655030
2920.21436279,0.00654771
2922.14317017,0.00649495
2924.07197754,0.00665546
2926.00078491,0.00650933
2927.92959229,0.00643788
2929.85839966,0.00659074
2931.78720703,0.00643877
2933.71601440,0.00646596
2935.64482178,0.00651713
2937.57362915,0.00651834
2939.50243652,0.00644024
2941.43124390,0.00645368
2943.36005127,0.00657628
2945.28885864,0.00657390
2947.21766602,0.00656709
2949.14647339,0.00641747
2951.07528076,0.00645716
2953.00408813,0.00640621
2954.93289551,0.00646447
2956.86170288,0.00657860
2958.79051025,0.00637838
2960.71931763,0.00651467
2962.64812500,0.00644166
2964.57693237,0.00636468
2966.50573975,0.00644837
2968.43454712,0.00639425
2970.36335449,0.00645559
2972.29216187,0.00642415
2974.22096924,0.00647184
2976.14977661,0.00634978
2978.07858398,0.00632059
2980.00739136,0.00649354
2981.93619873,0.00645058
2983.86500610,0.00640326
2985.79381348,0.00638069
2987.72262085,0.00641596
2989.65142822,0.00638431
2991.58023560,0.00648893
2993.50904297,0.00646982
2995.43785034,0.00626928
2997.36665771,0.00639172
2999.29546509,0.00639451
3001.22427246,0.00636004
3003.15307983,0.00644301
3005.08188721,0.00636750
3007.01069458,0.00627779
3008.93950195,0.00627990
3010.86830933,0.00622974
3012.79711670,0.00621412
3014.72592407,0.00630056
3016.65473145,0.00631394
3018.58353882,0.00633062
3020.51234619,0.00633500
3022.44115356,0.00632485
3024.36996094,0.00627392
3026.29876831,0.00626981
3028.22757568,0.00623992
3030.15638306,0.00619877
3032.08519043,0.00629005
3034.01399780,0.00620386
3035.94280518,0.00625190
3037.87161255,0.00626853
3039.80041992,0.00622861
3041.72922729,0.00629441
3043.65803467,0.00615944
3045.58684204,0.00621254
3047.51564941,0.00614818
3049.44445679,0.00608101
3051.37326416,0.00613101
3053.30207153,0.00607532
3055.23087891,0.00616092
3057.15968628,0.00614980
3059.08849365,0.00614048
3061.01730103,0.00604013
3062.94610840,0.00605783
3064.87491577,0.00608748
3066.80372314,0.00600451
3068.73253052,0.00612288
3070.66133789,0.00599630
3072.59014526,0.00600046
3074.51895264,0.00602403
3076.44776001,0.00602604
3078.37656738,0.00617902
3080.30537476,0.00601576
3082.23418213,0.00600517
3084.16298950,0.00602303
3086.09179687,0.00597143
3088.02060425,0.00598154
3089.94941162,0.00594765
3091.87821899,0.00602354
3093.80702637,0.00602111
3095.73583374,0.00602840
3097.66464111,0.00608487
3099.59344849,0.00606301
3101.52225586,0.00590535
3103.45106323,0.00585821
3105.37987061,0.00593597
3107.30867798,0.00588189
3109.23748535,0.00591673
3111.16629272,0.00586074
3113.09510010,0.00583537
3115.02390747,0.00590210
3116.95271484,0.00577957
3118.88152222,0.00580129
3120.81032959,0.00581765
3122.73913696,0.00574077
3124.66794434,0.00576854
3126.59675171,0.00569830
3128.52555908,0.00572112
3130.45436645,0.00579954
3132.38317383,0.00569969
3134.31198120,0.00577088
3136.24078857,0.00580276
3138.16959595,0.00566927
3140.09840332,0.00570181
3142.02721069,0.00571374
3143.95601807,0.00576893
3145.88482544,0.00577148
3147.81363281,0.00565109
3149.74244019,0.00565967
3151.67124756,0.00561035
3153.60005493,0.00562151
3155.52886230,0.00569635
3157.45766968,0.00562376
3159.38647705,0.00559090
3161.31528442,0.00556543
3163.24409180,0.00554847
3165.17289917,0.00558068
3167.10170654,0.00546183
3169.03051392,0.00542962
3170.95932129,0.00556020
3172.88812866,0.00553030
3174.81693604,0.00545244
3176.74574341,0.00542078
3178.67455078,0.00549026
3180.60335815,0.00552356
3182.53216553,0.00544373
3184.46097290,0.00548166
3186.38978027,0.00545332
3188.31858765,0.00542856
3190.24739502,0.00542703
3192.17620239,0.00539796
3194.10500977,0.00540316
3196.03381714,0.00529903
3197.96262451,0.00535782
3199.89143188,0.00542231
3201.82023926,0.00529566
3203.74904663,0.00530206
3205.67785400,0.00539243
3207.60666138,0.00534065
3209.53546875,0.00525607
3211.46427612,0.00531701
3213.39308350,0.00533266
3215.32189087,0.00532607
3217.25069824,0.00530427
3219.17950562,0.00524800
3221.10831299,0.00524758
3223.03712036,0.00527814
3224.96592773,0.00532495
3226.89473511,0.00521886
3228.82354248,0.00525193
3230.75234985,0.00523555
3232.68115723,0.00514797
3234.60996460,0.00530785
3236.53877197,0.00514309
3238.46757935,0.00515231
3240.39638672,0.00532908
3242.32519409,0.00516664
3244.25400146,0.00513021
3246.18280884,0.00510908
3248.11161621,0.00516527
3250.04042358,0.00516682
3251.96923096,0.00512427
3253.89803833,0.00518589
3255.82684570,0.00509181
3257.75565308,0.00512293
3259.68446045,0.00520553
3261.61326782,0.00521193
3263.54207520,0.00511745
3265.47088257,0.00508324
3267.39968994,0.00514731
3269.32849731,0.00501616
3271.25730469,0.00511248
3273.18611206,0.00514862
3275.11491943,0.00500871
3277.04372681,0.00510455
3278.97253418,0.00509419
3280.90134155,0.00510066
3282.83014893,0.00513691
3284.75895630,0.00510127
3286.68776367,0.00508819
3288.61657104,0.00503173
3290.54537842,0.00506258
3292.47418579,0.00511376
3294.40299316,0.00512400
3296.33180054,0.00510032
3298.26060791,0.00507184
3300.18941528,0.00507343
3302.11822266,0.00505707
3304.04703003,0.00504048
3305.97583740,0.00499280
3307.90464478,0.00498784
3309.83345215,0.00504312
3311.76225952,0.00504302
3313.69106689,0.00492880
3315.61987427,0.00496676
3317.54868164,0.00510853
3319.47748901,0.00501997
3321.40629639,0.00501149
3323.33510376,0.00499501
3325.26391113,0.00498158
3327.19271851,0.00505218
3329.12152588,0.00489106
3331.05033325,0.00495531
3332.97914062,0.00504300
3334.90794800,0.00490432
3336.83675537,0.00493643
3338.76556274,0.00493807
3340.69437012,0.00492814
3342.62317749,0.00490774
3344.55198486,0.00492819
3346.48079224,0.00502380
3348.40959961,0.00495433
3350.33840698,0.00499106
3352.26721436,0.00505063
3354.19602173,0.00491648
3356.12482910,0.00488151
3358.05363647,0.00485379
3359.98244385,0.00487155
3361.91125122,0.00504887
3363.84005859,0.00490378
3365.76886597,0.00472284
3367.69767334,0.00483738
3369.62648071,0.00483079
3371.55528809,0.00482214
3373.48409546,0.00480123
3375.41290283,0.00479021
3377.34171020,0.00482901
3379.27051758,0.00473452
3381.19932495,0.00478793
3383.12813232,0.00486315
3385.05693970,0.00479437
3386.98574707,0.00476718
3388.91455444,0.00483460
3390.84336182,0.00479556
3392.77216919,0.00464468
3394.70097656,0.00468721
3396.62978394,0.00469913
3398.55859131,0.00469091
3400.48739868,0.00467584
3402.41620605,0.00460165
3404.34501343,0.00468609
3406.27382080,0.00466830
3408.20262817,0.00463277
3410.13143555,0.00466697
3412.06024292,0.00465688
3413.98905029,0.00464666
3415.91785767,0.00462557
3417.84666504,0.00467467
3419.77547241,0.00464077
3421.70427979,0.00461222
3423.63308716,0.00466095
3425.56189453,0.00464095
3427.49070190,0.00458910
3429.41950928,0.00457307
3431.34831665,0.00462531
3433.27712402,0.00457051
3435.20593140,0.00452824
3437.13473877,0.00457386
3439.06354614,0.00459769
3440.99235352,0.00463747
3442.92116089,0.00463428
3444.84996826,0.00457463
3446.77877563,0.00447783
3448.70758301,0.00458158
3450.63639038,0.00464778
3452.56519775,0.00455287
3454.49400513,0.00465677
3456.42281250,0.00464175
3458.35161987,0.00458094
3460.28042725,0.00454359
3462.20923462,0.00449119
3464.13804199,0.00461710
3466.06684937,0.00455582
3467.99565674,0.00447429
3469.92446411,0.00448102
3471.85327148,0.00445993
3473.78207886,0.00453726
3475.71088623,0.00451051
3477.63969360,0.00445987
3479.56850098,0.00446168
3481.49730835,0.00449879
3483.42611572,0.00454745
3485.35492310,0.00453138
3487.28373047,0.00452143
3489.21253784,0.00452650
3491.14134521,0.00449244
3493.07015259,0.00440226
3494.99895996,0.00444199
3496.92776733,0.00440412
3498.85657471,0.00433991
3500.78538208,0.00445466
3502.71418945,0.00437459
3504.64299683,0.00436845
3506.57180420,0.00439734
3508.50061157,0.00429790
3510.42941895,0.00438528
3512.35822632,0.00440359
3514.28703369,0.00440097
3516.21584106,0.00445230
3518.14464844,0.00443395
3520.07345581,0.00448030
3522.00226318,0.00443812
3523.93107056,0.00438522
3525.85987793,0.00442040
3527.78868530,0.00434112
3529.71749268,0.00439283
3531.64630005,0.00447719
3533.57510742,0.00445987
3535.50391479,0.00447863
3537.43272217,0.00435161
3539.36152954,0.00446975
3541.29033691,0.00455367
3543.21914429,0.00434825
3545.14795166,0.00427551
3547.07675903,0.00420311
3549.00556641,0.00435824
3550.93437378,0.00435894
3552.86318115,0.00428760
3554.79198853,0.00441605
3556.72079590,0.00435802
3558.64960327,0.00440028
3560.57841064,0.00433074
3562.50721802,0.00437917
3564.43602539,0.00437277
3566.36483276,0.00405791
3568.29364014,0.00409404
3570.22244751,0.00430237
3572.15125488,0.00442417
3574.08006226,0.00433592
3576.00886963,0.00435574
3577.93767700,0.00444124
3579.86648437,0.00442308
3581.79529175,0.00440654
3583.72409912,0.00440472
3585.65290649,0.00435454
3587.58171387,0.00385613
3589.51052124,0.00401188
3591.43932861,0.00439527
3593.36813599,0.00413362
3595.29694336,0.00422596
3597.22575073,0.00430311
3599.15455811,0.00427949
3601.08336548,0.00427500
3603.01217285,0.00433302
3604.94098022,0.00443545
3606.86978760,0.00426058
3608.79859497,0.00409307
3610.72740234,0.00416463
3612.65620972,0.00423142
3614.58501709,0.00412341
3616.51382446,0.00431371
3618.44263184,0.00397501
3620.37143921,0.00386721
3622.30024658,0.00438374
3624.22905395,0.00424962
3626.15786133,0.00441812
3628.08666870,0.00387401
3630.01547607,0.00355925
3631.94428345,0.00435064
3633.87309082,0.00429044
3635.80189819,0.00429498
3637.73070557,0.00431356
3639.65951294,0.00434426
3641.58832031,0.00441415
3643.51712769,0.00431027
3645.44593506,0.00428712
3647.37474243,0.00384785
3649.30354980,0.00362846
3651.23235718,0.00368929
3653.16116455,0.00422353
3655.08997192,0.00423693
3657.01877930,0.00388724
3658.94758667,0.00432624
3660.87639404,0.00426935
3662.80520142,0.00434232
3664.73400879,0.00436372
3666.66281616,0.00430260
3668.59162354,0.00414095
3670.52043091,0.00358124
3672.44923828,0.00414627
3674.37804565,0.00395707
3676.30685303,0.00343340
3678.23566040,0.00407245
3680.16446777,0.00421522
3682.09327515,0.00425823
3684.02208252,0.00438901
3685.95088989,0.00433327
3687.87969727,0.00385289
3689.80850464,0.00355154
3691.73731201,0.00397514
3693.66611938,0.00415387
3695.59492676,0.00423979
3697.52373413,0.00413262
3699.45254150,0.00418289
3701.38134888,0.00416004
3703.31015625,0.00397591
3705.23896362,0.00432108
3707.16777100,0.00411794
3709.09657837,0.00399752
3711.02538574,0.00380570
3712.95419312,0.00360917
3714.88300049,0.00422702
3716.81180786,0.00419634
3718.74061523,0.00420775
3720.66942261,0.00410479
3722.59822998,0.00388486
3724.52703735,0.00407604
3726.45584473,0.00379853
3728.38465210,0.00403653
3730.31345947,0.00405266
3732.24226685,0.00373463
3734.17107422,0.00370025
3736.09988159,0.00348757
3738.02868896,0.00363938
3739.95749634,0.00392785
3741.88630371,0.00407961
3743.81511108,0.00329045
3745.74391846,0.00303715
3747.67272583,0.00388004
3749.60153320,0.00343463
3751.53034058,0.00321920
3753.45914795,0.00371590
3755.38795532,0.00389748
3757.31676270,0.00400227
3759.24557007,0.00372012
3761.17437744,0.00389159
3763.10318481,0.00408429
3765.03199219,0.00378787
3766.96079956,0.00392486
3768.88960693,0.00382485
3770.81841431,0.00364460
3772.74722168,0.00397413
3774.67602905,0.00405025
3776.60483643,0.00401369
3778.53364380,0.00387893
3780.46245117,0.00374207
3782.39125854,0.00384464
3784.32006592,0.00389202
3786.24887329,0.00391354
3788.17768066,0.00386502
3790.10648804,0.00393236
3792.03529541,0.00391165
3793.96410278,0.00391907
3795.89291016,0.00366849
3797.82171753,0.00366904
3799.75052490,0.00394433
3801.67933228,0.00315923
3803.60813965,0.00357347
3805.53694702,0.00387817
3807.46575439,0.00328576
3809.39456177,0.00386923
3811.32336914,0.00380479
3813.25217651,0.00396400
3815.18098389,0.00347696
3817.10979126,0.00305204
3819.03859863,0.00386201
3820.96740601,0.00319590
3822.89621338,0.00341270
3824.82502075,0.00390100
3826.75382812,0.00359023
3828.68263550,0.00386786
3830.61144287,0.00368850
3832.54025024,0.00356558
3834.46905762,0.00359867
3836.39786499,0.00350082
3838.32667236,0.00313556
3840.25547974,0.00333774
3842.18428711,0.00372001
3844.11309448,0.00348973
3846.04190186,0.00372736
3847.97070923,0.00373873
3849.89951660,0.00375001
3851.82832397,0.00335509
3853.75713135,0.00258676
3855.68593872,0.00306543
3857.61474609,0.00359935
3859.54355347,0.00350369
3861.47236084,0.00350566
3863.40116821,0.00347204
3865.32997559,0.00336337
3867.25878296,0.00358805
3869.18759033,0.00329304
3871.11639770,0.00314729
3873.04520508,0.00361177
3874.97401245,0.00328115
3876.90281982,0.00357874
3878.83162720,0.00371527
3880.76043457,0.00321121
3882.68924194,0.00363941
3884.61804932,0.00337282
3886.54685669,0.00321424
3888.47566406,0.00373023
3890.40447144,0.00341045
3892.33327881,0.00326146
3894.26208618,0.00352728
3896.19089355,0.00359212
3898.11970093,0.00348889
3900.04850830,0.00326846
3901.97731567,0.00322299
3903.90612305,0.00316977
3905.83493042,0.00322690
3907.76373779,0.00351058
3909.69254517,0.00353433
3911.62135254,0.00352412
3913.55015991,0.00347384
3915.47896728,0.00340265
3917.40777466,0.00344452
3919.33658203,0.00335113
3921.26538940,0.00340265
3923.19419678,0.00341641
3925.12300415,0.00337061
3927.05181152,0.00343809
3928.98061890,0.00341235
3930.90942627,0.00331249
3932.83823364,0.00321960
3934.76704102,0.00334453
3936.69584839,0.00335635
3938.62465576,0.00332685
3940.55346313,0.00342146
3942.48227051,0.00330122
3944.41107788,0.00333112
3946.33988525,0.00338489
3948.26869263,0.00330427
3950.19750000,0.00334849
3952.12630737,0.00332965
3954.05511475,0.00335381
3955.98392212,0.00341615
3957.91272949,0.00337191
3959.84153687,0.00332451
3961.77034424,0.00331452
3963.69915161,0.00346196
3965.62795898,0.00342024
3967.55676636,0.00327443
3969.48557373,0.00336523
3971.41438110,0.00324681
3973.34318848,0.00326465
3975.27199585,0.00330865
3977.20080322,0.00316744
3979.12961060,0.00333816
3981.05841797,0.00331216
3982.98722534,0.00321786
3984.91603271,0.00329397
3986.84484009,0.00329941
3988.77364746,0.00323991
3990.70245483,0.00313551
3992.63126221,0.00322525
3994.56006958,0.00322491
3996.48887695,0.00322160
3998.41768433,0.00327004
4000.34649170,0.00318143
4002.27529907,0.00321620
4004.20410645,0.00316677
4006.13291382,0.00315301
4008.06172119,0.00325631
4009.99052856,0.00316175
4011.91933594,0.00313782
4013.84814331,0.00325976
4015.77695068,0.00322833
4017.70575806,0.00316968
4019.63456543,0.00314696
4021.56337280,0.00307602
4023.49218018,0.00307000
4025.42098755,0.00309172
4027.34979492,0.00311402
4029.27860229,0.00310293
4031.20740967,0.00312497
4033.13621704,0.00315777
4035.06502441,0.00313708
4036.99383179,0.00311333
4038.92263916,0.00305079
4040.85144653,0.00310221
4042.78025391,0.00310382
4044.70906128,0.00306904
4046.63786865,0.00310516
4048.56667603,0.00310534
4050.49548340,0.00314830
4052.42429077,0.00310620
4054.35309814,0.00305788
4056.28190552,0.00302078
4058.21071289,0.00302912
4060.13952026,0.00305453
4062.06832764,0.00301922
4063.99713501,0.00301749
4065.92594238,0.00299312
4067.85474976,0.00308439
4069.78355713,0.00300002
4071.71236450,0.00290822
4073.64117187,0.00303136
4075.56997925,0.00295215
4077.49878662,0.00291187
4079.42759399,0.00293228
4081.35640137,0.00295989
4083.28520874,0.00302672
4085.21401611,0.00298560
4087.14282349,0.00285737
4089.07163086,0.00282345
4091.00043823,0.00294443
4092.92924561,0.00293466
4094.85805298,0.00289460
4096.78686035,0.00290693
4098.71566772,0.00298720
4100.64447510,0.00296666
4102.57328247,0.00282029
4104.50208984,0.00293717
4106.43089722,0.00293365
4108.35970459,0.00282963
4110.28851196,0.00287983
4112.21731934,0.00288982
4114.14612671,0.00290896
4116.07493408,0.00287615
4118.00374145,0.00283842
4119.93254883,0.00279953
4121.86135620,0.00278064
4123.79016357,0.00282133
4125.71897095,0.00282572
4127.64777832,0.00283087
4129.57658569,0.00279027
4131.50539307,0.00281066
4133.43420044,0.00285940
4135.36300781,0.00281053
4137.29181519,0.00285865
4139.22062256,0.00286390
4141.14942993,0.00276499
4143.07823730,0.00274861
4145.00704468,0.00271372
4146.93585205,0.00269527
4148.86465942,0.00274046
4150.79346680,0.00277278
4152.72227417,0.00273871
4154.65108154,0.00275327
4156.57988892,0.00279473
4158.50869629,0.00270993
4160.43750366,0.00277882
4162.36631103,0.00279920
4164.29511841,0.00274185
4166.22392578,0.00281551
4168.15273315,0.00274933
4170.08154053,0.00272501
4172.01034790,0.00262009
4173.93915527,0.00260775
4175.86796265,0.00276872
4177.79677002,0.00259032
4179.72557739,0.00257348
4181.65438477,0.00271605
4183.58319214,0.00262435
4185.51199951,0.00267626
4187.44080688,0.00281175
4189.36961426,0.00269301
4191.29842163,0.00262840
4193.22722900,0.00269206
4195.15603638,0.00257560
4197.08484375,0.00259482
4199.01365112,0.00267501
4200.94245850,0.00261525
4202.87126587,0.00256159
4204.80007324,0.00252276
4206.72888062,0.00262094
4208.65768799,0.00261138
4210.58649536,0.00257345
4212.51530273,0.00261964
4214.44411011,0.00254662
4216.37291748,0.00257904
4218.30172485,0.00258004
4220.23053223,0.00254970
4222.15933960,0.00261511
4224.08814697,0.00254043
4226.01695435,0.00253982
4227.94576172,0.00256986
4229.87456909,0.00245194
4231.80337646,0.00247073
4233.73218384,0.00255891
4235.66099121,0.00259552
4237.58979858,0.00255219
4239.51860596,0.00246605
4241.44741333,0.00247105
4243.37622070,0.00244273
4245.30502808,0.00246214
4247.23383545,0.00246127
4249.16264282,0.00240994
4251.09145020,0.00247811
4253.02025757,0.00247290
4254.94906494,0.00244268
4256.87787231,0.00241939
4258.80667969,0.00240949
4260.73548706,0.00242460
4262.66429443,0.00238902
4264.59310181,0.00246766
4266.52190918,0.00246598
4268.45071655,0.00238207
4270.37952393,0.00239083
4272.30833130,0.00233055
4274.23713867,0.00233621
4276.16594604,0.00241390
4278.09475342,0.00238849
4280.02356079,0.00239985
4281.95236816,0.00244692
4283.88117554,0.00234298
4285.80998291,0.00231333
4287.73879028,0.00245774
4289.66759766,0.00240890
4291.59640503,0.00231042
4293.52521240,0.00236532
4295.45401978,0.00235592
4297.38282715,0.00230350
4299.31163452,0.00229915
4301.24044189,0.00235372
4303.16924927,0.00234789
4305.09805664,0.00227515
4307.02686401,0.00229005
4308.95567139,0.00231171
4310.88447876,0.00234599
4312.81328613,0.00232662
4314.74209351,0.00226380
4316.67090088,0.00229015
4318.59970825,0.00232221
4320.52851562,0.00233937
4322.45732300,0.00230777
4324.38613037,0.00231845
4326.31493774,0.00228002
4328.24374512,0.00220249
4330.17255249,0.00224355
4332.10135986,0.00221237
4334.03016724,0.00224327
4335.95897461,0.00226455
4337.88778198,0.00223985
4339.81658936,0.00227454
4341.74539673,0.00219912
4343.67420410,0.00222810
4345.60301147,0.00226652
4347.53181885,0.00221371
4349.46062622,0.00221042
4351.38943359,0.00219643
4353.31824097,0.00224190
4355.24704834,0.00220834
4357.17585571,0.00212241
4359.10466309,0.00217628
4361.03347046,0.00215027
4362.96227783,0.00212704
4364.89108520,0.00224813
4366.81989258,0.00219113
4368.74869995,0.00213169
4370.67750732,0.00218904
4372.60631470,0.00216742
4374.53512207,0.00222231
4376.46392944,0.00220053
4378.39273682,0.00211925
4380.32154419,0.00211341
4382.25035156,0.00206623
4384.17915894,0.00212440
4386.10796631,0.00220642
4388.03677368,0.00210977
4389.96558105,0.00204153
4391.89438843,0.00207283
4393.82319580,0.00204270
4395.75200317,0.00209057
4397.68081055,0.00210291
4399.60961792,0.00210650
4401.53842529,0.00215382
4403.46723267,0.00200401
4405.39604004,0.00206990
4407.32484741,0.00213632
4409.25365478,0.00203855
4411.18246216,0.00214768
4413.11126953,0.00211887
4415.04007690,0.00199612
4416.96888428,0.00198714
4418.89769165,0.00206145
4420.82649902,0.00210419
4422.75530640,0.00207696
4424.68411377,0.00208389
4426.61292114,0.00205485
4428.54172852,0.00203421
4430.47053589,0.00198508
4432.39934326,0.00196656
4434.32815063,0.00199147
4436.25695801,0.00199122
4438.18576538,0.00199594
4440.11457275,0.00196707
4442.04338013,0.00195333
4443.97218750,0.00194216
4445.90099487,0.00194492
4447.82980225,0.00191253
4449.75860962,0.00196673
4451.68741699,0.00202002
4453.61622437,0.00187238
4455.54503174,0.00193052
4457.47383911,0.00201085
4459.40264648,0.00192183
4461.33145386,0.00196738
4463.26026123,0.00195610
4465.18906860,0.00194264
4467.11787598,0.00199038
4469.04668335,0.00187488
4470.97549072,0.00180054
4472.90429810,0.00187831
4474.83310547,0.00197691
4476.76191284,0.00193507
4478.69072021,0.00184731
4480.61952759,0.00191791
4482.54833496,0.00185002
4484.47714233,0.00181741
4486.40594971,0.00191481
4488.33475708,0.00187755
4490.26356445,0.00186593
4492.19237183,0.00184643
4494.12117920,0.00191806
4496.04998657,0.00187380
4497.97879395,0.00179468
4499.90760132,0.00194923
4501.83640869,0.00191055
4503.76521606,0.00181870
4505.69402344,0.00176319
4507.62283081,0.00184520
4509.55163818,0.00192884
4511.48044556,0.00175256
4513.40925293,0.00174838
4515.33806030,0.00182551
4517.26686768,0.00186235
4519.19567505,0.00183091
4521.12448242,0.00178068
4523.05328979,0.00177937
4524.98209717,0.00174985
4526.91090454,0.00181270
4528.83971191,0.00177899
4530.76851929,0.00179469
4532.69732666,0.00184072
4534.62613403,0.00174402
4536.55494141,0.00172313
4538.48374878,0.00172423
4540.41255615,0.00174935
4542.34136353,0.00176025
4544.27017090,0.00176422
4546.19897827,0.00174581
4548.12778564,0.00174212
4550.05659302,0.00180609
4551.98540039,0.00174725
4553.91420776,0.00173665
4555.84301514,0.00168226
4557.77182251,0.00159080
4559.70062988,0.00173148
4561.62943726,0.00173824
4563.55824463,0.00169929
4565.48705200,0.00174894
4567.41585937,0.00170047
4569.34466675,0.00175272
4571.27347412,0.00170186
4573.20228149,0.00161416
4575.13108887,0.00167451
4577.05989624,0.00167187
4578.98870361,0.00171371
4580.91751099,0.00166853
4582.84631836,0.00166994
4584.77512573,0.00174775
4586.70393311,0.00166686
4588.63274048,0.00165522
4590.56154785,0.00163343
4592.49035522,0.00160741
4594.41916260,0.00160869
4596.34796997,0.00164818
4598.27677734,0.00168737
4600.20558472,0.00164612
4602.13439209,0.00169226
4604.06319946,0.00162804
4605.99200684,0.00160870
4607.92081421,0.00165119
4609.84962158,0.00159472
4611.77842895,0.00162811
4613.70723633,0.00159752
4615.63604370,0.00162455
4617.56485107,0.00163266
4619.49365845,0.00157029
4621.42246582,0.00164612
4623.35127319,0.00160813
4625.28008057,0.00157265
4627.20888794,0.00160735
4629.13769531,0.00160529
4631.06650269,0.00163825
4632.99531006,0.00154380
4634.92411743,0.00151460
4636.85292480,0.00157799
4638.78173218,0.00153657
4640.71053955,0.00156606
4642.63934692,0.00153951
4644.56815430,0.00154564
4646.49696167,0.00156494
4648.42576904,0.00150005
4650.35457642,0.00157626
4652.28338379,0.00154187
4654.21219116,0.00154022
4656.14099853,0.00157265
4658.06980591,0.00153343
4659.99861328,0.00157625
4661.92742065,0.00149762
4663.85622803,0.00153229
4665.78503540,0.00159593
4667.71384277,0.00157409
4669.64265015,0.00156448
4671.57145752,0.00152140
4673.50026489,0.00154348
4675.42907227,0.00148739
4677.35787964,0.00143791
4679.28668701,0.00137821
4681.21549438,0.00139908
4683.14430176,0.00150046
4685.07310913,0.00144873
4687.00191650,0.00143881
4688.93072388,0.00146088
4690.85953125,0.00148552
4692.78833862,0.00147974
4694.71714600,0.00146942
4696.64595337,0.00147108
4698.57476074,0.00146290
4700.50356812,0.00143820
4702.43237549,0.00136840
4704.36118286,0.00142758
4706.28999023,0.00144912
4708.21879761,0.00146369
4710.14760498,0.00144548
4712.07641235,0.00141452
4714.00521973,0.00150612
4715.93402710,0.00144214
4717.86283447,0.00142950
4719.79164185,0.00144924
4721.72044922,0.00143138
4723.64925659,0.00144248
4725.57806396,0.00140365
4727.50687134,0.00139668
4729.43567871,0.00136448
4731.36448608,0.00143087
4733.29329346,0.00144787
4735.22210083,0.00137163
4737.15090820,0.00135338
4739.07971558,0.00134749
4741.00852295,0.00138308
4742.93733032,0.00136006
4744.86613770,0.00133673
4746.79494507,0.00133409
4748.72375244,0.00134453
4750.65255981,0.00140750
4752.58136719,0.00146234
4754.51017456,0.00136886
4756.43898193,0.00130346
4758.36778931,0.00137585
4760.29659668,0.00127008
4762.22540405,0.00131424
4764.15421143,0.00141752
4766.08301880,0.00135738
4768.01182617,0.00141063
4769.94063354,0.00131544
4771.86944092,0.00126490
4773.79824829,0.00137639
4775.72705566,0.00133923
4777.65586304,0.00128955
4779.58467041,0.00132402
4781.51347778,0.00134700
4783.44228516,0.00132879
4785.37109253,0.00130929
4787.29989990,0.00127841
4789.22870728,0.00127391
4791.15751465,0.00129297
4793.08632202,0.00127060
4795.01512939,0.00126111
4796.94393677,0.00125389
4798.87274414,0.00124428
4800.80155151,0.00130913
4802.73035889,0.00126414
4804.65916626,0.00120134
4806.58797363,0.00127594
4808.51678101,0.00123202
4810.44558838,0.00125056
4812.37439575,0.00130201
4814.30320312,0.00129008
4816.23201050,0.00132195
4818.16081787,0.00125079
4820.08962524,0.00121412
4822.01843262,0.00122207
4823.94723999,0.00122360
4825.87604736,0.00118346
4827.80485474,0.00121317
4829.73366211,0.00126989
4831.66246948,0.00126113
4833.59127686,0.00130924
4835.52008423,0.00118959
4837.44889160,0.00124550
4839.37769897,0.00128725
4841.30650635,0.00119300
4843.23531372,0.00130643
4845.16412109,0.00122689
4847.09292847,0.00121528
4849.02173584,0.00117717
4850.95054321,0.00118553
4852.87935059,0.00129265
4854.80815796,0.00111158
4856.73696533,0.00117327
4858.66577270,0.00123967
4860.59458008,0.00118971
4862.52338745,0.00122870
4864.45219482,0.00120093
4866.38100220,0.00119417
4868.30980957,0.00115827
4870.23861694,0.00118588
4872.16742432,0.00116720
4874.09623169,0.00111467
4876.02503906,0.00114589
4877.95384644,0.00116996
4879.88265381,0.00111523
4881.81146118,0.00106559
4883.74026855,0.00119589
4885.66907593,0.00117733
4887.59788330,0.00109263
4889.52669067,0.00120689
4891.45549805,0.00120493
4893.38430542,0.00110635
4895.31311279,0.00111187
4897.24192017,0.00114669
4899.17072754,0.00116454
4901.09953491,0.00111786
4903.02834228,0.00108892
4904.95714966,0.00114609
4906.88595703,0.00109283
4908.81476440,0.00112121
4910.74357178,0.00113576
4912.67237915,0.00099043
4914.60118652,0.00102436
4916.52999390,0.00106812
4918.45880127,0.00108452
4920.38760864,0.00108132
4922.31641602,0.00105612
4924.24522339,0.00108977
4926.17403076,0.00105112
4928.10283813,0.00111993
4930.03164551,0.00116813
4931.96045288,0.00107303
4933.88926025,0.00103109
4935.81806763,0.00104518
4937.74687500,0.00109547
4939.67568237,0.00105983
4941.60448975,0.00097599
4943.53329712,0.00102879
4945.46210449,0.00110533
4947.39091187,0.00110136
4949.31971924,0.00105264
4951.24852661,0.00101861
4953.17733398,0.00107560
4955.10614136,0.00101840
4957.03494873,0.00096668
4958.96375610,0.00103740
4960.89256348,0.00103045
4962.82137085,0.00107690
4964.75017822,0.00102541
4966.67898560,0.00102208
4968.60779297,0.00108673
4970.53660034,0.00099603
4972.46540771,0.00105181
4974.39421509,0.00104936
4976.32302246,0.00102713
4978.25182983,0.00104216
4980.18063721,0.00093895
4982.10944458,0.00096189
4984.03825195,0.00098540
4985.96705933,0.00098422
4987.89586670,0.00102787
4989.82467407,0.00100105
4991.75348145,0.00098896
4993.68228882,0.00102611
4995.61109619,0.00099661
4997.53990356,0.00100923
4999.46871094,0.00103843
5001.39751831,0.00096079
5003.32632568,0.00092834
5005.25513306,0.00093282
5007.18394043,0.00097532
5009.11274780,0.00096911
5011.04155518,0.00095942
5012.97036255,0.00094143
5014.89916992,0.00090353
5016.82797729,0.00100573
5018.75678467,0.00093922
5020.68559204,0.00090165
5022.61439941,0.00096531
5024.54320679,0.00093348
5026.47201416,0.00090082
5028.40082153,0.00088930
5030.32962891,0.00099923
5032.25843628,0.00089895
5034.18724365,0.00091098
5036.11605103,0.00102450
5038.04485840,0.00090851
5039.97366577,0.00098492
5041.90247314,0.00094002
5043.83128052,0.00093913
5045.76008789,0.00100782
5047.68889526,0.00085391
5049.61770264,0.00087518
5051.54651001,0.00097123
5053.47531738,0.00096401
5055.40412476,0.00090360
5057.33293213,0.00091507
5059.26173950,0.00087958
5061.19054687,0.00088072
5063.11935425,0.00095320
5065.04816162,0.00090787
5066.97696899,0.00097176
5068.90577637,0.00091658
5070.83458374,0.00088519
5072.76339111,0.00093617
5074.69219849,0.00085843
5076.62100586,0.00092153
5078.54981323,0.00088621
5080.47862061,0.00085862
5082.40742798,0.00088783
5084.33623535,0.00082708
5086.26504272,0.00088994
5088.19385010,0.00091801
5090.12265747,0.00086898
5092.05146484,0.00081986
5093.98027222,0.00081770
5095.90907959,0.00084094
5097.83788696,0.00083193
5099.76669434,0.00082453
5101.69550171,0.00085832
5103.62430908,0.00093913
5105.55311645,0.00091628
5107.48192383,0.00084711
5109.41073120,0.00081113
5111.33953857,0.00084591
5113.26834595,0.00085933
5115.19715332,0.00083502
5117.12596069,0.00086894
5119.05476807,0.00078789
5120.98357544,0.00083299
5122.91238281,0.00085985
5124.84119019,0.00080723
5126.76999756,0.00089645
5128.69880493,0.00077748
5130.62761230,0.00077581
5132.55641968,0.00079536
5134.48522705,0.00072119
5136.41403442,0.00081280
5138.34284180,0.00072160
5140.27164917,0.00074031
5142.20045654,0.00081044
5144.12926392,0.00074943
5146.05807129,0.00080002
5147.98687866,0.00082681
5149.91568603,0.00082225
5151.84449341,0.00078658
5153.77330078,0.00079607
5155.70210815,0.00079289
5157.63091553,0.00077581
5159.55972290,0.00081150
5161.48853027,0.00078306
5163.41733765,0.00074026
5165.34614502,0.00070808
5167.27495239,0.00078094
5169.20375977,0.00086273
5171.13256714,0.00079366
5173.06137451,0.00072638
5174.99018188,0.00077432
5176.91898926,0.00078051
5178.84779663,0.00079653
5180.77660400,0.00085585
5182.70541138,0.00076859
5184.63421875,0.00079165
5186.56302612,0.00079816
5188.49183350,0.00074354
5190.42064087,0.00074894
5192.34944824,0.00069370
5194.27825562,0.00077707
5196.20706299,0.00077424
5198.13587036,0.00073826
5200.06467773,0.00072930
5201.99348511,0.00071667
5203.92229248,0.00080497
5205.85109985,0.00071283
5207.77990723,0.00067389
5209.70871460,0.00074097
5211.63752197,0.00076682
5213.56632935,0.00070273
5215.49513672,0.00064408
5217.42394409,0.00073554
5219.35275146,0.00075323
5221.28155884,0.00073543
5223.21036621,0.00068592
5225.13917358,0.00071434
5227.06798096,0.00072543
5228.99678833,0.00069774
5230.92559570,0.00074123
5232.85440308,0.00068405
5234.78321045,0.00070285
5236.71201782,0.00065944
5238.64082520,0.00067553
5240.56963257,0.00072652
5242.49843994,0.00063424
5244.42724731,0.00070690
5246.35605469,0.00074504
5248.28486206,0.00070136
5250.21366943,0.00067286
5252.14247681,0.00069156
5254.07128418,0.00068706
5256.00009155,0.00068705
5257.92889893,0.00071073
5259.85770630,0.00064018
5261.78651367,0.00067531
5263.71532104,0.00063526
5265.64412842,0.00065295
5267.57293579,0.00073467
5269.50174316,0.00064570
5271.43055054,0.00064430
5273.35935791,0.00063801
5275.28816528,0.00061207
5277.21697266,0.00061611
5279.14578003,0.00064919
5281.07458740,0.00067615
5283.00339478,0.00063644
5284.93220215,0.00061494
5286.86100952,0.00063586
5288.78981689,0.00061366
5290.71862427,0.00060700
5292.64743164,0.00072040
5294.57623901,0.00064884
5296.50504639,0.00059271
5298.43385376,0.00061814
5300.36266113,0.00059814
5302.29146851,0.00068360
5304.22027588,0.00067012
5306.14908325,0.00069136
5308.07789062,0.00066923
5310.00669800,0.00065619
5311.93550537,0.00066757
5313.86431274,0.00061711
5315.79312012,0.00068536
5317.72192749,0.00061253
5319.65073486,0.00059962
5321.57954224,0.00063346
5323.50834961,0.00064694
5325.43715698,0.00063606
5327.36596436,0.00057439
5329.29477173,0.00066598
5331.22357910,0.00060825
5333.15238647,0.00061101
5335.08119385,0.00060313
5337.01000122,0.00056437
5338.93880859,0.00067432
5340.86761597,0.00059765
5342.79642334,0.00054357
5344.72523071,0.00055086
5346.65403809,0.00056778
5348.58284546,0.00059150
5350.51165283,0.00064654
5352.44046020,0.00063099
5354.36926758,0.00058427
5356.29807495,0.00066875
5358.22688232,0.00059223
5360.15568970,0.00059325
5362.08449707,0.00059650
5364.01330444,0.00056365
5365.94211182,0.00062141
5367.87091919,0.00056678
5369.79972656,0.00056037
5371.72853394,0.00057337
5373.65734131,0.00060439
5375.58614868,0.00055756
5377.51495605,0.00061542
5379.44376343,0.00065458
5381.37257080,0.00051514
5383.30137817,0.00057136
5385.23018555,0.00052277
5387.15899292,0.00055659
5389.08780029,0.00061596
5391.01660767,0.00053406
5392.94541504,0.00060868
5394.87422241,0.00058834
5396.80302978,0.00055150
5398.73183716,0.00049641
5400.66064453,0.00052118
5402.58945190,0.00060905
5404.51825928,0.00051740
5406.44706665,0.00052508
5408.37587402,0.00055621
5410.30468140,0.00053188
5412.23348877,0.00055465
5414.16229614,0.00053420
5416.09110352,0.00053196
5418.01991089,0.00056394
5419.94871826,0.00050911
5421.87752563,0.00048916
5423.80633301,0.00054560
5425.73514038,0.00056621
5427.66394775,0.00055726
5429.59275513,0.00051973
5431.52156250,0.00056585
5433.45036987,0.00054506
5435.37917725,0.00048225
5437.30798462,0.00057671
5439.23679199,0.00060399
5441.16559936,0.00053249
5443.09440674,0.00048482
5445.02321411,0.00051321
5446.95202148,0.00050460
5448.88082886,0.00047500
5450.80963623,0.00050257
5452.73844360,0.00050215
5454.66725098,0.00052062
5456.59605835,0.00048007
5458.52486572,0.00047022
5460.45367310,0.00051091
5462.38248047,0.00048278
5464.31128784,0.00051534
5466.24009521,0.00053223
5468.16890259,0.00049373
5470.09770996,0.00052447
5472.02651733,0.00049518
5473.95532471,0.00043605
5475.88413208,0.00052812
5477.81293945,0.00048707
5479.74174683,0.00045458
5481.67055420,0.00055822
5483.59936157,0.00043820
5485.52816895,0.00046580
5487.45697632,0.00053712
5489.38578369,0.00043521
5491.31459106,0.00051504
5493.24339844,0.00047213
5495.17220581,0.00039321
5497.10101318,0.00047993
5499.02982056,0.00046165
5500.95862793,0.00045929
5502.88743530,0.00047833
5504.81624268,0.00045329
5506.74505005,0.00045037
5508.67385742,0.00045810
5510.60266479,0.00046779
5512.53147217,0.00042536
5514.46027954,0.00047927
5516.38908691,0.00052695
5518.31789429,0.00043262
5520.24670166,0.00047881
5522.17550903,0.00051252
5524.10431641,0.00047111
5526.03312378,0.00046740
5527.96193115,0.00039010
5529.89073853,0.00041574
5531.81954590,0.00049586
5533.74835327,0.00044177
5535.67716064,0.00039041
5537.60596802,0.00044860
5539.53477539,0.00047682
5541.46358276,0.00045648
5543.39239014,0.00044810
5545.32119751,0.00035967
5547.25000488,0.00036004
5549.17881226,0.00044120
5551.10761963,0.00044567
5553.03642700,0.00043454
5554.96523437,0.00042047
5556.89404175,0.00042945
5558.82284912,0.00037810
5560.75165649,0.00037757
5562.68046387,0.00047162
5564.60927124,0.00043061
5566.53807861,0.00043038
5568.46688599,0.00048904
5570.39569336,0.00044569
5572.32450073,0.00045226
5574.25330811,0.00045128
5576.18211548,0.00039476
5578.11092285,0.00037344
5580.03973022,0.00040470
5581.96853760,0.00044323
5583.89734497,0.00035802
5585.82615234,0.00037990
5587.75495972,0.00049791
5589.68376709,0.00044717
5591.61257446,0.00039849
5593.54138184,0.00038007
5595.47018921,0.00036068
5597.39899658,0.00035812
5599.32780395,0.00037500
5601.25661133,0.00038193
5603.18541870,0.00037234
5605.11422607,0.00038093
5607.04303345,0.00033421
5608.97184082,0.00035330
5610.90064819,0.00035019
5612.82945557,0.00035230
5614.75826294,0.00043974
5616.68707031,0.00042966
5618.61587769,0.00041203
5620.54468506,0.00037178
5622.47349243,0.00040731
5624.40229980,0.00043612
5626.33110718,0.00031584
5628.25991455,0.00031348
5630.18872192,0.00040364
5632.11752930,0.00046401
5634.04633667,0.00041431
5635.97514404,0.00033968
5637.90395142,0.00038298
5639.83275879,0.00040804
5641.76156616,0.00036378
5643.69037353,0.00038651
5645.61918091,0.00037934
5647.54798828,0.00032977
5649.47679565,0.00039711
5651.40560303,0.00032716
5653.33441040,0.00027611
5655.26321777,0.00038175
5657.19202515,0.00039393
5659.12083252,0.00035363
5661.04963989,0.00029002
5662.97844727,0.00031265
5664.90725464,0.00036047
5666.83606201,0.00045407
5668.76486938,0.00044265
5670.69367676,0.00031794
5672.62248413,0.00036956
5674.55129150,0.00034953
5676.48009888,0.00038149
5678.40890625,0.00038426
5680.33771362,0.00034720
5682.26652100,0.00038650
5684.19532837,0.00030023
5686.12413574,0.00039997
5688.05294311,0.00039136
5689.98175049,0.00025002
5691.91055786,0.00033994
5693.83936523,0.00037838
5695.76817261,0.00035558
5697.69697998,0.00039549
5699.62578735,0.00043482
5701.55459473,0.00040238
5703.48340210,0.00039310
5705.41220947,0.00033752
5707.34101685,0.00034950
5709.26982422,0.00043537
5711.19863159,0.00032882
5713.12743896,0.00029390
5715.05624634,0.00031912
5716.98505371,0.00033063
5718.91386108,0.00033108
5720.84266846,0.00029358
5722.77147583,0.00031953
5724.70028320,0.00033677
5726.62909058,0.00037335
5728.55789795,0.00034993
5730.48670532,0.00036199
5732.41551270,0.00036315
5734.34432007,0.00029579
5736.27312744,0.00033698
5738.20193481,0.00029548
5740.13074219,0.00024339
5742.05954956,0.00025567
5743.98835693,0.00031917
5745.91716431,0.00034796
5747.84597168,0.00025328
5749.77477905,0.00029324
5751.70358643,0.00033790
5753.63239380,0.00030740
5755.56120117,0.00032209
5757.49000854,0.00031829
5759.41881592,0.00031437
5761.34762329,0.00034543
5763.27643066,0.00032337
5765.20523804,0.00026247
5767.13404541,0.00031873
5769.06285278,0.00032500
5770.99166016,0.00029583
5772.92046753,0.00035083
5774.84927490,0.00034486
5776.77808228,0.00031602
5778.70688965,0.00029806
5780.63569702,0.00029065
5782.56450439,0.00025195
5784.49331177,0.00023407
5786.42211914,0.00027814
5788.35092651,0.00033001
5790.27973389,0.00033431
5792.20854126,0.00024586
5794.13734863,0.00027334
5796.06615601,0.00029196
5797.99496338,0.00029842
5799.92377075,0.00035676
5801.85257812,0.00030027
5803.78138550,0.00032101
5805.71019287,0.00024918
5807.63900024,0.00022667
5809.56780762,0.00032713
5811.49661499,0.00027422
5813.42542236,0.00033378
5815.35422974,0.00030141
5817.28303711,0.00025872
5819.21184448,0.00034613
5821.14065186,0.00034341
5823.06945923,0.00034926
5824.99826660,0.00026205
5826.92707397,0.00028539
5828.85588135,0.00035246
5830.78468872,0.00028417
5832.71349609,0.00032435
5834.64230347,0.00035011
5836.57111084,0.00027150
5838.49991821,0.00021413
5840.42872559,0.00023809
5842.35753296,0.00025347
5844.28634033,0.00030845
5846.21514770,0.00027991
5848.14395508,0.00022582
5850.07276245,0.00037180
5852.00156982,0.00028786
5853.93037720,0.00018968
5855.85918457,0.00028987
5857.78799194,0.00022269
5859.71679932,0.00016128
5861.64560669,0.00021251
5863.57441406,0.00030393
5865.50322144,0.00032797
5867.43202881,0.00023235
5869.36083618,0.00018454
5871.28964355,0.00024554
5873.21845093,0.00029885
5875.14725830,0.00029422
5877.07606567,0.00025807
5879.00487305,0.00022506
5880.93368042,0.00022679
5882.86248779,0.00019604
5884.79129517,0.00021174
5886.72010254,0.00026562
5888.64890991,0.00027308
5890.57771728,0.00027631
5892.50652466,0.00023600
5894.43533203,0.00022963
5896.36413940,0.00028761
5898.29294678,0.00031710
5900.22175415,0.00028115
5902.15056152,0.00022305
5904.07936890,0.00020238
5906.00817627,0.00023938
5907.93698364,0.00028542
5909.86579102,0.00022703
5911.79459839,0.00016159
5913.72340576,0.00020406
5915.65221313,0.00026823
5917.58102051,0.00026855
5919.50982788,0.00025515
5921.43863525,0.00021313
5923.36744263,0.00016423
5925.29625000,0.00024154
5927.22505737,0.00030026
5929.15386475,0.00028010
5931.08267212,0.00028156
5933.01147949,0.00028340
5934.94028686,0.00023368
5936.86909424,0.00025039
5938.79790161,0.00030200
5940.72670898,0.00021470
5942.65551636,0.00021505
5944.58432373,0.00024067
5946.51313110,0.00023371
5948.44193848,0.00024915
5950.37074585,0.00019909
5952.29955322,0.00019597
5954.22836060,0.00018741
5956.15716797,0.00027141
5958.08597534,0.00022299
5960.01478271,0.00013714
5961.94359009,0.00026171
5963.87239746,0.00023999
5965.80120483,0.00031803
5967.73001221,0.00029010
5969.65881958,0.00019116
5971.58762695,0.00028455
5973.51643433,0.00020316
5975.44524170,0.00021834
5977.37404907,0.00023919
5979.30285645,0.00022669
5981.23166382,0.00024046
5983.16047119,0.00011047
5985.08927856,0.00017269
5987.01808594,0.00021089
5988.94689331,0.00017674
5990.87570068,0.00026595
5992.80450806,0.00021552
5994.73331543,0.00022880
5996.66212280,0.00026714
5998.59093018,0.00015639
6000.51973755,0.00019665
