399.26312622,0.00024000
401.19193359,0.00005581
403.12074097,0.00003936
405.04954834,0.00008468
406.97835571,0.00005612
408.90716309,-0.00005617
410.83597046,-0.00002043
412.76477783,0.00054649
414.69358521,0.00032654
416.62239258,-0.00014704
418.55119995,0.00017014
420.48000732,0.00003902
422.40881470,0.00046293
424.33762207,0.00061209
426.26642944,0.00068903
428.19523682,0.00079391
430.12404419,0.00039494
432.05285156,0.00077520
433.98165894,0.00052883
435.91046631,0.00074121
437.83927368,0.00085113
439.76808105,0.00025877
441.69688843,0.00058574
443.62569580,0.00064826
445.55450317,0.00065760
447.48331055,0.00041777
449.41211792,0.00018048
451.34092529,0.00030657
453.26973267,0.00039284
455.19854004,0.00031008
457.12734741,0.00003145
459.05615479,0.00023984
460.98496216,0.00036771
462.91376953,0.00027253
464.84257690,-0.00009294
466.77138428,-0.00001017
468.70019165,0.00050583
470.62899902,0.00050884
472.55780640,0.00060757
474.48661377,0.00027896
476.41542114,-0.00004705
478.34422852,0.00005337
480.27303589,-0.00011554
482.20184326,-0.00019584
484.13065063,0.00016854
486.05945801,0.00009542
487.98826538,-0.00030011
489.91707275,0.00023861
491.84588013,0.00019255
493.77468750,-0.00008561
495.70349487,0.00029293
497.63230225,0.00026492
499.56110962,0.00023840
501.48991699,0.00021447
503.41872437,0.00013983
505.34753174,0.00019439
507.27633911,0.00006833
509.20514648,0.00014193
511.13395386,0.00003747
513.06276123,-0.00006997
514.99156860,0.00038308
516.92037598,0.00039208
518.84918335,0.00043320
520.77799072,0.00023784
522.70679810,0.00003418
524.63560547,0.00069836
526.56441284,0.00043058
528.49322021,-0.00021983
530.42202759,0.00013332
532.35083496,0.00046205
534.27964233,0.00002858
536.20844971,-0.00007514
538.13725708,0.00050673
540.06606445,0.00032771
541.99487183,0.00004526
543.92367920,0.00006992
545.85248657,0.00024575
547.78129395,0.00025821
549.71010132,-0.00012578
551.63890869,0.00004949
553.56771606,0.00031889
555.49652344,0.00050329
557.42533081,0.00030011
559.35413818,-0.00015155
561.28294556,-0.00025698
563.21175293,0.00001368
565.14056030,0.00022267
567.06936768,0.00000063
568.99817505,0.00042481
570.92698242,0.00033486
572.85578979,0.00004608
574.78459717,0.00062836
576.71340454,0.00048607
578.64221191,0.00000129
580.57101929,0.00028206
582.49982666,0.00033182
584.42863403,-0.00022477
586.35744141,0.00007914
588.28624878,0.00007032
590.21505615,-0.00003173
592.14386353,0.00016713
594.07267090,-0.00024647
596.00147827,-0.00012927
597.93028564,-0.00016103
599.85909302,0.00019474
601.78790039,0.00038733
603.71670776,-0.00008182
605.64551514,0.00020230
607.57432251,0.00011624
609.50312988,0.00018833
611.43193726,0.00041410
613.36074463,0.00012037
615.28955200,0.00002977
617.21835938,0.00009785
619.14716675,0.00022919
621.07597412,0.00016917
623.00478149,-0.00002775
624.93358887,0.00027842
626.86239624,0.00034882
628.79120361,0.00036344
630.72001099,0.00049505
632.64881836,0.00017532
634.57762573,0.00040438
636.50643311,0.00067418
638.43524048,0.00033040
640.36404785,0.00024894
642.29285522,0.00046057
644.22166260,0.00063971
646.15046997,0.00047305
648.07927734,0.00066390
650.00808472,0.00087499
651.93689209,0.00089453
653.86569946,0.00106965
655.79450684,0.00063333
657.72331421,0.00089610
659.65212158,0.00096406
661.58092896,0.00070992
663.50973633,0.00133827
665.43854370,0.00100167
667.36735107,0.00092611
669.29615845,0.00113434
671.22496582,0.00095736
673.15377319,0.00111193
675.08258057,0.00106384
677.01138794,0.00135717
678.94019531,0.00114375
680.86900269,0.00077578
682.79781006,0.00110893
684.72661743,0.00099242
686.65542480,0.00068804
688.58423218,0.00095769
690.51303955,0.00123794
692.44184692,0.00126553
694.37065430,0.00154362
696.29946167,0.00143297
698.22826904,0.00137958
700.15707642,0.00178771
702.08588379,0.00174014
704.01469116,0.00147395
705.94349854,0.00149684
707.87230591,0.00127682
709.80111328,0.00077529
711.72992065,0.00088924
713.65872803,0.00052554
715.58753540,0.00016271
717.51634277,0.00015398
719.44515015,-0.00027534
721.37395752,0.00017573
723.30276489,0.00028136
725.23157227,0.00016906
727.16037964,0.00038209
729.08918701,0.00010152
731.01799438,0.00016285
732.94680176,0.00028435
734.87560913,0.00015126
736.80441650,-0.00000926
738.73322388,0.00012112
740.66203125,0.00006382
742.59083862,0.00022793
744.51964600,0.00018732
746.44845337,0.00009652
748.37726074,0.00019173
750.30606812,0.00010372
752.23487549,0.00019879
754.16368286,0.00013230
756.09249023,0.00041407
758.02129761,0.00063771
759.95010498,0.00023020
761.87891235,0.00020850
763.80771973,0.00019136
765.73652710,0.00005609
767.66533447,0.00015955
769.59414185,0.00007497
771.52294922,0.00011842
773.45175659,0.00029384
775.38056396,0.00044701
777.30937134,0.00014107
779.23817871,-0.00001029
781.16698608,0.00006403
783.09579346,0.00032098
785.02460083,0.00038753
786.95340820,0.00029365
788.88221558,0.00028599
790.81102295,-0.00009951
792.73983032,0.00028062
794.66863770,0.00025166
796.59744507,0.00031179
798.52625244,0.00032295
800.45505981,0.00000143
802.38386719,0.00044137
804.31267456,0.00046049
806.24148193,0.00032336
808.17028931,0.00014941
810.09909668,0.00016511
812.02790405,0.00034852
813.95671143,0.00037888
815.88551880,0.00028961
817.81432617,-0.00004144
819.74313354,0.00031587
821.67194092,0.00049563
823.60074829,0.00027366
825.52955566,0.00035499
827.45836304,0.00059978
829.38717041,0.00060924
831.31597778,0.00042713
833.24478516,0.00055344
835.17359253,0.00050365
837.10239990,0.00047911
839.03120728,0.00040470
840.96001465,0.00034625
842.88882202,0.00041923
844.81762939,0.00036863
846.74643677,0.00046487
848.67524414,0.00047155
850.60405151,0.00036021
852.53285889,0.00025806
854.46166626,0.00045953
856.39047363,0.00036846
858.31928101,0.00034068
860.24808838,0.00045997
862.17689575,0.00019510
864.10570313,0.00034413
866.03451050,0.00007982
867.96331787,0.00019345
869.89212524,0.00046033
871.82093262,0.00000424
873.74973999,0.00014418
875.67854736,0.00029390
877.60735474,0.00033492
879.53616211,0.00016346
881.46496948,0.00025731
883.39377686,0.00049324
885.32258423,0.00014021
887.25139160,0.00025410
889.18019897,0.00024804
891.10900635,0.00009621
893.03781372,0.00015555
894.96662109,0.00018930
896.89542847,0.00030954
898.82423584,0.00017059
900.75304321,0.00028128
902.68185059,0.00043590
904.61065796,0.00016753
906.53946533,0.00019549
908.46827271,0.00038199
910.39708008,0.00049542
912.32588745,0.00050491
914.25469482,0.00010059
916.18350220,0.00025837
918.11230957,0.00042233
920.04111694,0.00015698
921.96992432,0.00055211
923.89873169,0.00040314
925.82753906,0.00027500
927.75634644,0.00071779
929.68515381,0.00069240
931.61396118,0.00060796
933.54276855,0.00049397
935.47157593,0.00061559
937.40038330,0.00077018
939.32919067,0.00071538
941.25799805,0.00052032
943.18680542,0.00054479
945.11561279,0.00083537
947.04442017,0.00075321
948.97322754,0.00071990
950.90203491,0.00067350
952.83084229,0.00072554
954.75964966,0.00065431
956.68845703,0.00055277
958.61726440,0.00077020
960.54607178,0.00071724
962.47487915,0.00079238
964.40368652,0.00079250
966.33249390,0.00075131
968.26130127,0.00077632
970.19010864,0.00079467
972.11891602,0.00092817
974.04772339,0.00087389
975.97653076,0.00101423
977.90533813,0.00102282
979.83414551,0.00092959
981.76295288,0.00115123
983.69176025,0.00135248
985.62056763,0.00140167
987.54937500,0.00150947
989.47818237,0.00178261
991.40698975,0.00190027
993.33579712,0.00202941
995.26460449,0.00234039
997.19341187,0.00252791
999.12221924,0.00247205
1001.05102661,0.00269954
1002.97983398,0.00298713
1004.90864136,0.00320692
1006.83744873,0.00365660
1008.76625610,0.00365153
1010.69506348,0.00391725
1012.62387085,0.00410315
1014.55267822,0.00396740
1016.48148560,0.00452691
1018.41029297,0.00463916
1020.33910034,0.00480486
1022.26790771,0.00532782
1024.19671509,0.00532084
1026.12552246,0.00541636
1028.05432983,0.00560385
1029.98313721,0.00576715
1031.91194458,0.00613157
1033.84075195,0.00631577
1035.76955933,0.00608357
1037.69836670,0.00606237
1039.62717407,0.00628316
1041.55598145,0.00649974
1043.48478882,0.00655993
1045.41359619,0.00622025
1047.34240356,0.00621178
1049.27121094,0.00624209
1051.20001831,0.00595417
1053.12882568,0.00578555
1055.05763306,0.00571999
1056.98644043,0.00573625
1058.91524780,0.00551589
1060.84405518,0.00537660
1062.77286255,0.00528034
1064.70166992,0.00503962
1066.63047729,0.00501468
1068.55928467,0.00475416
1070.48809204,0.00451600
1072.41689941,0.00433833
1074.34570679,0.00395234
1076.27451416,0.00405554
1078.20332153,0.00400521
1080.13212891,0.00345696
1082.06093628,0.00330514
1083.98974365,0.00320864
1085.91855103,0.00304367
1087.84735840,0.00303728
1089.77616577,0.00294550
1091.70497314,0.00287919
1093.63378052,0.00266975
1095.56258789,0.00254451
1097.49139526,0.00273237
1099.42020264,0.00257205
1101.34901001,0.00231359
1103.27781738,0.00240423
1105.20662476,0.00233553
1107.13543213,0.00224133
1109.06423950,0.00227264
1110.99304687,0.00228332
1112.92185425,0.00239243
1114.85066162,0.00225950
1116.77946899,0.00223433
1118.70827637,0.00220746
1120.63708374,0.00219938
1122.56589111,0.00255107
1124.49469849,0.00235503
1126.42350586,0.00235025
1128.35231323,0.00249197
1130.28112061,0.00241380
1132.20992798,0.00261258
1134.13873535,0.00268715
1136.06754272,0.00289558
1137.99635010,0.00279453
1139.92515747,0.00298697
1141.85396484,0.00331133
1143.78277222,0.00339677
1145.71157959,0.00384777
1147.64038696,0.00364107
1149.56919434,0.00386452
1151.49800171,0.00429335
1153.42680908,0.00427574
1155.35561646,0.00458149
1157.28442383,0.00467966
1159.21323120,0.00501244
1161.14203857,0.00516514
1163.07084595,0.00511947
1164.99965332,0.00524511
1166.92846069,0.00551280
1168.85726807,0.00594296
1170.78607544,0.00602094
1172.71488281,0.00631590
1174.64369019,0.00657122
1176.57249756,0.00673579
1178.50130493,0.00687342
1180.43011230,0.00702920
1182.35891968,0.00783144
1184.28772705,0.00814912
1186.21653442,0.00814564
1188.14534180,0.00869893
1190.07414917,0.00924667
1192.00295654,0.00970829
1193.93176392,0.01006559
1195.86057129,0.01029427
1197.78937866,0.01101273
1199.71818604,0.01181503
1201.64699341,0.01196845
1203.57580078,0.01241829
1205.50460815,0.01294931
1207.43341553,0.01325995
1209.36222290,0.01398805
1211.29103027,0.01434416
1213.21983765,0.01465210
1215.14864502,0.01517339
1217.07745239,0.01537212
1219.00625977,0.01585498
1220.93506714,0.01605573
1222.86387451,0.01597100
1224.79268188,0.01637719
1226.72148926,0.01644262
1228.65029663,0.01641094
1230.57910400,0.01657007
1232.50791138,0.01657200
1234.43671875,0.01670454
1236.36552612,0.01658013
1238.29433350,0.01648352
1240.22314087,0.01660537
1242.15194824,0.01655209
1244.08075562,0.01653281
1246.00956299,0.01651865
1247.93837036,0.01636578
1249.86717773,0.01620002
1251.79598511,0.01621235
1253.72479248,0.01595107
1255.65359985,0.01578505
1257.58240723,0.01582404
1259.51121460,0.01541964
1261.44002197,0.01527153
1263.36882935,0.01519551
1265.29763672,0.01501771
1267.22644409,0.01484489
1269.15525146,0.01447894
1271.08405884,0.01437270
1273.01286621,0.01418479
1274.94167358,0.01385991
1276.87048096,0.01357902
1278.79928833,0.01330486
1280.72809570,0.01314727
1282.65690308,0.01291491
1284.58571045,0.01265014
1286.51451782,0.01243467
1288.44332520,0.01219333
1290.37213257,0.01201945
1292.30093994,0.01198335
1294.22974731,0.01193487
1296.15855469,0.01192715
1298.08736206,0.01180780
1300.01616943,0.01182331
1301.94497681,0.01204844
1303.87378418,0.01212337
1305.80259155,0.01245002
1307.73139893,0.01259192
1309.66020630,0.01262182
1311.58901367,0.01289988
1313.51782104,0.01317427
1315.44662842,0.01351636
1317.37543579,0.01364472
1319.30424316,0.01406152
1321.23305054,0.01463450
1323.16185791,0.01499677
1325.09066528,0.01554329
1327.01947266,0.01606150
1328.94828003,0.01638691
1330.87708740,0.01678618
1332.80589478,0.01730248
1334.73470215,0.01739174
1336.66350952,0.01758987
1338.59231689,0.01780986
1340.52112427,0.01792745
1342.44993164,0.01844225
1344.37873901,0.01850323
1346.30754639,0.01857040
1348.23635376,0.01849535
1350.16516113,0.01839060
1352.09396851,0.01860552
1354.02277588,0.01813984
1355.95158325,0.01805666
1357.88039062,0.01825201
1359.80919800,0.01781931
1361.73800537,0.01683817
1363.66681274,0.01670423
1365.59562012,0.01759510
1367.52442749,0.01712874
1369.45323486,0.01706083
1371.38204224,0.01733955
1373.31084961,0.01652033
1375.23965698,0.01662869
1377.16846436,0.01702780
1379.09727173,0.01706892
1381.02607910,0.01707566
1382.95488647,0.01728022
1384.88369385,0.01713432
1386.81250122,0.01641859
1388.74130859,0.01683981
1390.67011597,0.01779231
1392.59892334,0.01748003
1394.52773071,0.01644328
1396.45653809,0.01706404
1398.38534546,0.01722404
1400.31415283,0.01708250
1402.24296021,0.01852847
1404.17176758,0.01766305
1406.10057495,0.01759292
1408.02938232,0.01841109
1409.95818970,0.01770472
1411.88699707,0.01788865
1413.81580444,0.01754147
1415.74461182,0.01778833
1417.67341919,0.01603754
1419.60222656,0.01452901
1421.53103394,0.01653751
1423.45984131,0.01599473
1425.38864868,0.01563840
1427.31745605,0.01589615
1429.24626343,0.01459729
1431.17507080,0.01436229
1433.10387817,0.01455409
1435.03268555,0.01320583
1436.96149292,0.01153575
1438.89030029,0.01273609
1440.81910767,0.01309462
1442.74791504,0.01245443
1444.67672241,0.01272584
1446.60552979,0.01171575
1448.53433716,0.01198008
1450.46314453,0.01245960
1452.39195190,0.01264872
1454.32075928,0.01295483
1456.24956665,0.01092664
1458.17837402,0.01149260
1460.10718140,0.01509183
1462.03598877,0.01602289
1463.96479614,0.01601918
1465.89360352,0.01667089
1467.82241089,0.01886185
1469.75121826,0.02045185
1471.68002563,0.01831240
1473.60883301,0.01910113
1475.53764038,0.02170087
1477.46644775,0.02328052
1479.39525513,0.02561770
1481.32406250,0.02606899
1483.25286987,0.02747258
1485.18167725,0.02846976
1487.11048462,0.02822261
1489.03929199,0.02790000
1490.96809937,0.02833297
1492.89690674,0.03284381
1494.82571411,0.03182950
1496.75452148,0.02889905
1498.68332886,0.03251785
1500.61213623,0.03353073
1502.54094360,0.03601081
1504.46975098,0.03403138
1506.39855835,0.02520065
1508.32736572,0.03054870
1510.25617310,0.03561852
1512.18498047,0.03449993
1514.11378784,0.03730663
1516.04259521,0.03384013
1517.97140259,0.03518374
1519.90020996,0.03391258
1521.82901733,0.02972069
1523.75782471,0.03622299
1525.68663208,0.03552282
1527.61543945,0.03560288
1529.54424683,0.03917558
1531.47305420,0.03764754
1533.40186157,0.03471718
1535.33066895,0.03664096
1537.25947632,0.03911810
1539.18828369,0.02843966
1541.11709106,0.02992396
1543.04589844,0.03554061
1544.97470581,0.03402785
1546.90351318,0.04009432
1548.83232056,0.03754310
1550.76112793,0.03873418
1552.68993530,0.03842941
1554.61874268,0.03515320
1556.54755005,0.03756983
1558.47635742,0.02695842
1560.40516479,0.02912528
1562.33397217,0.04064828
1564.26277954,0.03851683
1566.19158691,0.03957517
1568.12039429,0.03923484
1570.04920166,0.03496486
1571.97800903,0.04008728
1573.90681641,0.04049506
1575.83562378,0.03239712
1577.76443115,0.03663327
1579.69323853,0.04126922
1581.62204590,0.03965652
1583.55085327,0.04064707
1585.47966064,0.04008673
1587.40846802,0.04029689
1589.33727539,0.03999840
1591.26608276,0.04005448
1593.19489014,0.04000269
1595.12369751,0.03979125
1597.05250488,0.04027013
1598.98131226,0.04011206
1600.91011963,0.04043549
1602.83892700,0.03949560
1604.76773437,0.04034593
1606.69654175,0.03989001
1608.62534912,0.03990874
1610.55415649,0.03980509
1612.48296387,0.04003624
1614.41177124,0.04052958
1616.34057861,0.03343191
1618.26938599,0.03654936
1620.19819336,0.04182357
1622.12700073,0.03708277
1624.05580811,0.03755115
1625.98461548,0.03934592
1627.91342285,0.03928214
1629.84223022,0.03909082
1631.77103760,0.04171882
1633.69984497,0.03850902
1635.62865234,0.03208317
1637.55745972,0.03722244
1639.48626709,0.04080708
1641.41507446,0.03986271
1643.34388184,0.04078541
1645.27268921,0.03709287
1647.20149658,0.03293562
1649.13030396,0.04046134
1651.05911133,0.03834787
1652.98791870,0.02532583
1654.91672607,0.03393687
1656.84553345,0.04201774
1658.77434082,0.04028753
1660.70314819,0.04153454
1662.63195557,0.03794085
1664.56076294,0.03983292
1666.48957031,0.04270122
1668.41837769,0.03744493
1670.34718506,0.03649171
1672.27599243,0.04134414
1674.20479980,0.03820544
1676.13360718,0.03674756
1678.06241455,0.04199301
1679.99122192,0.04050102
1681.92002930,0.04018068
1683.84883667,0.03292564
1685.77764404,0.03283982
1687.70645142,0.04429246
1689.63525879,0.03858677
1691.56406616,0.04245094
1693.49287354,0.04303606
1695.42168091,0.03198559
1697.35048828,0.03918960
1699.27929565,0.03442795
1701.20810303,0.03135243
1703.13691040,0.04217581
1705.06571777,0.03870888
1706.99452515,0.03901414
1708.92333252,0.04224930
1710.85213989,0.04074887
1712.78094727,0.04130850
1714.70975464,0.03843968
1716.63856201,0.03470826
1718.56736938,0.03425725
1720.49617676,0.04056747
1722.42498413,0.04176856
1724.35379150,0.03911487
1726.28259888,0.04254944
1728.21140625,0.03911888
1730.14021362,0.03980978
1732.06902100,0.03866558
1733.99782837,0.02970812
1735.92663574,0.03692691
1737.85544312,0.04051032
1739.78425049,0.03618451
1741.71305786,0.03932920
1743.64186523,0.03991000
1745.57067261,0.03993719
1747.49947998,0.04023639
1749.42828735,0.03865648
1751.35709473,0.03716457
1753.28590210,0.04109688
1755.21470947,0.04271970
1757.14351685,0.03919152
1759.07232422,0.04302110
1761.00113159,0.04037023
1762.92993896,0.03929597
1764.85874634,0.04476032
1766.78755371,0.04036341
1768.71636108,0.04076695
1770.64516846,0.04047313
1772.57397583,0.03660336
1774.50278320,0.04077211
1776.43159058,0.04306784
1778.36039795,0.04230183
1780.28920532,0.04181585
1782.21801270,0.04228816
1784.14682007,0.04215144
1786.07562744,0.04162634
1788.00443481,0.04363732
1789.93324219,0.04243068
1791.86204956,0.03878148
1793.79085693,0.04027139
1795.71966431,0.04306925
1797.64847168,0.04265988
1799.57727905,0.04198285
1801.50608643,0.04131702
1803.43489380,0.04263312
1805.36370117,0.04347958
1807.29250854,0.04298145
1809.22131592,0.04317730
1811.15012329,0.04215246
1813.07893066,0.04344069
1815.00773804,0.04351217
1816.93654541,0.04309673
1818.86535278,0.04341634
1820.79416016,0.04338059
1822.72296753,0.04411707
1824.65177490,0.04118525
1826.58058228,0.04271832
1828.50938965,0.04270468
1830.43819702,0.04022715
1832.36700439,0.04386851
1834.29581177,0.04358526
1836.22461914,0.04358340
1838.15342651,0.04337617
1840.08223389,0.04364855
1842.01104126,0.04364302
1843.93984863,0.03899786
1845.86865601,0.04159747
1847.79746338,0.04372534
1849.72627075,0.04288537
1851.65507812,0.04405913
1853.58388550,0.04322062
1855.51269287,0.04364000
1857.44150024,0.04347878
1859.37030762,0.04336297
1861.29911499,0.04358259
1863.22792236,0.04319244
1865.15672974,0.04366710
1867.08553711,0.04222463
1869.01434448,0.04056989
1870.94315186,0.04219403
1872.87195923,0.04378119
1874.80076660,0.04312861
1876.72957397,0.04330356
1878.65838135,0.04306767
1880.58718872,0.04303572
1882.51599609,0.04336886
1884.44480347,0.04269298
1886.37361084,0.04347002
1888.30241821,0.04246162
1890.23122559,0.04172137
1892.16003296,0.04315374
1894.08884033,0.04253060
1896.01764771,0.04248822
1897.94645508,0.04307646
1899.87526245,0.04294603
1901.80406982,0.04283790
1903.73287720,0.04262231
1905.66168457,0.04293882
1907.59049194,0.04239905
1909.51929932,0.04220900
1911.44810669,0.04257545
1913.37691406,0.04254695
1915.30572144,0.04306622
1917.23452881,0.04146836
1919.16333618,0.04133130
1921.09214355,0.04284834
1923.02095093,0.04170407
1924.94975830,0.04232498
1926.87856567,0.04272658
1928.80737305,0.04242326
1930.73618042,0.04284738
1932.66498779,0.04224665
1934.59379517,0.04272561
1936.52260254,0.04237777
1938.45140991,0.04256514
1940.38021729,0.04262613
1942.30902466,0.04125270
1944.23783203,0.04196490
1946.16663940,0.04246449
1948.09544678,0.04262825
1950.02425415,0.04288322
1951.95306152,0.04253787
1953.88186890,0.04252372
1955.81067627,0.04248993
1957.73948364,0.04257631
1959.66829102,0.04256094
1961.59709839,0.04247467
1963.52590576,0.04262855
1965.45471313,0.04249743
1967.38352051,0.04195622
1969.31232788,0.04239159
1971.24113525,0.04259057
1973.16994263,0.04235444
1975.09875000,0.04270929
1977.02755737,0.04236145
1978.95636475,0.04248109
1980.88517212,0.04244426
1982.81397949,0.04238668
1984.74278687,0.04265676
1986.67159424,0.04227703
1988.60040161,0.04236288
1990.52920898,0.04185324
1992.45801636,0.04159267
1994.38682373,0.04218881
1996.31563110,0.04228978
1998.24443848,0.04216309
2000.17324585,0.04217511
2002.10205322,0.04214918
2004.03086060,0.04194161
2005.95966797,0.04197666
2007.88847534,0.04179458
2009.81728271,0.04182833
2011.74609009,0.04179177
2013.67489746,0.04169644
2015.60370483,0.04173934
2017.53251221,0.04129787
2019.46131958,0.04150188
2021.39012695,0.04149804
2023.31893433,0.04133131
2025.24774170,0.04140697
2027.17654907,0.04133545
2029.10535645,0.04133333
2031.03416382,0.04099114
2032.96297119,0.04104854
2034.89177856,0.04107057
2036.82058594,0.04111961
2038.74939331,0.04110055
2040.67820068,0.04075409
2042.60700806,0.04083478
2044.53581543,0.04080195
2046.46462280,0.04078069
2048.39343018,0.04073443
2050.32223755,0.04069719
2052.25104492,0.04059139
2054.17985229,0.04047363
2056.10865967,0.04057251
2058.03746704,0.04042393
2059.96627441,0.04032744
2061.89508179,0.04031510
2063.82388916,0.04022795
2065.75269653,0.04002561
2067.68150391,0.04009747
2069.61031128,0.04010392
2071.53911865,0.03993502
2073.46792603,0.04007257
2075.39673340,0.03996571
2077.32554077,0.03991550
2079.25434814,0.03984699
2081.18315552,0.03978182
2083.11196289,0.03977777
2085.04077026,0.03957228
2086.96957764,0.03964396
2088.89838501,0.03970998
2090.82719238,0.03953035
2092.75599976,0.03945754
2094.68480713,0.03951364
2096.61361450,0.03938887
2098.54242187,0.03939722
2100.47122925,0.03932606
2102.40003662,0.03924550
2104.32884399,0.03931747
2106.25765137,0.03917315
2108.18645874,0.03934755
2110.11526611,0.03918295
2112.04407349,0.03904413
2113.97288086,0.03913156
2115.90168823,0.03901951
2117.83049561,0.03924092
2119.75930298,0.03909383
2121.68811035,0.03905147
2123.61691772,0.03902464
2125.54572510,0.03884045
2127.47453247,0.03893632
2129.40333984,0.03891214
2131.33214722,0.03885286
2133.26095459,0.03872741
2135.18976196,0.03884669
2137.11856934,0.03872561
2139.04737671,0.03859056
2140.97618408,0.03872033
2142.90499146,0.03872702
2144.83379883,0.03876542
2146.76260620,0.03848814
2148.69141357,0.03862439
2150.62022095,0.03867667
2152.54902832,0.03851447
2154.47783569,0.03864856
2156.40664307,0.03835690
2158.33545044,0.03836178
2160.26425781,0.03842676
2162.19306519,0.03836985
2164.12187256,0.03845312
2166.05067993,0.03838222
2167.97948730,0.03842130
2169.90829468,0.03826097
2171.83710205,0.03824809
2173.76590942,0.03838268
2175.69471680,0.03821745
2177.62352417,0.03821028
2179.55233154,0.03826649
2181.48113892,0.03822840
2183.40994629,0.03817951
2185.33875366,0.03821523
2187.26756104,0.03831764
2189.19636841,0.03820135
2191.12517578,0.03814891
2193.05398315,0.03815977
2194.98279053,0.03808196
2196.91159790,0.03809924
2198.84040527,0.03797108
2200.76921265,0.03797441
2202.69802002,0.03814122
2204.62682739,0.03807723
2206.55563477,0.03800656
2208.48444214,0.03795125
2210.41324951,0.03781527
2212.34205688,0.03776481
2214.27086426,0.03787916
2216.19967163,0.03785396
2218.12847900,0.03774239
2220.05728638,0.03771426
2221.98609375,0.03775843
2223.91490112,0.03784530
2225.84370850,0.03771384
2227.77251587,0.03764189
2229.70132324,0.03764869
2231.63013062,0.03761227
2233.55893799,0.03755908
2235.48774536,0.03746452
2237.41655273,0.03739124
2239.34536011,0.03728098
2241.27416748,0.03743488
2243.20297485,0.03744698
2245.13178223,0.03729346
2247.06058960,0.03730187
2248.98939697,0.03726300
2250.91820435,0.03732601
2252.84701172,0.03716693
2254.77581909,0.03708883
2256.70462646,0.03712509
2258.63343384,0.03696290
2260.56224121,0.03708328
2262.49104858,0.03712448
2264.41985596,0.03696484
2266.34866333,0.03693606
2268.27747070,0.03700421
2270.20627808,0.03702559
2272.13508545,0.03693096
2274.06389282,0.03684406
2275.99270020,0.03686453
2277.92150757,0.03695004
2279.85031494,0.03683849
2281.77912231,0.03677104
2283.70792969,0.03685968
2285.63673706,0.03689399
2287.56554443,0.03688312
2289.49435181,0.03667288
2291.42315918,0.03661123
2293.35196655,0.03660589
2295.28077393,0.03644527
2297.20958130,0.03649999
2299.13838867,0.03626622
2301.06719604,0.03603821
2302.99600342,0.03610385
2304.92481079,0.03584868
2306.85361816,0.03564447
2308.78242554,0.03535844
2310.71123291,0.03503771
2312.64004028,0.03485125
2314.56884766,0.03446751
2316.49765503,0.03413689
2318.42646240,0.03367450
2320.35526978,0.03324689
2322.28407715,0.03284251
2324.21288452,0.03234735
2326.14169189,0.03210688
2328.07049927,0.03183631
2329.99930664,0.03147422
2331.92811401,0.03119202
2333.85692139,0.03106561
2335.78572876,0.03088141
2337.71453613,0.03087205
2339.64334351,0.03101786
2341.57215088,0.03109449
2343.50095825,0.03148138
2345.42976562,0.03208676
2347.35857300,0.03346860
2349.28738037,0.03435395
2351.21618774,0.03321499
2353.14499512,0.03167678
2355.07380249,0.03048807
2357.00260986,0.02962859
2358.93141724,0.02916715
2360.86022461,0.02877944
2362.78903198,0.02871275
2364.71783936,0.02904668
2366.64664673,0.02934872
2368.57545410,0.02981152
2370.50426147,0.03071897
2372.43306885,0.03155238
2374.36187622,0.03228791
2376.29068359,0.03316608
2378.21949097,0.03409089
2380.14829834,0.03465117
2382.07710571,0.03498635
2384.00591309,0.03530975
2385.93472046,0.03530014
2387.86352783,0.03536498
2389.79233521,0.03545704
2391.72114258,0.03543077
2393.64994995,0.03535240
2395.57875732,0.03531918
2397.50756470,0.03533456
2399.43637207,0.03526127
2401.36517944,0.03538007
2403.29398682,0.03523654
2405.22279419,0.03523409
2407.15160156,0.03536076
2409.08040894,0.03516376
2411.00921631,0.03527540
2412.93802368,0.03520899
2414.86683105,0.03503941
2416.79563843,0.03505571
2418.72444580,0.03500845
2420.65325317,0.03497533
2422.58206055,0.03496209
2424.51086792,0.03495406
2426.43967529,0.03496310
2428.36848267,0.03498683
2430.29729004,0.03484808
2432.22609741,0.03495127
2434.15490479,0.03492816
2436.08371216,0.03474054
2438.01251953,0.03476228
2439.94132690,0.03459150
2441.87013428,0.03472111
2443.79894165,0.03473778
2445.72774902,0.03458652
2447.65655640,0.03466967
2449.58536377,0.03466616
2451.51417114,0.03467152
2453.44297852,0.03457117
2455.37178589,0.03461970
2457.30059326,0.03458428
2459.22940063,0.03445513
2461.15820801,0.03443780
2463.08701538,0.03438810
2465.01582275,0.03446291
2466.94463013,0.03437241
2468.87343750,0.03435006
2470.80224487,0.03437272
2472.73105225,0.03433061
2474.65985962,0.03433401
2476.58866699,0.03426351
2478.51747437,0.03430109
2480.44628174,0.03422360
2482.37508911,0.03416286
2484.30389648,0.03422518
2486.23270386,0.03422587
2488.16151123,0.03413890
2490.09031860,0.03398435
2492.01912598,0.03397912
2493.94793335,0.03398305
2495.87674072,0.03398605
2497.80554810,0.03400664
2499.73435547,0.03390533
2501.66316284,0.03382849
2503.59197021,0.03387706
2505.52077759,0.03391387
2507.44958496,0.03389904
2509.37839233,0.03378814
2511.30719971,0.03361436
2513.23600708,0.03371641
2515.16481445,0.03377276
2517.09362183,0.03371120
2519.02242920,0.03377162
2520.95123657,0.03365139
2522.88004395,0.03357797
2524.80885132,0.03354280
2526.73765869,0.03349941
2528.66646606,0.03359738
2530.59527344,0.03355295
2532.52408081,0.03348973
2534.45288818,0.03338653
2536.38169556,0.03334423
2538.31050293,0.03348703
2540.23931030,0.03336164
2542.16811768,0.03327094
2544.09692505,0.03337723
2546.02573242,0.03334565
2547.95453979,0.03331062
2549.88334717,0.03332413
2551.81215454,0.03334311
2553.74096191,0.03322759
2555.66976929,0.03313693
2557.59857666,0.03322548
2559.52738403,0.03325185
2561.45619141,0.03319458
2563.38499878,0.03303961
2565.31380615,0.03300544
2567.24261353,0.03307178
2569.17142090,0.03302042
2571.10022827,0.03303166
2573.02903564,0.03295852
2574.95784302,0.03281598
2576.88665039,0.03285751
2578.81545776,0.03284737
2580.74426514,0.03279782
2582.67307251,0.03276692
2584.60187988,0.03262749
2586.53068726,0.03279512
2588.45949463,0.03280429
2590.38830200,0.03251693
2592.31710937,0.03263184
2594.24591675,0.03260829
2596.17472412,0.03265628
2598.10353149,0.03273761
2600.03233887,0.03256855
2601.96114624,0.03261703
2603.88995361,0.03251918
2605.81876099,0.03254423
2607.74756836,0.03253530
2609.67637573,0.03235455
2611.60518311,0.03238689
2613.53399048,0.03238585
2615.46279785,0.03242103
2617.39160522,0.03234908
2619.32041260,0.03238916
2621.24921997,0.03238116
2623.17802734,0.03222537
2625.10683472,0.03228838
2627.03564209,0.03222948
2628.96444946,0.03217664
2630.89325684,0.03201935
2632.82206421,0.03185895
2634.75087158,0.03199036
2636.67967895,0.03206490
2638.60848633,0.03205142
2640.53729370,0.03200061
2642.46610107,0.03197034
2644.39490845,0.03198566
2646.32371582,0.03190546
2648.25252319,0.03173759
2650.18133057,0.03173470
2652.11013794,0.03172843
2654.03894531,0.03173940
2655.96775269,0.03180134
2657.89656006,0.03165972
2659.82536743,0.03169851
2661.75417480,0.03165492
2663.68298218,0.03156801
2665.61178955,0.03162273
2667.54059692,0.03151745
2669.46940430,0.03160693
2671.39821167,0.03159631
2673.32701904,0.03140459
2675.25582642,0.03138578
2677.18463379,0.03139160
2679.11344116,0.03136570
2681.04224854,0.03136477
2682.97105591,0.03127424
2684.89986328,0.03121387
2686.82867065,0.03127573
2688.75747803,0.03115715
2690.68628540,0.03126581
2692.61509277,0.03126582
2694.54390015,0.03105968
2696.47270752,0.03113653
2698.40151489,0.03104040
2700.33032227,0.03112197
2702.25912964,0.03108254
2704.18793701,0.03095726
2706.11674438,0.03099728
2708.04555176,0.03079748
2709.97435913,0.03089201
2711.90316650,0.03088872
2713.83197388,0.03082757
2715.76078125,0.03079836
2717.68958862,0.03071466
2719.61839600,0.03080537
2721.54720337,0.03063857
2723.47601074,0.03067153
2725.40481812,0.03062414
2727.33362549,0.03052748
2729.26243286,0.03063153
2731.19124023,0.03045962
2733.12004761,0.03048575
2735.04885498,0.03048509
2736.97766235,0.03044735
2738.90646973,0.03040902
2740.83527710,0.03030194
2742.76408447,0.03040056
2744.69289185,0.03031318
2746.62169922,0.03030044
2748.55050659,0.03032530
2750.47931396,0.03024765
2752.40812134,0.03029996
2754.33692871,0.03022284
2756.26573608,0.03011966
2758.19454346,0.03002979
2760.12335083,0.03001110
2762.05215820,0.03010455
2763.98096558,0.03000559
2765.90977295,0.02996671
2767.83858032,0.02995382
2769.76738770,0.02972134
2771.69619507,0.02981412
2773.62500244,0.02988423
2775.55380981,0.02970630
2777.48261719,0.02976393
2779.41142456,0.02964513
2781.34023193,0.02960610
2783.26903931,0.02970047
2785.19784668,0.02958148
2787.12665405,0.02951638
2789.05546143,0.02946687
2790.98426880,0.02946877
2792.91307617,0.02939113
2794.84188354,0.02941915
2796.77069092,0.02943997
2798.69949829,0.02927046
2800.62830566,0.02928397
2802.55711304,0.02920711
2804.48592041,0.02921428
2806.41472778,0.02924100
2808.34353516,0.02908368
2810.27234253,0.02906586
2812.20114990,0.02906536
2814.12995728,0.02906658
2816.05876465,0.02901873
2817.98757202,0.02887399
2819.91637939,0.02872612
2821.84518677,0.02878273
2823.77399414,0.02886783
2825.70280151,0.02879042
2827.63160889,0.02871419
2829.56041626,0.02851992
2831.48922363,0.02851506
2833.41803101,0.02857294
2835.34683838,0.02846135
2837.27564575,0.02845643
2839.20445312,0.02842157
2841.13326050,0.02829224
2843.06206787,0.02822935
2844.99087524,0.02821437
2846.91968262,0.02794584
2848.84848999,0.02781318
2850.77729736,0.02790507
2852.70610474,0.02790418
2854.63491211,0.02789906
2856.56371948,0.02767213
2858.49252686,0.02763417
2860.42133423,0.02762482
2862.35014160,0.02752419
2864.27894897,0.02763705
2866.20775635,0.02756937
2868.13656372,0.02767266
2870.06537109,0.02763982
2871.99417847,0.02742347
2873.92298584,0.02752555
2875.85179321,0.02745159
2877.78060059,0.02738738
2879.70940796,0.02742255
2881.63821533,0.02738113
2883.56702270,0.02741772
2885.49583008,0.02737685
2887.42463745,0.02724692
2889.35344482,0.02726184
2891.28225220,0.02727401
2893.21105957,0.02710155
2895.13986694,0.02713558
2897.06867432,0.02715879
2898.99748169,0.02698312
2900.92628906,0.02698873
2902.85509644,0.02690402
2904.78390381,0.02680121
2906.71271118,0.02679430
2908.64151855,0.02668315
2910.57032593,0.02665906
2912.49913330,0.02648573
2914.42794067,0.02627837
2916.35674805,0.02628873
2918.28555542,0.02616515
2920.21436279,0.02618394
2922.14317017,0.02626634
2924.07197754,0.02606282
2926.00078491,0.02605624
2927.92959229,0.02624325
2929.85839966,0.02620149
2931.78720703,0.02604515
2933.71601440,0.02606974
2935.64482178,0.02617412
2937.57362915,0.02614450
2939.50243652,0.02607830
2941.43124390,0.02613807
2943.36005127,0.02614370
2945.28885864,0.02601868
2947.21766602,0.02602019
2949.14647339,0.02596704
2951.07528076,0.02592169
2953.00408813,0.02598966
2954.93289551,0.02590477
2956.86170288,0.02580425
2958.79051025,0.02569086
2960.71931763,0.02563155
2962.64812500,0.02567558
2964.57693237,0.02567006
2966.50573975,0.02559270
2968.43454712,0.02552080
2970.36335449,0.02557764
2972.29216187,0.02554586
2974.22096924,0.02549591
2976.14977661,0.02557459
2978.07858398,0.02564076
2980.00739136,0.02565712
2981.93619873,0.02562179
2983.86500610,0.02565148
2985.79381348,0.02569972
2987.72262085,0.02561268
2989.65142822,0.02551827
2991.58023560,0.02561641
2993.50904297,0.02557928
2995.43785034,0.02548141
2997.36665771,0.02558849
2999.29546509,0.02552060
3001.22427246,0.02539319
3003.15307983,0.02527852
3005.08188721,0.02524133
3007.01069458,0.02530850
3008.93950195,0.02527977
3010.86830933,0.02524086
3012.79711670,0.02514907
3014.72592407,0.02507633
3016.65473145,0.02501227
3018.58353882,0.02514175
3020.51234619,0.02512972
3022.44115356,0.02491248
3024.36996094,0.02500220
3026.29876831,0.02488976
3028.22757568,0.02487649
3030.15638306,0.02487561
3032.08519043,0.02464883
3034.01399780,0.02472433
3035.94280518,0.02468701
3037.87161255,0.02465992
3039.80041992,0.02464513
3041.72922729,0.02456195
3043.65803467,0.02457021
3045.58684204,0.02444801
3047.51564941,0.02444419
3049.44445679,0.02439507
3051.37326416,0.02425033
3053.30207153,0.02432528
3055.23087891,0.02436230
3057.15968628,0.02428453
3059.08849365,0.02421547
3061.01730103,0.02412378
3062.94610840,0.02411227
3064.87491577,0.02403184
3066.80372314,0.02399736
3068.73253052,0.02406048
3070.66133789,0.02392203
3072.59014526,0.02397693
3074.51895264,0.02399573
3076.44776001,0.02395959
3078.37656738,0.02396194
3080.30537476,0.02375063
3082.23418213,0.02379895
3084.16298950,0.02372570
3086.09179687,0.02371837
3088.02060425,0.02378723
3089.94941162,0.02362623
3091.87821899,0.02367386
3093.80702637,0.02351742
3095.73583374,0.02347982
3097.66464111,0.02355122
3099.59344849,0.02348044
3101.52225586,0.02345051
3103.45106323,0.02330733
3105.37987061,0.02329670
3107.30867798,0.02326224
3109.23748535,0.02323355
3111.16629272,0.02310809
3113.09510010,0.02300565
3115.02390747,0.02311456
3116.95271484,0.02301817
3118.88152222,0.02295734
3120.81032959,0.02295335
3122.73913696,0.02290794
3124.66794434,0.02285310
3126.59675171,0.02275762
3128.52555908,0.02271958
3130.45436645,0.02275394
3132.38317383,0.02272254
3134.31198120,0.02266289
3136.24078857,0.02261302
3138.16959595,0.02246185
3140.09840332,0.02257007
3142.02721069,0.02252539
3143.95601807,0.02236573
3145.88482544,0.02242503
3147.81363281,0.02230242
3149.74244019,0.02231208
3151.67124756,0.02224762
3153.60005493,0.02215053
3155.52886230,0.02209218
3157.45766968,0.02200198
3159.38647705,0.02204514
3161.31528442,0.02184397
3163.24409180,0.02176980
3165.17289917,0.02184178
3167.10170654,0.02179454
3169.03051392,0.02172763
3170.95932129,0.02170053
3172.88812866,0.02167034
3174.81693604,0.02155111
3176.74574341,0.02146296
3178.67455078,0.02134154
3180.60335815,0.02142955
3182.53216553,0.02145008
3184.46097290,0.02131262
3186.38978027,0.02126549
3188.31858765,0.02120763
3190.24739502,0.02123133
3192.17620239,0.02115217
3194.10500977,0.02116932
3196.03381714,0.02112759
3197.96262451,0.02104069
3199.89143188,0.02107284
3201.82023926,0.02097540
3203.74904663,0.02097438
3205.67785400,0.02094376
3207.60666138,0.02087667
3209.53546875,0.02082388
3211.46427612,0.02079439
3213.39308350,0.02067950
3215.32189087,0.02066447
3217.25069824,0.02076958
3219.17950562,0.02058602
3221.10831299,0.02057956
3223.03712036,0.02054994
3224.96592773,0.02048928
3226.89473511,0.02050230
3228.82354248,0.02041382
3230.75234985,0.02043039
3232.68115723,0.02038247
3234.60996460,0.02042030
3236.53877197,0.02039726
3238.46757935,0.02039178
3240.39638672,0.02034301
3242.32519409,0.02031930
3244.25400146,0.02035569
3246.18280884,0.02017831
3248.11161621,0.02034933
3250.04042358,0.02028279
3251.96923096,0.02012597
3253.89803833,0.02021700
3255.82684570,0.02012302
3257.75565308,0.02013106
3259.68446045,0.02005688
3261.61326782,0.02012720
3263.54207520,0.02011962
3265.47088257,0.02003567
3267.39968994,0.02012230
3269.32849731,0.02009687
3271.25730469,0.02012230
3273.18611206,0.01998957
3275.11491943,0.01991438
3277.04372681,0.01995577
3278.97253418,0.01987206
3280.90134155,0.01987109
3282.83014893,0.01996984
3284.75895630,0.01993788
3286.68776367,0.01983980
3288.61657104,0.01979816
3290.54537842,0.01964282
3292.47418579,0.01967584
3294.40299316,0.01977002
3296.33180054,0.01975448
3298.26060791,0.01968714
3300.18941528,0.01963063
3302.11822266,0.01969339
3304.04703003,0.01958134
3305.97583740,0.01960663
3307.90464478,0.01958097
3309.83345215,0.01945614
3311.76225952,0.01960191
3313.69106689,0.01957799
3315.61987427,0.01950956
3317.54868164,0.01955979
3319.47748901,0.01949680
3321.40629639,0.01946204
3323.33510376,0.01952397
3325.26391113,0.01941961
3327.19271851,0.01938158
3329.12152588,0.01944082
3331.05033325,0.01935439
3332.97914062,0.01929308
3334.90794800,0.01922459
3336.83675537,0.01926573
3338.76556274,0.01930174
3340.69437012,0.01927351
3342.62317749,0.01919654
3344.55198486,0.01912117
3346.48079224,0.01917814
3348.40959961,0.01912009
3350.33840698,0.01911813
3352.26721436,0.01909948
3354.19602173,0.01908661
3356.12482910,0.01910002
3358.05363647,0.01896888
3359.98244385,0.01895031
3361.91125122,0.01892672
3363.84005859,0.01883777
3365.76886597,0.01885208
3367.69767334,0.01886636
3369.62648071,0.01874778
3371.55528809,0.01881421
3373.48409546,0.01879068
3375.41290283,0.01861802
3377.34171020,0.01868838
3379.27051758,0.01866935
3381.19932495,0.01868962
3383.12813232,0.01860009
3385.05693970,0.01854365
3386.98574707,0.01852477
3388.91455444,0.01841684
3390.84336182,0.01851141
3392.77216919,0.01833495
3394.70097656,0.01835408
3396.62978394,0.01843227
3398.55859131,0.01823820
3400.48739868,0.01825126
3402.41620605,0.01828339
3404.34501343,0.01830306
3406.27382080,0.01825648
3408.20262817,0.01824733
3410.13143555,0.01821112
3412.06024292,0.01814904
3413.98905029,0.01808844
3415.91785767,0.01809816
3417.84666504,0.01813372
3419.77547241,0.01795043
3421.70427979,0.01800115
3423.63308716,0.01801840
3425.56189453,0.01788434
3427.49070190,0.01781593
3429.41950928,0.01781885
3431.34831665,0.01790676
3433.27712402,0.01790029
3435.20593140,0.01789645
3437.13473877,0.01776757
3439.06354614,0.01774635
3440.99235352,0.01770369
3442.92116089,0.01765967
3444.84996826,0.01769076
3446.77877563,0.01746459
3448.70758301,0.01754629
3450.63639038,0.01766100
3452.56519775,0.01756400
3454.49400513,0.01763439
3456.42281250,0.01760803
3458.35161987,0.01749862
3460.28042725,0.01751013
3462.20923462,0.01745433
3464.13804199,0.01745915
3466.06684937,0.01753642
3467.99565674,0.01746514
3469.92446411,0.01746888
3471.85327148,0.01742062
3473.78207886,0.01744202
3475.71088623,0.01737509
3477.63969360,0.01734665
3479.56850098,0.01736360
3481.49730835,0.01713253
3483.42611572,0.01729274
3485.35492310,0.01721123
3487.28373047,0.01719674
3489.21253784,0.01728744
3491.14134521,0.01720257
3493.07015259,0.01743041
3494.99895996,0.01717171
3496.92776733,0.01714426
3498.85657471,0.01725709
3500.78538208,0.01717522
3502.71418945,0.01699055
3504.64299683,0.01691566
3506.57180420,0.01733271
3508.50061157,0.01702092
3510.42941895,0.01697072
3512.35822632,0.01721729
3514.28703369,0.01714571
3516.21584106,0.01724333
3518.14464844,0.01714437
3520.07345581,0.01716894
3522.00226318,0.01695972
3523.93107056,0.01684555
3525.85987793,0.01692096
3527.78868530,0.01687212
3529.71749268,0.01686573
3531.64630005,0.01692753
3533.57510742,0.01717681
3535.50391479,0.01699231
3537.43272217,0.01692977
3539.36152954,0.01715013
3541.29033691,0.01710185
3543.21914429,0.01699638
3545.14795166,0.01661020
3547.07675903,0.01635904
3549.00556641,0.01693965
3550.93437378,0.01709135
3552.86318115,0.01661466
3554.79198853,0.01690819
3556.72079590,0.01700329
3558.64960327,0.01694006
3560.57841064,0.01689510
3562.50721802,0.01674731
3564.43602539,0.01683407
3566.36483276,0.01579681
3568.29364014,0.01542045
3570.22244751,0.01656725
3572.15125488,0.01697318
3574.08006226,0.01682075
3576.00886963,0.01685485
3577.93767700,0.01686390
3579.86648437,0.01689760
3581.79529175,0.01688157
3583.72409912,0.01690346
3585.65290649,0.01656359
3587.58171387,0.01527905
3589.51052124,0.01567792
3591.43932861,0.01703035
3593.36813599,0.01654466
3595.29694336,0.01625390
3597.22575073,0.01664336
3599.15455811,0.01668902
3601.08336548,0.01652297
3603.01217285,0.01670679
3604.94098022,0.01688967
3606.86978760,0.01639948
3608.79859497,0.01550257
3610.72740234,0.01576422
3612.65620972,0.01612425
3614.58501709,0.01563721
3616.51382446,0.01677414
3618.44263184,0.01559049
3620.37143921,0.01499572
3622.30024658,0.01685161
3624.22905395,0.01647332
3626.15786133,0.01722302
3628.08666870,0.01464970
3630.01547607,0.01337416
3631.94428345,0.01669815
3633.87309082,0.01625660
3635.80189819,0.01652838
3637.73070557,0.01687507
3639.65951294,0.01656023
3641.58832031,0.01677906
3643.51712769,0.01667529
3645.44593506,0.01673980
3647.37474243,0.01512207
3649.30354980,0.01397922
3651.23235718,0.01409003
3653.16116455,0.01663898
3655.08997192,0.01642937
3657.01877930,0.01479363
3658.94758667,0.01682759
3660.87639404,0.01647112
3662.80520142,0.01680971
3664.73400879,0.01665290
3666.66281616,0.01658510
3668.59162354,0.01613495
3670.52043091,0.01318633
3672.44923828,0.01596591
3674.37804565,0.01522157
3676.30685303,0.01273472
3678.23566040,0.01580981
3680.16446777,0.01608982
3682.09327515,0.01616431
3684.02208252,0.01657474
3685.95088989,0.01637236
3687.87969727,0.01489473
3689.80850464,0.01368150
3691.73731201,0.01550838
3693.66611938,0.01589326
3695.59492676,0.01619289
3697.52373413,0.01623574
3699.45254150,0.01611247
3701.38134888,0.01573292
3703.31015625,0.01514298
3705.23896362,0.01657987
3707.16777100,0.01590836
3709.09657837,0.01547151
3711.02538574,0.01446767
3712.95419312,0.01367867
3714.88300049,0.01594107
3716.81180786,0.01565728
3718.74061523,0.01582485
3720.66942261,0.01550002
3722.59822998,0.01501083
3724.52703735,0.01557715
3726.45584473,0.01443786
3728.38465210,0.01563425
3730.31345947,0.01550644
3732.24226685,0.01432159
3734.17107422,0.01400472
3736.09988159,0.01327978
3738.02868896,0.01399302
3739.95749634,0.01508409
3741.88630371,0.01576461
3743.81511108,0.01235730
3745.74391846,0.01167955
3747.67272583,0.01503501
3749.60153320,0.01302148
3751.53034058,0.01206921
3753.45914795,0.01383764
3755.38795532,0.01483282
3757.31676270,0.01534916
3759.24557007,0.01426316
3761.17437744,0.01472725
3763.10318481,0.01561494
3765.03199219,0.01470289
3766.96079956,0.01497550
3768.88960693,0.01472092
3770.81841431,0.01405938
3772.74722168,0.01523254
3774.67602905,0.01524278
3776.60483643,0.01523169
3778.53364380,0.01482691
3780.46245117,0.01427078
3782.39125854,0.01517997
3784.32006592,0.01478380
3786.24887329,0.01477434
3788.17768066,0.01502511
3790.10648804,0.01490887
3792.03529541,0.01488945
3793.96410278,0.01514684
3795.89291016,0.01437688
3797.82171753,0.01406981
3799.75052490,0.01481022
3801.67933228,0.01190758
3803.60813965,0.01373421
3805.53694702,0.01493044
3807.46575439,0.01225274
3809.39456177,0.01476899
3811.32336914,0.01450989
3813.25217651,0.01503362
3815.18098389,0.01368225
3817.10979126,0.01194116
3819.03859863,0.01498493
3820.96740601,0.01238933
3822.89621338,0.01296747
3824.82502075,0.01488686
3826.75382812,0.01365998
3828.68263550,0.01465843
3830.61144287,0.01389510
3832.54025024,0.01347240
3834.46905762,0.01374256
3836.39786499,0.01308884
3838.32667236,0.01190079
3840.25547974,0.01287179
3842.18428711,0.01388057
3844.11309448,0.01322255
3846.04190186,0.01420534
3847.97070923,0.01401317
3849.89951660,0.01406599
3851.82832397,0.01266467
3853.75713135,0.00968770
3855.68593872,0.01135413
3857.61474609,0.01405926
3859.54355347,0.01379542
3861.47236084,0.01358835
3863.40116821,0.01330312
3865.32997559,0.01242752
3867.25878296,0.01377924
3869.18759033,0.01256393
3871.11639770,0.01169266
3873.04520508,0.01381351
3874.97401245,0.01269817
3876.90281982,0.01372634
3878.83162720,0.01395264
3880.76043457,0.01207694
3882.68924194,0.01386135
3884.61804932,0.01294113
3886.54685669,0.01183867
3888.47566406,0.01384697
3890.40447144,0.01323349
3892.33327881,0.01236083
3894.26208618,0.01351935
3896.19089355,0.01370221
3898.11970093,0.01309562
3900.04850830,0.01241933
3901.97731567,0.01216597
3903.90612305,0.01210191
3905.83493042,0.01228704
3907.76373779,0.01346624
3909.69254517,0.01338920
3911.62135254,0.01326924
3913.55015991,0.01358350
3915.47896728,0.01302039
3917.40777466,0.01272004
3919.33658203,0.01257493
3921.26538940,0.01302564
3923.19419678,0.01306444
3925.12300415,0.01281909
3927.05181152,0.01304353
3928.98061890,0.01316507
3930.90942627,0.01295399
3932.83823364,0.01238076
3934.76704102,0.01289967
3936.69584839,0.01312143
3938.62465576,0.01291013
3940.55346313,0.01311944
3942.48227051,0.01261931
3944.41107788,0.01268663
3946.33988525,0.01299659
3948.26869263,0.01265848
3950.19750000,0.01261105
3952.12630737,0.01276806
3954.05511475,0.01274360
3955.98392212,0.01267074
3957.91272949,0.01267359
3959.84153687,0.01277253
3961.77034424,0.01263002
3963.69915161,0.01261978
3965.62795898,0.01282429
3967.55676636,0.01265155
3969.48557373,0.01263413
3971.41438110,0.01256304
3973.34318848,0.01259739
3975.27199585,0.01261041
3977.20080322,0.01249674
3979.12961060,0.01264282
3981.05841797,0.01240928
3982.98722534,0.01250750
3984.91603271,0.01245230
3986.84484009,0.01230539
3988.77364746,0.01246069
3990.70245483,0.01226578
3992.63126221,0.01234366
3994.56006958,0.01226480
3996.48887695,0.01224236
3998.41768433,0.01226100
4000.34649170,0.01224531
4002.27529907,0.01233199
4004.20410645,0.01213441
4006.13291382,0.01217025
4008.06172119,0.01211942
4009.99052856,0.01209100
4011.91933594,0.01214099
4013.84814331,0.01208966
4015.77695068,0.01206394
4017.70575806,0.01201782
4019.63456543,0.01197926
4021.56337280,0.01193538
4023.49218018,0.01197406
4025.42098755,0.01184726
4027.34979492,0.01197338
4029.27860229,0.01201600
4031.20740967,0.01183982
4033.13621704,0.01187642
4035.06502441,0.01185104
4036.99383179,0.01184220
4038.92263916,0.01175941
4040.85144653,0.01182607
4042.78025391,0.01174668
4044.70906128,0.01169048
4046.63786865,0.01171053
4048.56667603,0.01161176
4050.49548340,0.01171090
4052.42429077,0.01163217
4054.35309814,0.01173984
4056.28190552,0.01163231
4058.21071289,0.01147816
4060.13952026,0.01157095
4062.06832764,0.01148383
4063.99713501,0.01156748
4065.92594238,0.01145377
4067.85474976,0.01143215
4069.78355713,0.01140862
4071.71236450,0.01130648
4073.64117187,0.01137636
4075.56997925,0.01132036
4077.49878662,0.01132091
4079.42759399,0.01130683
4081.35640137,0.01126632
4083.28520874,0.01122326
4085.21401611,0.01127976
4087.14282349,0.01122297
4089.07163086,0.01115545
4091.00043823,0.01115181
4092.92924561,0.01107738
4094.85805298,0.01113750
4096.78686035,0.01109424
4098.71566772,0.01106048
4100.64447510,0.01099359
4102.57328247,0.01115157
4104.50208984,0.01111160
4106.43089722,0.01084882
4108.35970459,0.01098618
4110.28851196,0.01092552
4112.21731934,0.01100427
4114.14612671,0.01095232
4116.07493408,0.01083099
4118.00374145,0.01085447
4119.93254883,0.01077893
4121.86135620,0.01093186
4123.79016357,0.01078526
4125.71897095,0.01072994
4127.64777832,0.01070597
4129.57658569,0.01060134
4131.50539307,0.01070184
4133.43420044,0.01067564
4135.36300781,0.01067831
4137.29181519,0.01062509
4139.22062256,0.01065314
4141.14942993,0.01061927
4143.07823730,0.01054753
4145.00704468,0.01054580
4146.93585205,0.01046507
4148.86465942,0.01046816
4150.79346680,0.01047232
4152.72227417,0.01050637
4154.65108154,0.01050122
4156.57988892,0.01045917
4158.50869629,0.01041224
4160.43750366,0.01043635
4162.36631103,0.01037710
4164.29511841,0.01028791
4166.22392578,0.01031555
4168.15273315,0.01027324
4170.08154053,0.01031846
4172.01034790,0.01023513
4173.93915527,0.01021443
4175.86796265,0.01022838
4177.79677002,0.01014410
4179.72557739,0.01012488
4181.65438477,0.01008952
4183.58319214,0.01017282
4185.51199951,0.01006817
4187.44080688,0.01004064
4189.36961426,0.01006925
4191.29842163,0.01004585
4193.22722900,0.01007147
4195.15603638,0.00996264
4197.08484375,0.01000970
4199.01365112,0.00995243
4200.94245850,0.00989197
4202.87126587,0.00989503
4204.80007324,0.00989521
4206.72888062,0.00991881
4208.65768799,0.00988454
4210.58649536,0.00985365
4212.51530273,0.00977073
4214.44411011,0.00983647
4216.37291748,0.00971464
4218.30172485,0.00972424
4220.23053223,0.00979019
4222.15933960,0.00965300
4224.08814697,0.00972520
4226.01695435,0.00967967
4227.94576172,0.00970369
4229.87456909,0.00962469
4231.80337646,0.00964511
4233.73218384,0.00969780
4235.66099121,0.00953359
4237.58979858,0.00959454
4239.51860596,0.00949783
4241.44741333,0.00949103
4243.37622070,0.00944388
4245.30502808,0.00940634
4247.23383545,0.00946991
4249.16264282,0.00937978
4251.09145020,0.00945934
4253.02025757,0.00936707
4254.94906494,0.00934768
4256.87787231,0.00935013
4258.80667969,0.00931095
4260.73548706,0.00941937
4262.66429443,0.00929908
4264.59310181,0.00927193
4266.52190918,0.00932109
4268.45071655,0.00924288
4270.37952393,0.00916863
4272.30833130,0.00917456
4274.23713867,0.00919414
4276.16594604,0.00915355
4278.09475342,0.00912344
4280.02356079,0.00906307
4281.95236816,0.00902964
4283.88117554,0.00909023
4285.80998291,0.00912040
4287.73879028,0.00901718
4289.66759766,0.00897031
4291.59640503,0.00897135
4293.52521240,0.00895120
4295.45401978,0.00894722
4297.38282715,0.00893879
4299.31163452,0.00891673
4301.24044189,0.00886233
4303.16924927,0.00887290
4305.09805664,0.00885398
4307.02686401,0.00882082
4308.95567139,0.00874711
4310.88447876,0.00879166
4312.81328613,0.00888156
4314.74209351,0.00870940
4316.67090088,0.00869479
4318.59970825,0.00873540
4320.52851562,0.00869370
4322.45732300,0.00868582
4324.38613037,0.00867989
4326.31493774,0.00866561
4328.24374512,0.00862513
4330.17255249,0.00861729
4332.10135986,0.00854736
4334.03016724,0.00859996
4335.95897461,0.00860516
4337.88778198,0.00854137
4339.81658936,0.00852797
4341.74539673,0.00850569
4343.67420410,0.00851310
4345.60301147,0.00844181
4347.53181885,0.00848572
4349.46062622,0.00845088
4351.38943359,0.00845357
4353.31824097,0.00841915
4355.24704834,0.00833710
4357.17585571,0.00842705
4359.10466309,0.00831096
4361.03347046,0.00832642
4362.96227783,0.00827987
4364.89108520,0.00825180
4366.81989258,0.00827115
4368.74869995,0.00815637
4370.67750732,0.00826614
4372.60631470,0.00819331
4374.53512207,0.00820868
4376.46392944,0.00819858
4378.39273682,0.00808494
4380.32154419,0.00816808
4382.25035156,0.00818538
4384.17915894,0.00809939
4386.10796631,0.00796689
4388.03677368,0.00810534
4389.96558105,0.00808083
4391.89438843,0.00797699
4393.82319580,0.00802578
4395.75200317,0.00798084
4397.68081055,0.00795621
4399.60961792,0.00784653
4401.53842529,0.00791459
4403.46723267,0.00790100
4405.39604004,0.00786437
4407.32484741,0.00785639
4409.25365478,0.00778884
4411.18246216,0.00788557
4413.11126953,0.00776311
4415.04007690,0.00781831
4416.96888428,0.00784329
4418.89769165,0.00769414
4420.82649902,0.00778632
4422.75530640,0.00775447
4424.68411377,0.00769456
4426.61292114,0.00765746
4428.54172852,0.00764994
4430.47053589,0.00766055
4432.39934326,0.00765149
4434.32815063,0.00767923
4436.25695801,0.00762968
4438.18576538,0.00760337
4440.11457275,0.00761279
4442.04338013,0.00755283
4443.97218750,0.00745292
4445.90099487,0.00747834
4447.82980225,0.00755412
4449.75860962,0.00751268
4451.68741699,0.00743814
4453.61622437,0.00747233
4455.54503174,0.00750312
4457.47383911,0.00744973
4459.40264648,0.00743637
4461.33145386,0.00738604
4463.26026123,0.00739893
4465.18906860,0.00740347
4467.11787598,0.00730918
4469.04668335,0.00732983
4470.97549072,0.00738540
4472.90429810,0.00736761
4474.83310547,0.00733015
4476.76191284,0.00731552
4478.69072021,0.00722795
4480.61952759,0.00713752
4482.54833496,0.00717498
4484.47714233,0.00724091
4486.40594971,0.00719476
4488.33475708,0.00715525
4490.26356445,0.00716154
4492.19237183,0.00713957
4494.12117920,0.00721133
4496.04998657,0.00710706
4497.97879395,0.00702735
4499.90760132,0.00710026
4501.83640869,0.00704217
4503.76521606,0.00706957
4505.69402344,0.00704727
4507.62283081,0.00700423
4509.55163818,0.00697899
4511.48044556,0.00696636
4513.40925293,0.00700526
4515.33806030,0.00697154
4517.26686768,0.00697350
4519.19567505,0.00687659
4521.12448242,0.00684069
4523.05328979,0.00689879
4524.98209717,0.00687895
4526.91090454,0.00687213
4528.83971191,0.00682874
4530.76851929,0.00677809
4532.69732666,0.00677045
4534.62613403,0.00679534
4536.55494141,0.00678184
4538.48374878,0.00679549
4540.41255615,0.00674418
4542.34136353,0.00665348
4544.27017090,0.00666874
4546.19897827,0.00672073
4548.12778564,0.00673542
4550.05659302,0.00662732
4551.98540039,0.00665829
4553.91420776,0.00659894
4555.84301514,0.00653380
4557.77182251,0.00668669
4559.70062988,0.00658409
4561.62943726,0.00655810
4563.55824463,0.00658046
4565.48705200,0.00649587
4567.41585937,0.00652818
4569.34466675,0.00647002
4571.27347412,0.00644795
4573.20228149,0.00648406
4575.13108887,0.00643013
4577.05989624,0.00639002
4578.98870361,0.00640872
4580.91751099,0.00642919
4582.84631836,0.00640352
4584.77512573,0.00637791
4586.70393311,0.00638475
4588.63274048,0.00631923
4590.56154785,0.00630917
4592.49035522,0.00635328
4594.41916260,0.00633925
4596.34796997,0.00634959
4598.27677734,0.00625037
4600.20558472,0.00623898
4602.13439209,0.00620497
4604.06319946,0.00617748
4605.99200684,0.00625591
4607.92081421,0.00613604
4609.84962158,0.00619038
4611.77842895,0.00611952
4613.70723633,0.00607285
4615.63604370,0.00620288
4617.56485107,0.00605858
4619.49365845,0.00605362
4621.42246582,0.00602005
4623.35127319,0.00605926
4625.28008057,0.00609319
4627.20888794,0.00603152
4629.13769531,0.00607250
4631.06650269,0.00593967
4632.99531006,0.00598988
4634.92411743,0.00599219
4636.85292480,0.00593863
4638.78173218,0.00595799
4640.71053955,0.00586694
4642.63934692,0.00592458
4644.56815430,0.00592917
4646.49696167,0.00594756
4648.42576904,0.00591576
4650.35457642,0.00585179
4652.28338379,0.00591466
4654.21219116,0.00582958
4656.14099853,0.00575084
4658.06980591,0.00580586
4659.99861328,0.00580399
4661.92742065,0.00577279
4663.85622803,0.00586309
4665.78503540,0.00584179
4667.71384277,0.00578434
4669.64265015,0.00574892
4671.57145752,0.00566852
4673.50026489,0.00573067
4675.42907227,0.00566144
4677.35787964,0.00565418
4679.28668701,0.00573532
4681.21549438,0.00569124
4683.14430176,0.00569063
4685.07310913,0.00564277
4687.00191650,0.00562557
4688.93072388,0.00559237
4690.85953125,0.00560902
4692.78833862,0.00563013
4694.71714600,0.00554868
4696.64595337,0.00549775
4698.57476074,0.00545463
4700.50356812,0.00552826
4702.43237549,0.00551803
4704.36118286,0.00551683
4706.28999023,0.00554911
4708.21879761,0.00542533
4710.14760498,0.00546283
4712.07641235,0.00549826
4714.00521973,0.00543190
4715.93402710,0.00539770
4717.86283447,0.00539298
4719.79164185,0.00540432
4721.72044922,0.00542090
4723.64925659,0.00546323
4725.57806396,0.00538688
4727.50687134,0.00531011
4729.43567871,0.00530664
4731.36448608,0.00539144
4733.29329346,0.00537402
4735.22210083,0.00520616
4737.15090820,0.00526321
4739.07971558,0.00525322
4741.00852295,0.00520359
4742.93733032,0.00526132
4744.86613770,0.00522476
4746.79494507,0.00522237
4748.72375244,0.00521666
4750.65255981,0.00521001
4752.58136719,0.00517526
4754.51017456,0.00514947
4756.43898193,0.00512731
4758.36778931,0.00509731
4760.29659668,0.00513612
4762.22540405,0.00514864
4764.15421143,0.00519910
4766.08301880,0.00510479
4768.01182617,0.00504095
4769.94063354,0.00511790
4771.86944092,0.00505831
4773.79824829,0.00508874
4775.72705566,0.00506599
4777.65586304,0.00496033
4779.58467041,0.00498743
4781.51347778,0.00500889
4783.44228516,0.00499440
4785.37109253,0.00500714
4787.29989990,0.00495766
4789.22870728,0.00486004
4791.15751465,0.00492545
4793.08632202,0.00489795
4795.01512939,0.00484117
4796.94393677,0.00495590
4798.87274414,0.00491240
4800.80155151,0.00484429
4802.73035889,0.00484420
4804.65916626,0.00483358
4806.58797363,0.00485174
4808.51678101,0.00478382
4810.44558838,0.00477075
4812.37439575,0.00482232
4814.30320312,0.00472819
4816.23201050,0.00474898
4818.16081787,0.00481787
4820.08962524,0.00473573
4822.01843262,0.00476628
4823.94723999,0.00475007
4825.87604736,0.00472952
4827.80485474,0.00473644
4829.73366211,0.00465043
4831.66246948,0.00465906
4833.59127686,0.00466711
4835.52008423,0.00468440
4837.44889160,0.00461545
4839.37769897,0.00458223
4841.30650635,0.00467318
4843.23531372,0.00464267
4845.16412109,0.00463289
4847.09292847,0.00459860
4849.02173584,0.00454008
4850.95054321,0.00452489
4852.87935059,0.00459181
4854.80815796,0.00459214
4856.73696533,0.00443165
4858.66577270,0.00446758
4860.59458008,0.00455764
4862.52338745,0.00452101
4864.45219482,0.00444716
4866.38100220,0.00448525
4868.30980957,0.00455971
4870.23861694,0.00445514
4872.16742432,0.00443075
4874.09623169,0.00449719
4876.02503906,0.00441335
4877.95384644,0.00431416
4879.88265381,0.00443751
4881.81146118,0.00446055
4883.74026855,0.00430606
4885.66907593,0.00435882
4887.59788330,0.00442274
4889.52669067,0.00436794
4891.45549805,0.00431127
4893.38430542,0.00434271
4895.31311279,0.00439872
4897.24192017,0.00435133
4899.17072754,0.00428821
4901.09953491,0.00421773
4903.02834228,0.00423894
4904.95714966,0.00431227
4906.88595703,0.00429104
4908.81476440,0.00426411
4910.74357178,0.00419351
4912.67237915,0.00409277
4914.60118652,0.00415525
4916.52999390,0.00427147
4918.45880127,0.00425026
4920.38760864,0.00418948
4922.31641602,0.00421204
4924.24522339,0.00421898
4926.17403076,0.00415248
4928.10283813,0.00412995
4930.03164551,0.00410869
4931.96045288,0.00411594
4933.88926025,0.00408731
4935.81806763,0.00409198
4937.74687500,0.00416116
4939.67568237,0.00406028
4941.60448975,0.00410057
4943.53329712,0.00408200
4945.46210449,0.00400324
4947.39091187,0.00406510
4949.31971924,0.00394609
4951.24852661,0.00398709
4953.17733398,0.00400524
4955.10614136,0.00392219
4957.03494873,0.00396609
4958.96375610,0.00398323
4960.89256348,0.00400234
4962.82137085,0.00390807
4964.75017822,0.00390917
4966.67898560,0.00401715
4968.60779297,0.00398667
4970.53660034,0.00381925
4972.46540771,0.00384903
4974.39421509,0.00398558
4976.32302246,0.00384650
4978.25182983,0.00388299
4980.18063721,0.00394228
4982.10944458,0.00382162
4984.03825195,0.00381866
4985.96705933,0.00384304
4987.89586670,0.00380677
4989.82467407,0.00376875
4991.75348145,0.00378971
4993.68228882,0.00379460
4995.61109619,0.00385259
4997.53990356,0.00381999
4999.46871094,0.00376233
5001.39751831,0.00371164
5003.32632568,0.00364569
5005.25513306,0.00376498
5007.18394043,0.00369179
5009.11274780,0.00366078
5011.04155518,0.00372015
5012.97036255,0.00363546
5014.89916992,0.00363759
5016.82797729,0.00363064
5018.75678467,0.00370454
5020.68559204,0.00368065
5022.61439941,0.00357515
5024.54320679,0.00360659
5026.47201416,0.00364124
5028.40082153,0.00364667
5030.32962891,0.00360430
5032.25843628,0.00359754
5034.18724365,0.00358952
5036.11605103,0.00357297
5038.04485840,0.00350660
5039.97366577,0.00346693
5041.90247314,0.00355454
5043.83128052,0.00350870
5045.76008789,0.00344119
5047.68889526,0.00350887
5049.61770264,0.00351386
5051.54651001,0.00348000
5053.47531738,0.00349764
5055.40412476,0.00351656
5057.33293213,0.00352663
5059.26173950,0.00348095
5061.19054687,0.00348025
5063.11935425,0.00345499
5065.04816162,0.00339313
5066.97696899,0.00344526
5068.90577637,0.00341271
5070.83458374,0.00341711
5072.76339111,0.00339806
5074.69219849,0.00332738
5076.62100586,0.00334095
5078.54981323,0.00332637
5080.47862061,0.00339737
5082.40742798,0.00338415
5084.33623535,0.00335747
5086.26504272,0.00336497
5088.19385010,0.00331033
5090.12265747,0.00329510
5092.05146484,0.00329365
5093.98027222,0.00330161
5095.90907959,0.00325784
5097.83788696,0.00332411
5099.76669434,0.00327299
5101.69550171,0.00319224
5103.62430908,0.00325468
5105.55311645,0.00320124
5107.48192383,0.00329784
5109.41073120,0.00328432
5111.33953857,0.00319682
5113.26834595,0.00327504
5115.19715332,0.00321279
5117.12596069,0.00317731
5119.05476807,0.00327627
5120.98357544,0.00324107
5122.91238281,0.00314091
5124.84119019,0.00320788
5126.76999756,0.00314560
5128.69880493,0.00313569
5130.62761230,0.00318464
5132.55641968,0.00303976
5134.48522705,0.00309607
5136.41403442,0.00310438
5138.34284180,0.00308471
5140.27164917,0.00315050
5142.20045654,0.00302821
5144.12926392,0.00301589
5146.05807129,0.00312686
5147.98687866,0.00313121
5149.91568603,0.00306805
5151.84449341,0.00302417
5153.77330078,0.00304953
5155.70210815,0.00304781
5157.63091553,0.00299169
5159.55972290,0.00305983
5161.48853027,0.00308439
5163.41733765,0.00300448
5165.34614502,0.00299376
5167.27495239,0.00298632
5169.20375977,0.00300629
5171.13256714,0.00298564
5173.06137451,0.00296221
5174.99018188,0.00295413
5176.91898926,0.00293152
5178.84779663,0.00292185
5180.77660400,0.00295923
5182.70541138,0.00300684
5184.63421875,0.00286680
5186.56302612,0.00281615
5188.49183350,0.00288014
5190.42064087,0.00292906
5192.34944824,0.00294706
5194.27825562,0.00291780
5196.20706299,0.00290655
5198.13587036,0.00281855
5200.06467773,0.00286523
5201.99348511,0.00287884
5203.92229248,0.00286773
5205.85109985,0.00281833
5207.77990723,0.00268819
5209.70871460,0.00275886
5211.63752197,0.00273792
5213.56632935,0.00283520
5215.49513672,0.00287893
5217.42394409,0.00280068
5219.35275146,0.00283875
5221.28155884,0.00277360
5223.21036621,0.00283603
5225.13917358,0.00273660
5227.06798096,0.00262866
5228.99678833,0.00278784
5230.92559570,0.00282825
5232.85440308,0.00270964
5234.78321045,0.00267514
5236.71201782,0.00278193
5238.64082520,0.00271757
5240.56963257,0.00268433
5242.49843994,0.00269071
5244.42724731,0.00265220
5246.35605469,0.00266291
5248.28486206,0.00258495
5250.21366943,0.00258345
5252.14247681,0.00264725
5254.07128418,0.00262012
5256.00009155,0.00255010
5257.92889893,0.00261014
5259.85770630,0.00260224
5261.78651367,0.00256945
5263.71532104,0.00262991
5265.64412842,0.00257815
5267.57293579,0.00260865
5269.50174316,0.00260270
5271.43055054,0.00261744
5273.35935791,0.00264828
5275.28816528,0.00258016
5277.21697266,0.00259527
5279.14578003,0.00254240
5281.07458740,0.00253493
5283.00339478,0.00253822
5284.93220215,0.00247829
5286.86100952,0.00253174
5288.78981689,0.00256848
5290.71862427,0.00250931
5292.64743164,0.00252590
5294.57623901,0.00256049
5296.50504639,0.00251502
5298.43385376,0.00248683
5300.36266113,0.00247506
5302.29146851,0.00253813
5304.22027588,0.00250397
5306.14908325,0.00247141
5308.07789062,0.00249659
5310.00669800,0.00245122
5311.93550537,0.00250953
5313.86431274,0.00246406
5315.79312012,0.00243349
5317.72192749,0.00247647
5319.65073486,0.00246073
5321.57954224,0.00243482
5323.50834961,0.00241368
5325.43715698,0.00244435
5327.36596436,0.00236551
5329.29477173,0.00236851
5331.22357910,0.00239980
5333.15238647,0.00231308
5335.08119385,0.00235819
5337.01000122,0.00239913
5338.93880859,0.00222732
5340.86761597,0.00233191
5342.79642334,0.00250664
5344.72523071,0.00222268
5346.65403809,0.00227917
5348.58284546,0.00233009
5350.51165283,0.00226769
5352.44046020,0.00239936
5354.36926758,0.00222587
5356.29807495,0.00223866
5358.22688232,0.00221678
5360.15568970,0.00221792
5362.08449707,0.00225953
5364.01330444,0.00214287
5365.94211182,0.00222741
5367.87091919,0.00223290
5369.79972656,0.00233106
5371.72853394,0.00224893
5373.65734131,0.00220498
5375.58614868,0.00227499
5377.51495605,0.00212828
5379.44376343,0.00224765
5381.37257080,0.00222846
5383.30137817,0.00220532
5385.23018555,0.00225768
5387.15899292,0.00221294
5389.08780029,0.00227211
5391.01660767,0.00222141
5392.94541504,0.00219004
5394.87422241,0.00215579
5396.80302978,0.00214641
5398.73183716,0.00220368
5400.66064453,0.00215768
5402.58945190,0.00209400
5404.51825928,0.00215459
5406.44706665,0.00217973
5408.37587402,0.00214990
5410.30468140,0.00212689
5412.23348877,0.00200353
5414.16229614,0.00202880
5416.09110352,0.00208720
5418.01991089,0.00208653
5419.94871826,0.00209652
5421.87752563,0.00212601
5423.80633301,0.00213304
5425.73514038,0.00206958
5427.66394775,0.00210658
5429.59275513,0.00197689
5431.52156250,0.00199480
5433.45036987,0.00210284
5435.37917725,0.00199420
5437.30798462,0.00205970
5439.23679199,0.00205478
5441.16559936,0.00199816
5443.09440674,0.00200770
5445.02321411,0.00200598
5446.95202148,0.00197276
5448.88082886,0.00196953
5450.80963623,0.00198984
5452.73844360,0.00201616
5454.66725098,0.00205797
5456.59605835,0.00192496
5458.52486572,0.00200919
5460.45367310,0.00199129
5462.38248047,0.00184828
5464.31128784,0.00194616
5466.24009521,0.00190459
5468.16890259,0.00194908
5470.09770996,0.00192365
5472.02651733,0.00192871
5473.95532471,0.00198838
5475.88413208,0.00188874
5477.81293945,0.00191110
5479.74174683,0.00190085
5481.67055420,0.00194405
5483.59936157,0.00195387
5485.52816895,0.00193123
5487.45697632,0.00194194
5489.38578369,0.00190705
5491.31459106,0.00193826
5493.24339844,0.00189101
5495.17220581,0.00189173
5497.10101318,0.00191612
5499.02982056,0.00182644
5500.95862793,0.00182017
5502.88743530,0.00191514
5504.81624268,0.00186414
5506.74505005,0.00181808
5508.67385742,0.00186837
5510.60266479,0.00179361
5512.53147217,0.00179223
5514.46027954,0.00183331
5516.38908691,0.00186830
5518.31789429,0.00180917
5520.24670166,0.00169315
5522.17550903,0.00176846
5524.10431641,0.00180003
5526.03312378,0.00182045
5527.96193115,0.00185540
5529.89073853,0.00181702
5531.81954590,0.00178021
5533.74835327,0.00178385
5535.67716064,0.00175374
5537.60596802,0.00172565
5539.53477539,0.00183224
5541.46358276,0.00180563
5543.39239014,0.00174348
5545.32119751,0.00177349
5547.25000488,0.00174156
5549.17881226,0.00171979
5551.10761963,0.00172520
5553.03642700,0.00175003
5554.96523437,0.00174144
5556.89404175,0.00172246
5558.82284912,0.00175190
5560.75165649,0.00172187
5562.68046387,0.00164341
5564.60927124,0.00175706
5566.53807861,0.00175303
5568.46688599,0.00162216
5570.39569336,0.00177190
5572.32450073,0.00174561
5574.25330811,0.00167862
5576.18211548,0.00175936
5578.11092285,0.00170122
5580.03973022,0.00166740
5581.96853760,0.00165007
5583.89734497,0.00163016
5585.82615234,0.00160435
5587.75495972,0.00166754
5589.68376709,0.00166508
5591.61257446,0.00157101
5593.54138184,0.00166167
5595.47018921,0.00166004
5597.39899658,0.00157402
5599.32780395,0.00155356
5601.25661133,0.00157533
5603.18541870,0.00162615
5605.11422607,0.00159609
5607.04303345,0.00160520
5608.97184082,0.00166009
5610.90064819,0.00159289
5612.82945557,0.00152661
5614.75826294,0.00156028
5616.68707031,0.00154416
5618.61587769,0.00153586
5620.54468506,0.00156797
5622.47349243,0.00159262
5624.40229980,0.00156076
5626.33110718,0.00149773
5628.25991455,0.00156186
5630.18872192,0.00158262
5632.11752930,0.00155205
5634.04633667,0.00156728
5635.97514404,0.00158511
5637.90395142,0.00158872
5639.83275879,0.00153587
5641.76156616,0.00149834
5643.69037353,0.00146269
5645.61918091,0.00147233
5647.54798828,0.00151927
5649.47679565,0.00152950
5651.40560303,0.00146616
5653.33441040,0.00145180
5655.26321777,0.00156820
5657.19202515,0.00150383
5659.12083252,0.00141576
5661.04963989,0.00147152
5662.97844727,0.00149786
5664.90725464,0.00148186
5666.83606201,0.00140153
5668.76486938,0.00139857
5670.69367676,0.00140795
5672.62248413,0.00137693
5674.55129150,0.00147723
5676.48009888,0.00151064
5678.40890625,0.00139184
5680.33771362,0.00138998
5682.26652100,0.00143767
5684.19532837,0.00140957
5686.12413574,0.00142689
5688.05294311,0.00139513
5689.98175049,0.00138368
5691.91055786,0.00143139
5693.83936523,0.00137159
5695.76817261,0.00137069
5697.69697998,0.00136946
5699.62578735,0.00133466
5701.55459473,0.00143390
5703.48340210,0.00141455
5705.41220947,0.00130830
5707.34101685,0.00134944
5709.26982422,0.00141072
5711.19863159,0.00141550
5713.12743896,0.00138625
5715.05624634,0.00136155
5716.98505371,0.00132073
5718.91386108,0.00135475
5720.84266846,0.00136439
5722.77147583,0.00124889
5724.70028320,0.00137798
5726.62909058,0.00143780
5728.55789795,0.00130488
5730.48670532,0.00134236
5732.41551270,0.00130772
5734.34432007,0.00129398
5736.27312744,0.00131848
5738.20193481,0.00130489
5740.13074219,0.00131395
5742.05954956,0.00122778
5743.98835693,0.00124724
5745.91716431,0.00131343
5747.84597168,0.00135212
5749.77477905,0.00138793
5751.70358643,0.00128680
5753.63239380,0.00123463
5755.56120117,0.00129060
5757.49000854,0.00131944
5759.41881592,0.00129744
5761.34762329,0.00125311
5763.27643066,0.00123091
5765.20523804,0.00129571
5767.13404541,0.00135471
5769.06285278,0.00128510
5770.99166016,0.00124329
5772.92046753,0.00124170
5774.84927490,0.00121676
5776.77808228,0.00121953
5778.70688965,0.00126573
5780.63569702,0.00126669
5782.56450439,0.00120076
5784.49331177,0.00126526
5786.42211914,0.00126672
5788.35092651,0.00119288
5790.27973389,0.00123203
5792.20854126,0.00119744
5794.13734863,0.00121900
5796.06615601,0.00119918
5797.99496338,0.00111942
5799.92377075,0.00118769
5801.85257812,0.00123379
5803.78138550,0.00121897
5805.71019287,0.00112178
5807.63900024,0.00118207
5809.56780762,0.00122474
5811.49661499,0.00106599
5813.42542236,0.00114926
5815.35422974,0.00116004
5817.28303711,0.00104476
5819.21184448,0.00115195
5821.14065186,0.00122092
5823.06945923,0.00114505
5824.99826660,0.00116393
5826.92707397,0.00114842
5828.85588135,0.00106923
5830.78468872,0.00119044
5832.71349609,0.00118062
5834.64230347,0.00113825
5836.57111084,0.00115955
5838.49991821,0.00108699
5840.42872559,0.00113180
5842.35753296,0.00109701
5844.28634033,0.00108527
5846.21514770,0.00109615
5848.14395508,0.00105993
5850.07276245,0.00108259
5852.00156982,0.00111137
5853.93037720,0.00112376
5855.85918457,0.00103386
5857.78799194,0.00111320
5859.71679932,0.00112586
5861.64560669,0.00103806
5863.57441406,0.00106392
5865.50322144,0.00103418
5867.43202881,0.00106711
5869.36083618,0.00102039
5871.28964355,0.00103506
5873.21845093,0.00104974
5875.14725830,0.00102338
5877.07606567,0.00106988
5879.00487305,0.00105315
5880.93368042,0.00110618
5882.86248779,0.00100187
5884.79129517,0.00101020
5886.72010254,0.00107163
5888.64890991,0.00096560
5890.57771728,0.00104709
5892.50652466,0.00102918
5894.43533203,0.00100567
5896.36413940,0.00105065
5898.29294678,0.00107806
5900.22175415,0.00108130
5902.15056152,0.00100370
5904.07936890,0.00105816
5906.00817627,0.00103981
5907.93698364,0.00102524
5909.86579102,0.00108354
5911.79459839,0.00100926
5913.72340576,0.00100544
5915.65221313,0.00101430
5917.58102051,0.00097249
5919.50982788,0.00099618
5921.43863525,0.00097542
5923.36744263,0.00094900
5925.29625000,0.00092963
5927.22505737,0.00090826
5929.15386475,0.00099568
5931.08267212,0.00098832
5933.01147949,0.00097105
5934.94028686,0.00100451
5936.86909424,0.00092647
5938.79790161,0.00098320
5940.72670898,0.00099909
5942.65551636,0.00091176
5944.58432373,0.00096483
5946.51313110,0.00093894
5948.44193848,0.00090142
5950.37074585,0.00095074
5952.29955322,0.00095935
5954.22836060,0.00100530
5956.15716797,0.00093031
5958.08597534,0.00086054
5960.01478271,0.00095106
5961.94359009,0.00090826
5963.87239746,0.00092785
5965.80120483,0.00090914
5967.73001221,0.00088800
5969.65881958,0.00101232
5971.58762695,0.00090750
5973.51643433,0.00088071
5975.44524170,0.00087383
5977.37404907,0.00083777
5979.30285645,0.00092586
5981.23166382,0.00087605
5983.16047119,0.00087398
5985.08927856,0.00091265
5987.01808594,0.00091641
5988.94689331,0.00088107
5990.87570068,0.00087012
5992.80450806,0.00088201
5994.73331543,0.00084772
5996.66212280,0.00088660
5998.59093018,0.00090530
6000.51973755,0.00088049
