399.26312622,-0.00040513
401.19193359,-0.00011122
403.12074097,0.00053852
405.04954834,0.00018871
406.97835571,0.00006670
408.90716309,0.00021214
410.83597046,0.00058446
412.76477783,0.00076828
414.69358521,0.00082393
416.62239258,0.00093369
418.55119995,0.00049434
420.48000732,0.00061420
422.40881470,0.00070282
424.33762207,0.00061960
426.26642944,0.00066142
428.19523682,0.00015306
430.12404419,0.00054902
432.05285156,0.00052153
433.98165894,0.00025296
435.91046631,0.00103139
437.83927368,0.00106477
439.76808105,0.00068201
441.69688843,0.00024806
443.62569580,0.00039456
445.55450317,0.00042025
447.48331055,0.00007312
449.41211792,0.00059874
451.34092529,0.00047295
453.26973267,0.00051097
455.19854004,0.00084101
457.12734741,0.00041908
459.05615479,0.00058152
460.98496216,0.00063201
462.91376953,0.00031837
464.84257690,0.00039539
466.77138428,0.00009509
468.70019165,0.00002443
470.62899902,0.00030289
472.55780640,-0.00002488
474.48661377,0.00030907
476.41542114,0.00056686
478.34422852,0.00007743
480.27303589,0.00022424
482.20184326,0.00014422
484.13065063,-0.00004936
486.05945801,-0.00004225
487.98826538,-0.00004032
489.91707275,0.00003498
491.84588013,-0.00030497
493.77468750,0.00009589
495.70349487,0.00017675
497.63230225,-0.00038991
499.56110962,0.00001458
501.48991699,0.00021270
503.41872437,0.00018763
505.34753174,-0.00005779
507.27633911,-0.00007936
509.20514648,0.00044615
511.13395386,0.00029334
513.06276123,0.00024835
514.99156860,0.00024046
516.92037598,0.00020356
518.84918335,0.00010541
520.77799072,-0.00012359
522.70679810,0.00035690
524.63560547,0.00028798
526.56441284,0.00006551
528.49322021,0.00024097
530.42202759,0.00021520
532.35083496,0.00013090
534.27964233,-0.00013158
536.20844971,0.00007038
538.13725708,0.00025285
540.06606445,0.00018844
541.99487183,0.00000008
543.92367920,-0.00007573
545.85248657,0.00029642
547.78129395,0.00020319
549.71010132,0.00015490
551.63890869,0.00021112
553.56771606,0.00025903
555.49652344,0.00025326
557.42533081,0.00015557
559.35413818,0.00014817
561.28294556,-0.00003627
563.21175293,-0.00001627
565.14056030,0.00003333
567.06936768,0.00034430
568.99817505,0.00058223
570.92698242,0.00024949
572.85578979,0.00023042
574.78459717,0.00026969
576.71340454,0.00013064
578.64221191,0.00015942
580.57101929,-0.00006926
582.49982666,-0.00007867
584.42863403,0.00028826
586.35744141,0.00001310
588.28624878,-0.00022883
590.21505615,0.00000278
592.14386353,0.00008546
594.07267090,-0.00016297
596.00147827,0.00007930
597.93028564,0.00009974
599.85909302,0.00016402
601.78790039,0.00003275
603.71670776,-0.00020228
605.64551514,0.00011631
607.57432251,0.00027583
609.50312988,0.00058379
611.43193726,0.00009147
613.36074463,-0.00012579
615.28955200,-0.00004106
617.21835938,0.00036299
619.14716675,0.00052830
621.07597412,-0.00023639
623.00478149,0.00015599
624.93358887,-0.00007908
626.86239624,-0.00034280
628.79120361,-0.00003139
630.72001099,-0.00007140
632.64881836,0.00031972
634.57762573,0.00051786
636.50643311,0.00070171
638.43524048,0.00048873
640.36404785,0.00043576
642.29285522,0.00045080
644.22166260,0.00051011
646.15046997,0.00095722
648.07927734,0.00074842
650.00808472,0.00057360
651.93689209,0.00052036
653.86569946,0.00078360
655.79450684,0.00083083
657.72331421,0.00089437
659.65212158,0.00093813
661.58092896,0.00041336
663.50973633,0.00085392
665.43854370,0.00106580
667.36735107,0.00104747
669.29615845,0.00109540
671.22496582,0.00083448
673.15377319,0.00108216
675.08258057,0.00118049
677.01138794,0.00118519
678.94019531,0.00122894
680.86900269,0.00135268
682.79781006,0.00140664
684.72661743,0.00140288
686.65542480,0.00111347
688.58423218,0.00098408
690.51303955,0.00152336
692.44184692,0.00131218
694.37065430,0.00132587
696.29946167,0.00155053
698.22826904,0.00139950
700.15707642,0.00167688
702.08588379,0.00174431
704.01469116,0.00175712
705.94349854,0.00145754
707.87230591,0.00089314
709.80111328,0.00070972
711.72992065,0.00061140
713.65872803,0.00014623
715.58753540,-0.00014418
717.51634277,0.00009302
719.44515015,0.00008867
721.37395752,0.00030944
723.30276489,0.00023269
725.23157227,-0.00012607
727.16037964,-0.00004357
729.08918701,-0.00001527
731.01799438,-0.00001952
732.94680176,-0.00012969
734.87560913,-0.00006640
736.80441650,0.00004290
738.73322388,0.00032793
740.66203125,0.00021233
742.59083862,0.00023845
744.51964600,0.00047427
746.44845337,0.00001369
748.37726074,-0.00000465
750.30606812,0.00010872
752.23487549,0.00014141
754.16368286,0.00038575
756.09249023,0.00025235
758.02129761,0.00015333
759.95010498,0.00000571
761.87891235,0.00005388
763.80771973,0.00034999
765.73652710,0.00026581
767.66533447,0.00028675
769.59414185,0.00026031
771.52294922,0.00026844
773.45175659,0.00028036
775.38056396,0.00033342
777.30937134,0.00045886
779.23817871,0.00022213
781.16698608,0.00038295
783.09579346,0.00019191
785.02460083,-0.00016479
786.95340820,0.00018442
788.88221558,0.00003187
790.81102295,-0.00008943
792.73983032,0.00020794
794.66863770,0.00011807
796.59744507,0.00020491
798.52625244,0.00043779
800.45505981,0.00031852
802.38386719,0.00031257
804.31267456,0.00011800
806.24148193,0.00006440
808.17028931,0.00031354
810.09909668,0.00016719
812.02790405,0.00044171
813.95671143,0.00037979
815.88551880,0.00020924
817.81432617,0.00055770
819.74313354,0.00028495
821.67194092,0.00014176
823.60074829,0.00026134
825.52955566,0.00039435
827.45836304,0.00037144
829.38717041,0.00024446
831.31597778,0.00030807
833.24478516,0.00039365
835.17359253,0.00058851
837.10239990,0.00047976
839.03120728,0.00061517
840.96001465,0.00058604
842.88882202,0.00045991
844.81762939,0.00049535
846.74643677,0.00028139
848.67524414,0.00056957
850.60405151,0.00040421
852.53285889,0.00023292
854.46166626,0.00052111
856.39047363,0.00049673
858.31928101,0.00034375
860.24808838,0.00020224
862.17689575,0.00033751
864.10570313,0.00029045
866.03451050,0.00037154
867.96331787,0.00021710
869.89212524,0.00014219
871.82093262,0.00046337
873.74973999,0.00045073
875.67854736,0.00032078
877.60735474,0.00007031
879.53616211,0.00021322
881.46496948,0.00010440
883.39377686,0.00034182
885.32258423,0.00049366
887.25139160,-0.00016241
889.18019897,0.00028535
891.10900635,0.00037079
893.03781372,0.00020903
894.96662109,0.00050711
896.89542847,0.00041720
898.82423584,0.00049760
900.75304321,0.00035896
902.68185059,0.00038964
904.61065796,0.00037554
906.53946533,0.00033876
908.46827271,0.00057944
910.39708008,0.00043599
912.32588745,0.00037603
914.25469482,0.00030480
916.18350220,0.00031126
918.11230957,0.00058089
920.04111694,0.00038826
921.96992432,0.00037695
923.89873169,0.00070867
925.82753906,0.00038234
927.75634644,0.00040112
929.68515381,0.00065502
931.61396118,0.00059149
933.54276855,0.00084554
935.47157593,0.00080662
937.40038330,0.00091367
939.32919067,0.00079465
941.25799805,0.00051812
943.18680542,0.00074135
945.11561279,0.00066603
947.04442017,0.00075580
948.97322754,0.00081328
950.90203491,0.00083549
952.83084229,0.00083738
954.75964966,0.00076562
956.68845703,0.00087318
958.61726440,0.00073321
960.54607178,0.00083967
962.47487915,0.00081178
964.40368652,0.00078106
966.33249390,0.00091283
968.26130127,0.00086275
970.19010864,0.00090699
972.11891602,0.00082471
974.04772339,0.00104171
975.97653076,0.00118700
977.90533813,0.00111245
979.83414551,0.00111721
981.76295288,0.00126405
983.69176025,0.00151879
985.62056763,0.00149042
987.54937500,0.00182278
989.47818237,0.00197566
991.40698975,0.00185433
993.33579712,0.00222214
995.26460449,0.00257365
997.19341187,0.00269077
999.12221924,0.00270124
1001.05102661,0.00299057
1002.97983398,0.00326907
1004.90864136,0.00329817
1006.83744873,0.00354683
1008.76625610,0.00384230
1010.69506348,0.00398454
1012.62387085,0.00428085
1014.55267822,0.00457419
1016.48148560,0.00476660
1018.41029297,0.00513548
1020.33910034,0.00527125
1022.26790771,0.00555996
1024.19671509,0.00582859
1026.12552246,0.00577530
1028.05432983,0.00626350
1029.98313721,0.00636145
1031.91194458,0.00619767
1033.84075195,0.00669135
1035.76955933,0.00697432
1037.69836670,0.00693572
1039.62717407,0.00690120
1041.55598145,0.00681994
1043.48478882,0.00668437
1045.41359619,0.00662804
1047.34240356,0.00653528
1049.27121094,0.00647449
1051.20001831,0.00668953
1053.12882568,0.00660612
1055.05763306,0.00635501
1056.98644043,0.00626841
1058.91524780,0.00600689
1060.84405518,0.00582050
1062.77286255,0.00575093
1064.70166992,0.00557222
1066.63047729,0.00537111
1068.55928467,0.00520890
1070.48809204,0.00507810
1072.41689941,0.00492575
1074.34570679,0.00454059
1076.27451416,0.00407072
1078.20332153,0.00405178
1080.13212891,0.00400056
1082.06093628,0.00381109
1083.98974365,0.00375671
1085.91855103,0.00352626
1087.84735840,0.00335361
1089.77616577,0.00304727
1091.70497314,0.00294321
1093.63378052,0.00298819
1095.56258789,0.00278400
1097.49139526,0.00284542
1099.42020264,0.00272254
1101.34901001,0.00267857
1103.27781738,0.00266424
1105.20662476,0.00250909
1107.13543213,0.00253487
1109.06423950,0.00231090
1110.99304687,0.00243011
1112.92185425,0.00251644
1114.85066162,0.00233452
1116.77946899,0.00254089
1118.70827637,0.00257929
1120.63708374,0.00245041
1122.56589111,0.00250292
1124.49469849,0.00262950
1126.42350586,0.00266521
1128.35231323,0.00258894
1130.28112061,0.00252364
1132.20992798,0.00264536
1134.13873535,0.00287374
1136.06754272,0.00292246
1137.99635010,0.00294049
1139.92515747,0.00323854
1141.85396484,0.00344512
1143.78277222,0.00349776
1145.71157959,0.00399659
1147.64038696,0.00430476
1149.56919434,0.00426355
1151.49800171,0.00444380
1153.42680908,0.00472293
1155.35561646,0.00508022
1157.28442383,0.00519544
1159.21323120,0.00524703
1161.14203857,0.00553862
1163.07084595,0.00571930
1164.99965332,0.00580978
1166.92846069,0.00615545
1168.85726807,0.00648789
1170.78607544,0.00674373
1172.71488281,0.00698821
1174.64369019,0.00698729
1176.57249756,0.00738408
1178.50130493,0.00767478
1180.43011230,0.00788452
1182.35891968,0.00851307
1184.28772705,0.00883850
1186.21653442,0.00923675
1188.14534180,0.00937933
1190.07414917,0.00967213
1192.00295654,0.01044940
1193.93176392,0.01092685
1195.86057129,0.01149060
1197.78937866,0.01207047
1199.71818604,0.01259776
1201.64699341,0.01297784
1203.57580078,0.01360750
1205.50460815,0.01423163
1207.43341553,0.01443791
1209.36222290,0.01504499
1211.29103027,0.01554549
1213.21983765,0.01595015
1215.14864502,0.01640368
1217.07745239,0.01671695
1219.00625977,0.01706639
1220.93506714,0.01722069
1222.86387451,0.01737974
1224.79268188,0.01773496
1226.72148926,0.01809367
1228.65029663,0.01790570
1230.57910400,0.01794514
1232.50791138,0.01828782
1234.43671875,0.01799412
1236.36552612,0.01808834
1238.29433350,0.01839771
1240.22314087,0.01819877
1242.15194824,0.01793465
1244.08075562,0.01777930
1246.00956299,0.01782393
1247.93837036,0.01789071
1249.86717773,0.01789577
1251.79598511,0.01782097
1253.72479248,0.01766367
1255.65359985,0.01749811
1257.58240723,0.01710832
1259.51121460,0.01669552
1261.44002197,0.01666685
1263.36882935,0.01653193
1265.29763672,0.01621913
1267.22644409,0.01600778
1269.15525146,0.01560420
1271.08405884,0.01545896
1273.01286621,0.01543730
1274.94167358,0.01516707
1276.87048096,0.01489425
1278.79928833,0.01444466
1280.72809570,0.01424511
1282.65690308,0.01405282
1284.58571045,0.01375358
1286.51451782,0.01366597
1288.44332520,0.01327955
1290.37213257,0.01318592
1292.30093994,0.01310196
1294.22974731,0.01290494
1296.15855469,0.01300524
1298.08736206,0.01276421
1300.01616943,0.01302776
1301.94497681,0.01311003
1303.87378418,0.01294595
1305.80259155,0.01348820
1307.73139893,0.01344875
1309.66020630,0.01364706
1311.58901367,0.01400061
1313.51782104,0.01409341
1315.44662842,0.01461050
1317.37543579,0.01474961
1319.30424316,0.01529889
1321.23305054,0.01604712
1323.16185791,0.01623637
1325.09066528,0.01667272
1327.01947266,0.01730541
1328.94828003,0.01772697
1330.87708740,0.01807997
1332.80589478,0.01862841
1334.73470215,0.01896822
1336.66350952,0.01921668
1338.59231689,0.01919403
1340.52112427,0.01920004
1342.44993164,0.01991044
1344.37873901,0.02017288
1346.30754639,0.02009599
1348.23635376,0.02013464
1350.16516113,0.02012702
1352.09396851,0.02001513
1354.02277588,0.01978314
1355.95158325,0.01976893
1357.88039062,0.01947651
1359.80919800,0.01931414
1361.73800537,0.01869054
1363.66681274,0.01814168
1365.59562012,0.01904326
1367.52442749,0.01879382
1369.45323486,0.01851605
1371.38204224,0.01885299
1373.31084961,0.01795502
1375.23965698,0.01815140
1377.16846436,0.01871955
1379.09727173,0.01860089
1381.02607910,0.01865666
1382.95488647,0.01856080
1384.88369385,0.01842701
1386.81250122,0.01777260
1388.74130859,0.01793389
1390.67011597,0.01939436
1392.59892334,0.01915196
1394.52773071,0.01785968
1396.45653809,0.01860788
1398.38534546,0.01860992
1400.31415283,0.01858886
1402.24296021,0.02008606
1404.17176758,0.01886304
1406.10057495,0.01894345
1408.02938232,0.01988258
1409.95818970,0.01923633
1411.88699707,0.01962779
1413.81580444,0.01887959
1415.74461182,0.01909989
1417.67341919,0.01746818
1419.60222656,0.01564032
1421.53103394,0.01778058
1423.45984131,0.01736683
1425.38864868,0.01694686
1427.31745605,0.01715429
1429.24626343,0.01592075
1431.17507080,0.01562106
1433.10387817,0.01575558
1435.03268555,0.01433626
1436.96149292,0.01223203
1438.89030029,0.01369441
1440.81910767,0.01406359
1442.74791504,0.01314544
1444.67672241,0.01391117
1446.60552979,0.01293817
1448.53433716,0.01308526
1450.46314453,0.01353305
1452.39195190,0.01373655
1454.32075928,0.01426272
1456.24956665,0.01189745
1458.17837402,0.01236139
1460.10718140,0.01646958
1462.03598877,0.01748616
1463.96479614,0.01737381
1465.89360352,0.01818398
1467.82241089,0.02053409
1469.75121826,0.02206674
1471.68002563,0.01977720
1473.60883301,0.02084642
1475.53764038,0.02372860
1477.46644775,0.02545520
1479.39525513,0.02784598
1481.32406250,0.02817220
1483.25286987,0.03008245
1485.18167725,0.03108021
1487.11048462,0.03049887
1489.03929199,0.03032527
1490.96809937,0.03061282
1492.89690674,0.03550867
1494.82571411,0.03457160
1496.75452148,0.03137882
1498.68332886,0.03528152
1500.61213623,0.03619946
1502.54094360,0.03891893
1504.46975098,0.03688000
1506.39855835,0.02732615
1508.32736572,0.03308495
1510.25617310,0.03860333
1512.18498047,0.03742010
1514.11378784,0.04044214
1516.04259521,0.03668639
1517.97140259,0.03820211
1519.90020996,0.03709169
1521.82901733,0.03239469
1523.75782471,0.03933741
1525.68663208,0.03859085
1527.61543945,0.03843587
1529.54424683,0.04243185
1531.47305420,0.04069000
1533.40186157,0.03758734
1535.33066895,0.03978343
1537.25947632,0.04245723
1539.18828369,0.03115390
1541.11709106,0.03231361
1543.04589844,0.03813150
1544.97470581,0.03670767
1546.90351318,0.04328032
1548.83232056,0.04055298
1550.76112793,0.04188160
1552.68993530,0.04162057
1554.61874268,0.03803648
1556.54755005,0.04075259
1558.47635742,0.02926018
1560.40516479,0.03154270
1562.33397217,0.04409479
1564.26277954,0.04175656
1566.19158691,0.04292618
1568.12039429,0.04256513
1570.04920166,0.03802745
1571.97800903,0.04346491
1573.90681641,0.04398180
1575.83562378,0.03534988
1577.76443115,0.03976513
1579.69323853,0.04488213
1581.62204590,0.04295558
1583.55085327,0.04383317
1585.47966064,0.04334389
1587.40846802,0.04378773
1589.33727539,0.04342534
1591.26608276,0.04340322
1593.19489014,0.04352508
1595.12369751,0.04312850
1597.05250488,0.04379144
1598.98131226,0.04345392
1600.91011963,0.04366286
1602.83892700,0.04288919
1604.76773437,0.04355472
1606.69654175,0.04309826
1608.62534912,0.04296909
1610.55415649,0.04302068
1612.48296387,0.04339489
1614.41177124,0.04382499
1616.34057861,0.03630684
1618.26938599,0.03938184
1620.19819336,0.04554494
1622.12700073,0.04062364
1624.05580811,0.04092484
1625.98461548,0.04279228
1627.91342285,0.04247437
1629.84223022,0.04258650
1631.77103760,0.04534138
1633.69984497,0.04177750
1635.62865234,0.03485018
1637.55745972,0.04035369
1639.48626709,0.04420568
1641.41507446,0.04315091
1643.34388184,0.04440548
1645.27268921,0.04015710
1647.20149658,0.03552682
1649.13030396,0.04376487
1651.05911133,0.04157620
1652.98791870,0.02733561
1654.91672607,0.03648931
1656.84553345,0.04564330
1658.77434082,0.04364694
1660.70314819,0.04488448
1662.63195557,0.04104540
1664.56076294,0.04314949
1666.48957031,0.04629039
1668.41837769,0.04046089
1670.34718506,0.03959838
1672.27599243,0.04481144
1674.20479980,0.04135907
1676.13360718,0.03972885
1678.06241455,0.04557887
1679.99122192,0.04405430
1681.92002930,0.04348128
1683.84883667,0.03566770
1685.77764404,0.03541888
1687.70645142,0.04784169
1689.63525879,0.04166885
1691.56406616,0.04589181
1693.49287354,0.04670422
1695.42168091,0.03452091
1697.35048828,0.04238544
1699.27929565,0.03746193
1701.20810303,0.03389334
1703.13691040,0.04543198
1705.06571777,0.04199166
1706.99452515,0.04250411
1708.92333252,0.04602182
1710.85213989,0.04422633
1712.78094727,0.04488740
1714.70975464,0.04190984
1716.63856201,0.03762300
1718.56736938,0.03719171
1720.49617676,0.04387667
1722.42498413,0.04537249
1724.35379150,0.04230477
1726.28259888,0.04575735
1728.21140625,0.04259466
1730.14021362,0.04292551
1732.06902100,0.04176281
1733.99782837,0.03222563
1735.92663574,0.03984234
1737.85544312,0.04390167
1739.78425049,0.03911158
1741.71305786,0.04260386
1743.64186523,0.04304199
1745.57067261,0.04333320
1747.49947998,0.04361434
1749.42828735,0.04175762
1751.35709473,0.04031634
1753.28590210,0.04410921
1755.21470947,0.04635182
1757.14351685,0.04252785
1759.07232422,0.04657052
1761.00113159,0.04406546
1762.92993896,0.04240559
1764.85874634,0.04838536
1766.78755371,0.04362522
1768.71636108,0.04400340
1770.64516846,0.04392496
1772.57397583,0.03977610
1774.50278320,0.04419377
1776.43159058,0.04641455
1778.36039795,0.04581310
1780.28920532,0.04536723
1782.21801270,0.04570457
1784.14682007,0.04560200
1786.07562744,0.04489911
1788.00443481,0.04716147
1789.93324219,0.04594192
1791.86204956,0.04182893
1793.79085693,0.04362014
1795.71966431,0.04655360
1797.64847168,0.04594935
1799.57727905,0.04546969
1801.50608643,0.04461972
1803.43489380,0.04619493
1805.36370117,0.04724814
1807.29250854,0.04649873
1809.22131592,0.04685502
1811.15012329,0.04561218
1813.07893066,0.04701780
1815.00773804,0.04727510
1816.93654541,0.04678955
1818.86535278,0.04724725
1820.79416016,0.04712338
1822.72296753,0.04773073
1824.65177490,0.04448132
1826.58058228,0.04627224
1828.50938965,0.04647800
1830.43819702,0.04372540
1832.36700439,0.04743672
1834.29581177,0.04701271
1836.22461914,0.04701333
1838.15342651,0.04681245
1840.08223389,0.04732225
1842.01104126,0.04735482
1843.93984863,0.04209681
1845.86865601,0.04496604
1847.79746338,0.04721353
1849.72627075,0.04641748
1851.65507812,0.04787355
1853.58388550,0.04673267
1855.51269287,0.04732697
1857.44150024,0.04705535
1859.37030762,0.04679979
1861.29911499,0.04732279
1863.22792236,0.04685176
1865.15672974,0.04735000
1867.08553711,0.04560659
1869.01434448,0.04383526
1870.94315186,0.04575381
1872.87195923,0.04735521
1874.80076660,0.04669339
1876.72957397,0.04690133
1878.65838135,0.04679877
1880.58718872,0.04673068
1882.51599609,0.04709988
1884.44480347,0.04630737
1886.37361084,0.04697238
1888.30241821,0.04596156
1890.23122559,0.04501211
1892.16003296,0.04679429
1894.08884033,0.04602188
1896.01764771,0.04584714
1897.94645508,0.04660379
1899.87526245,0.04616576
1901.80406982,0.04653497
1903.73287720,0.04629076
1905.66168457,0.04638217
1907.59049194,0.04610130
1909.51929932,0.04556541
1911.44810669,0.04600072
1913.37691406,0.04605740
1915.30572144,0.04637323
1917.23452881,0.04476254
1919.16333618,0.04476183
1921.09214355,0.04638933
1923.02095093,0.04494858
1924.94975830,0.04570780
1926.87856567,0.04629627
1928.80737305,0.04576218
1930.73618042,0.04635881
1932.66498779,0.04581773
1934.59379517,0.04626425
1936.52260254,0.04604980
1938.45140991,0.04608417
1940.38021729,0.04613987
1942.30902466,0.04488296
1944.23783203,0.04556135
1946.16663940,0.04606768
1948.09544678,0.04603560
1950.02425415,0.04611038
1951.95306152,0.04609426
1953.88186890,0.04624796
1955.81067627,0.04603356
1957.73948364,0.04615990
1959.66829102,0.04596533
1961.59709839,0.04590778
1963.52590576,0.04628570
1965.45471313,0.04598750
1967.38352051,0.04551058
1969.31232788,0.04591969
1971.24113525,0.04611338
1973.16994263,0.04591772
1975.09875000,0.04616180
1977.02755737,0.04588902
1978.95636475,0.04605033
1980.88517212,0.04608530
1982.81397949,0.04590154
1984.74278687,0.04606122
1986.67159424,0.04564882
1988.60040161,0.04584420
1990.52920898,0.04542761
1992.45801636,0.04507233
1994.38682373,0.04578373
1996.31563110,0.04562457
1998.24443848,0.04554064
2000.17324585,0.04552510
2002.10205322,0.04538469
2004.03086060,0.04551399
2005.95966797,0.04536526
2007.88847534,0.04527547
2009.81728271,0.04521237
2011.74609009,0.04523280
2013.67489746,0.04533344
2015.60370483,0.04498516
2017.53251221,0.04466059
2019.46131958,0.04486138
2021.39012695,0.04490033
2023.31893433,0.04470031
2025.24774170,0.04474690
2027.17654907,0.04468283
2029.10535645,0.04462173
2031.03416382,0.04484202
2032.96297119,0.04467234
2034.89177856,0.04437964
2036.82058594,0.04442751
2038.74939331,0.04425597
2040.67820068,0.04408544
2042.60700806,0.04408256
2044.53581543,0.04407888
2046.46462280,0.04413456
2048.39343018,0.04406292
2050.32223755,0.04395989
2052.25104492,0.04392593
2054.17985229,0.04389848
2056.10865967,0.04389122
2058.03746704,0.04379766
2059.96627441,0.04366164
2061.89508179,0.04370796
2063.82388916,0.04354100
2065.75269653,0.04335351
2067.68150391,0.04345918
2069.61031128,0.04337863
2071.53911865,0.04333372
2073.46792603,0.04326049
2075.39673340,0.04320711
2077.32554077,0.04314645
2079.25434814,0.04309983
2081.18315552,0.04323356
2083.11196289,0.04309162
2085.04077026,0.04305760
2086.96957764,0.04291981
2088.89838501,0.04280475
2090.82719238,0.04287760
2092.75599976,0.04279497
2094.68480713,0.04285115
2096.61361450,0.04275544
2098.54242187,0.04276243
2100.47122925,0.04259017
2102.40003662,0.04244347
2104.32884399,0.04260948
2106.25765137,0.04248400
2108.18645874,0.04252492
2110.11526611,0.04238394
2112.04407349,0.04217402
2113.97288086,0.04226309
2115.90168823,0.04227437
2117.83049561,0.04223537
2119.75930298,0.04216146
2121.68811035,0.04211680
2123.61691772,0.04215972
2125.54572510,0.04211544
2127.47453247,0.04190762
2129.40333984,0.04199704
2131.33214722,0.04187999
2133.26095459,0.04186080
2135.18976196,0.04208850
2137.11856934,0.04173292
2139.04737671,0.04182047
2140.97618408,0.04195305
2142.90499146,0.04181840
2144.83379883,0.04186847
2146.76260620,0.04174747
2148.69141357,0.04177891
2150.62022095,0.04173766
2152.54902832,0.04165017
2154.47783569,0.04169654
2156.40664307,0.04172889
2158.33545044,0.04162294
2160.26425781,0.04164246
2162.19306519,0.04167705
2164.12187256,0.04148825
2166.05067993,0.04151753
2167.97948730,0.04147536
2169.90829468,0.04152346
2171.83710205,0.04143457
2173.76590942,0.04131592
2175.69471680,0.04151240
2177.62352417,0.04137676
2179.55233154,0.04138363
2181.48113892,0.04145494
2183.40994629,0.04134793
2185.33875366,0.04130048
2187.26756104,0.04129293
2189.19636841,0.04119158
2191.12517578,0.04112212
2193.05398315,0.04122692
2194.98279053,0.04117648
2196.91159790,0.04128096
2198.84040527,0.04108471
2200.76921265,0.04095494
2202.69802002,0.04117810
2204.62682739,0.04107788
2206.55563477,0.04116416
2208.48444214,0.04104798
2210.41324951,0.04100517
2212.34205688,0.04108155
2214.27086426,0.04102063
2216.19967163,0.04101473
2218.12847900,0.04073996
2220.05728638,0.04084974
2221.98609375,0.04082586
2223.91490112,0.04077245
2225.84370850,0.04088861
2227.77251587,0.04064887
2229.70132324,0.04072729
2231.63013062,0.04065923
2233.55893799,0.04061810
2235.48774536,0.04062422
2237.41655273,0.04040802
2239.34536011,0.04055190
2241.27416748,0.04054373
2243.20297485,0.04040477
2245.13178223,0.04032899
2247.06058960,0.04030154
2248.98939697,0.04033194
2250.91820435,0.04034264
2252.84701172,0.04033761
2254.77581909,0.04013325
2256.70462646,0.04009275
2258.63343384,0.04005861
2260.56224121,0.04009455
2262.49104858,0.04014652
2264.41985596,0.03994413
2266.34866333,0.04003756
2268.27747070,0.03998448
2270.20627808,0.03995792
2272.13508545,0.04007926
2274.06389282,0.04000670
2275.99270020,0.04002052
2277.92150757,0.03983009
2279.85031494,0.03983231
2281.77912231,0.03988198
2283.70792969,0.03975550
2285.63673706,0.03969411
2287.56554443,0.03959360
2289.49435181,0.03960988
2291.42315918,0.03949217
2293.35196655,0.03946748
2295.28077393,0.03928122
2297.20958130,0.03916035
2299.13838867,0.03930385
2301.06719604,0.03908283
2302.99600342,0.03897187
2304.92481079,0.03868504
2306.85361816,0.03851122
2308.78242554,0.03841462
2310.71123291,0.03790941
2312.64004028,0.03761431
2314.56884766,0.03728962
2316.49765503,0.03686651
2318.42646240,0.03642761
2320.35526978,0.03607592
2322.28407715,0.03550326
2324.21288452,0.03499410
2326.14169189,0.03480431
2328.07049927,0.03434017
2329.99930664,0.03406667
2331.92811401,0.03378426
2333.85692139,0.03364834
2335.78572876,0.03354853
2337.71453613,0.03344170
2339.64334351,0.03350223
2341.57215088,0.03347472
2343.50095825,0.03418868
2345.42976562,0.03480627
2347.35857300,0.03608668
2349.28738037,0.03745886
2351.21618774,0.03616416
2353.14499512,0.03436595
2355.07380249,0.03325855
2357.00260986,0.03216600
2358.93141724,0.03154442
2360.86022461,0.03133744
2362.78903198,0.03124752
2364.71783936,0.03132048
2366.64664673,0.03172254
2368.57545410,0.03232839
2370.50426147,0.03327676
2372.43306885,0.03417019
2374.36187622,0.03508450
2376.29068359,0.03601050
2378.21949097,0.03674082
2380.14829834,0.03750746
2382.07710571,0.03784106
2384.00591309,0.03809317
2385.93472046,0.03827706
2387.86352783,0.03827227
2389.79233521,0.03837367
2391.72114258,0.03836294
2393.64994995,0.03829046
2395.57875732,0.03820599
2397.50756470,0.03823845
2399.43637207,0.03825418
2401.36517944,0.03818510
2403.29398682,0.03809287
2405.22279419,0.03814062
2407.15160156,0.03812008
2409.08040894,0.03793884
2411.00921631,0.03806134
2412.93802368,0.03795643
2414.86683105,0.03786725
2416.79563843,0.03797559
2418.72444580,0.03782293
2420.65325317,0.03778709
2422.58206055,0.03783792
2424.51086792,0.03776469
2426.43967529,0.03765121
2428.36848267,0.03770650
2430.29729004,0.03773738
2432.22609741,0.03776705
2434.15490479,0.03777810
2436.08371216,0.03768437
2438.01251953,0.03766523
2439.94132690,0.03746568
2441.87013428,0.03748243
2443.79894165,0.03756807
2445.72774902,0.03750250
2447.65655640,0.03752197
2449.58536377,0.03741277
2451.51417114,0.03740820
2453.44297852,0.03738452
2455.37178589,0.03733356
2457.30059326,0.03730656
2459.22940063,0.03722384
2461.15820801,0.03725094
2463.08701538,0.03733053
2465.01582275,0.03724980
2466.94463013,0.03707996
2468.87343750,0.03718484
2470.80224487,0.03711001
2472.73105225,0.03699551
2474.65985962,0.03705026
2476.58866699,0.03700801
2478.51747437,0.03711095
2480.44628174,0.03698013
2482.37508911,0.03690766
2484.30389648,0.03689575
2486.23270386,0.03670068
2488.16151123,0.03679043
2490.09031860,0.03682248
2492.01912598,0.03688554
2493.94793335,0.03690052
2495.87674072,0.03672083
2497.80554810,0.03671321
2499.73435547,0.03669765
2501.66316284,0.03671761
2503.59197021,0.03665806
2505.52077759,0.03654430
2507.44958496,0.03661028
2509.37839233,0.03656100
2511.30719971,0.03652022
2513.23600708,0.03654014
2515.16481445,0.03643695
2517.09362183,0.03644238
2519.02242920,0.03648631
2520.95123657,0.03642180
2522.88004395,0.03639032
2524.80885132,0.03635080
2526.73765869,0.03634202
2528.66646606,0.03639975
2530.59527344,0.03629378
2532.52408081,0.03614189
2534.45288818,0.03616722
2536.38169556,0.03623202
2538.31050293,0.03616428
2540.23931030,0.03606109
2542.16811768,0.03608388
2544.09692505,0.03601061
2546.02573242,0.03598630
2547.95453979,0.03603648
2549.88334717,0.03594865
2551.81215454,0.03600617
2553.74096191,0.03590526
2555.66976929,0.03578886
2557.59857666,0.03585311
2559.52738403,0.03579050
2561.45619141,0.03582091
2563.38499878,0.03575970
2565.31380615,0.03567956
2567.24261353,0.03564977
2569.17142090,0.03567493
2571.10022827,0.03577229
2573.02903564,0.03570880
2574.95784302,0.03569375
2576.88665039,0.03548457
2578.81545776,0.03541114
2580.74426514,0.03559944
2582.67307251,0.03551520
2584.60187988,0.03550626
2586.53068726,0.03543618
2588.45949463,0.03533015
2590.38830200,0.03544255
2592.31710937,0.03534787
2594.24591675,0.03523902
2596.17472412,0.03530845
2598.10353149,0.03523048
2600.03233887,0.03522792
2601.96114624,0.03521143
2603.88995361,0.03512979
2605.81876099,0.03518098
2607.74756836,0.03508211
2609.67637573,0.03510673
2611.60518311,0.03508223
2613.53399048,0.03501390
2615.46279785,0.03501807
2617.39160522,0.03487476
2619.32041260,0.03491143
2621.24921997,0.03485993
2623.17802734,0.03491938
2625.10683472,0.03482788
2627.03564209,0.03471215
2628.96444946,0.03483766
2630.89325684,0.03460537
2632.82206421,0.03471510
2634.75087158,0.03464975
2636.67967895,0.03457470
2638.60848633,0.03469607
2640.53729370,0.03442339
2642.46610107,0.03462324
2644.39490845,0.03459719
2646.32371582,0.03442243
2648.25252319,0.03455118
2650.18133057,0.03446910
2652.11013794,0.03438273
2654.03894531,0.03438489
2655.96775269,0.03445594
2657.89656006,0.03428189
2659.82536743,0.03422330
2661.75417480,0.03427428
2663.68298218,0.03416704
2665.61178955,0.03416882
2667.54059692,0.03414807
2669.46940430,0.03403462
2671.39821167,0.03404108
2673.32701904,0.03414240
2675.25582642,0.03391156
2677.18463379,0.03389199
2679.11344116,0.03390963
2681.04224854,0.03382880
2682.97105591,0.03400142
2684.89986328,0.03380451
2686.82867065,0.03381449
2688.75747803,0.03382801
2690.68628540,0.03370693
2692.61509277,0.03376938
2694.54390015,0.03366574
2696.47270752,0.03374826
2698.40151489,0.03363703
2700.33032227,0.03354859
2702.25912964,0.03364239
2704.18793701,0.03358082
2706.11674438,0.03350899
2708.04555176,0.03340554
2709.97435913,0.03351888
2711.90316650,0.03349384
2713.83197388,0.03335796
2715.76078125,0.03337969
2717.68958862,0.03329841
2719.61839600,0.03327174
2721.54720337,0.03334447
2723.47601074,0.03326967
2725.40481812,0.03312768
2727.33362549,0.03314099
2729.26243286,0.03313198
2731.19124023,0.03308590
2733.12004761,0.03303452
2735.04885498,0.03301370
2736.97766235,0.03297266
2738.90646973,0.03286991
2740.83527710,0.03290319
2742.76408447,0.03287957
2744.69289185,0.03285487
2746.62169922,0.03278114
2748.55050659,0.03269864
2750.47931396,0.03275635
2752.40812134,0.03270036
2754.33692871,0.03271229
2756.26573608,0.03264464
2758.19454346,0.03248492
2760.12335083,0.03256491
2762.05215820,0.03254694
2763.98096558,0.03247311
2765.90977295,0.03249518
2767.83858032,0.03235609
2769.76738770,0.03229729
2771.69619507,0.03226350
2773.62500244,0.03226007
2775.55380981,0.03238094
2777.48261719,0.03219244
2779.41142456,0.03215490
2781.34023193,0.03219228
2783.26903931,0.03208760
2785.19784668,0.03212592
2787.12665405,0.03199306
2789.05546143,0.03194246
2790.98426880,0.03190935
2792.91307617,0.03184264
2794.84188354,0.03181387
2796.77069092,0.03181224
2798.69949829,0.03186549
2800.62830566,0.03165662
2802.55711304,0.03166432
2804.48592041,0.03169794
2806.41472778,0.03152017
2808.34353516,0.03154168
2810.27234253,0.03149512
2812.20114990,0.03138710
2814.12995728,0.03147072
2816.05876465,0.03144048
2817.98757202,0.03122007
2819.91637939,0.03127724
2821.84518677,0.03120969
2823.77399414,0.03115900
2825.70280151,0.03126777
2827.63160889,0.03106448
2829.56041626,0.03103442
2831.48922363,0.03097820
2833.41803101,0.03092701
2835.34683838,0.03094605
2837.27564575,0.03082291
2839.20445312,0.03081574
2841.13326050,0.03075514
2843.06206787,0.03064421
2844.99087524,0.03048744
2846.91968262,0.03046963
2848.84848999,0.03036461
2850.77729736,0.03019818
2852.70610474,0.03022065
2854.63491211,0.03007895
2856.56371948,0.03008121
2858.49252686,0.03008810
2860.42133423,0.03005069
2862.35014160,0.03011062
2864.27894897,0.03001700
2866.20775635,0.02993270
2868.13656372,0.02988152
2870.06537109,0.02984585
2871.99417847,0.02982695
2873.92298584,0.02980189
2875.85179321,0.02978806
2877.78060059,0.02978642
2879.70940796,0.02967861
2881.63821533,0.02964121
2883.56702270,0.02968291
2885.49583008,0.02962661
2887.42463745,0.02965596
2889.35344482,0.02957717
2891.28225220,0.02952491
2893.21105957,0.02950260
2895.13986694,0.02946481
2897.06867432,0.02942762
2898.99748169,0.02919593
2900.92628906,0.02912171
2902.85509644,0.02908301
2904.78390381,0.02907163
2906.71271118,0.02905171
2908.64151855,0.02896104
2910.57032593,0.02894007
2912.49913330,0.02874868
2914.42794067,0.02860164
2916.35674805,0.02851863
2918.28555542,0.02848444
2920.21436279,0.02844515
2922.14317017,0.02837738
2924.07197754,0.02841438
2926.00078491,0.02833986
2927.92959229,0.02828461
2929.85839966,0.02828904
2931.78720703,0.02829682
2933.71601440,0.02832448
2935.64482178,0.02832010
2937.57362915,0.02832861
2939.50243652,0.02839198
2941.43124390,0.02835091
2943.36005127,0.02825793
2945.28885864,0.02833345
2947.21766602,0.02827958
2949.14647339,0.02815356
2951.07528076,0.02807700
2953.00408813,0.02808874
2954.93289551,0.02809879
2956.86170288,0.02794266
2958.79051025,0.02794312
2960.71931763,0.02785493
2962.64812500,0.02775697
2964.57693237,0.02784122
2966.50573975,0.02781088
2968.43454712,0.02780197
2970.36335449,0.02780870
2972.29216187,0.02777551
2974.22096924,0.02778474
2976.14977661,0.02784356
2978.07858398,0.02793560
2980.00739136,0.02796216
2981.93619873,0.02786124
2983.86500610,0.02786643
2985.79381348,0.02787121
2987.72262085,0.02771734
2989.65142822,0.02771394
2991.58023560,0.02774611
2993.50904297,0.02764613
2995.43785034,0.02758569
2997.36665771,0.02765375
2999.29546509,0.02758181
3001.22427246,0.02750829
3003.15307983,0.02754008
3005.08188721,0.02743435
3007.01069458,0.02740214
3008.93950195,0.02739266
3010.86830933,0.02737947
3012.79711670,0.02727742
3014.72592407,0.02729368
3016.65473145,0.02731768
3018.58353882,0.02715203
3020.51234619,0.02725748
3022.44115356,0.02717857
3024.36996094,0.02707139
3026.29876831,0.02703954
3028.22757568,0.02694573
3030.15638306,0.02690609
3032.08519043,0.02682464
3034.01399780,0.02693466
3035.94280518,0.02685573
3037.87161255,0.02680537
3039.80041992,0.02668577
3041.72922729,0.02664780
3043.65803467,0.02673069
3045.58684204,0.02648365
3047.51564941,0.02658640
3049.44445679,0.02650094
3051.37326416,0.02637241
3053.30207153,0.02637194
3055.23087891,0.02635094
3057.15968628,0.02643115
3059.08849365,0.02620386
3061.01730103,0.02630726
3062.94610840,0.02626765
3064.87491577,0.02615717
3066.80372314,0.02616105
3068.73253052,0.02604956
3070.66133789,0.02613333
3072.59014526,0.02597021
3074.51895264,0.02603266
3076.44776001,0.02604790
3078.37656738,0.02596524
3080.30537476,0.02595153
3082.23418213,0.02578170
3084.16298950,0.02586488
3086.09179687,0.02577721
3088.02060425,0.02576237
3089.94941162,0.02580734
3091.87821899,0.02566121
3093.80702637,0.02556686
3095.73583374,0.02548030
3097.66464111,0.02549738
3099.59344849,0.02542012
3101.52225586,0.02530784
3103.45106323,0.02534865
3105.37987061,0.02539672
3107.30867798,0.02524625
3109.23748535,0.02517119
3111.16629272,0.02522996
3113.09510010,0.02510579
3115.02390747,0.02498633
3116.95271484,0.02503899
3118.88152222,0.02502865
3120.81032959,0.02488517
3122.73913696,0.02490000
3124.66794434,0.02483174
3126.59675171,0.02477445
3128.52555908,0.02480546
3130.45436645,0.02474715
3132.38317383,0.02466334
3134.31198120,0.02453903
3136.24078857,0.02458630
3138.16959595,0.02448016
3140.09840332,0.02449637
3142.02721069,0.02445131
3143.95601807,0.02424985
3145.88482544,0.02436321
3147.81363281,0.02419898
3149.74244019,0.02419166
3151.67124756,0.02417039
3153.60005493,0.02397737
3155.52886230,0.02398849
3157.45766968,0.02399001
3159.38647705,0.02403000
3161.31528442,0.02385769
3163.24409180,0.02375302
3165.17289917,0.02374576
3167.10170654,0.02377880
3169.03051392,0.02367121
3170.95932129,0.02351158
3172.88812866,0.02355059
3174.81693604,0.02347172
3176.74574341,0.02346325
3178.67455078,0.02334352
3180.60335815,0.02337584
3182.53216553,0.02331145
3184.46097290,0.02311452
3186.38978027,0.02322089
3188.31858765,0.02317002
3190.24739502,0.02308408
3192.17620239,0.02293945
3194.10500977,0.02295499
3196.03381714,0.02287944
3197.96262451,0.02284428
3199.89143188,0.02297112
3201.82023926,0.02280031
3203.74904663,0.02283151
3205.67785400,0.02274176
3207.60666138,0.02260100
3209.53546875,0.02259254
3211.46427612,0.02262380
3213.39308350,0.02258073
3215.32189087,0.02253897
3217.25069824,0.02258860
3219.17950562,0.02238625
3221.10831299,0.02246115
3223.03712036,0.02235633
3224.96592773,0.02231096
3226.89473511,0.02236592
3228.82354248,0.02219574
3230.75234985,0.02234706
3232.68115723,0.02218291
3234.60996460,0.02215387
3236.53877197,0.02221701
3238.46757935,0.02216759
3240.39638672,0.02216696
3242.32519409,0.02206947
3244.25400146,0.02204079
3246.18280884,0.02190520
3248.11161621,0.02208664
3250.04042358,0.02209493
3251.96923096,0.02199475
3253.89803833,0.02192270
3255.82684570,0.02186376
3257.75565308,0.02206750
3259.68446045,0.02191053
3261.61326782,0.02189314
3263.54207520,0.02189879
3265.47088257,0.02190428
3267.39968994,0.02190734
3269.32849731,0.02179016
3271.25730469,0.02184776
3273.18611206,0.02172352
3275.11491943,0.02169378
3277.04372681,0.02169966
3278.97253418,0.02177240
3280.90134155,0.02166608
3282.83014893,0.02157755
3284.75895630,0.02167226
3286.68776367,0.02155500
3288.61657104,0.02165899
3290.54537842,0.02154019
3292.47418579,0.02149129
3294.40299316,0.02153914
3296.33180054,0.02141402
3298.26060791,0.02147366
3300.18941528,0.02147089
3302.11822266,0.02146779
3304.04703003,0.02141508
3305.97583740,0.02145010
3307.90464478,0.02135272
3309.83345215,0.02126080
3311.76225952,0.02132854
3313.69106689,0.02130475
3315.61987427,0.02133922
3317.54868164,0.02130090
3319.47748901,0.02128550
3321.40629639,0.02122511
3323.33510376,0.02122349
3325.26391113,0.02114299
3327.19271851,0.02118381
3329.12152588,0.02127689
3331.05033325,0.02110531
3332.97914062,0.02119914
3334.90794800,0.02108410
3336.83675537,0.02100160
3338.76556274,0.02100689
3340.69437012,0.02090592
3342.62317749,0.02092228
3344.55198486,0.02084278
3346.48079224,0.02096821
3348.40959961,0.02089107
3350.33840698,0.02077889
3352.26721436,0.02083929
3354.19602173,0.02075472
3356.12482910,0.02067376
3358.05363647,0.02068193
3359.98244385,0.02070787
3361.91125122,0.02056798
3363.84005859,0.02054085
3365.76886597,0.02055209
3367.69767334,0.02054465
3369.62648071,0.02047877
3371.55528809,0.02048334
3373.48409546,0.02052579
3375.41290283,0.02045682
3377.34171020,0.02050553
3379.27051758,0.02034358
3381.19932495,0.02032019
3383.12813232,0.02031511
3385.05693970,0.02025356
3386.98574707,0.02029251
3388.91455444,0.02025633
3390.84336182,0.02026735
3392.77216919,0.02010415
3394.70097656,0.02015367
3396.62978394,0.02004266
3398.55859131,0.02001448
3400.48739868,0.02012245
3402.41620605,0.01984561
3404.34501343,0.01994271
3406.27382080,0.01998230
3408.20262817,0.01988916
3410.13143555,0.01989113
3412.06024292,0.01990066
3413.98905029,0.01979480
3415.91785767,0.01971044
3417.84666504,0.01980564
3419.77547241,0.01964210
3421.70427979,0.01964194
3423.63308716,0.01971728
3425.56189453,0.01974997
3427.49070190,0.01956926
3429.41950928,0.01950592
3431.34831665,0.01963898
3433.27712402,0.01943922
3435.20593140,0.01946301
3437.13473877,0.01937104
3439.06354614,0.01948773
3440.99235352,0.01943244
3442.92116089,0.01921595
3444.84996826,0.01943483
3446.77877563,0.01912202
3448.70758301,0.01915955
3450.63639038,0.01931434
3452.56519775,0.01917186
3454.49400513,0.01924282
3456.42281250,0.01912660
3458.35161987,0.01909505
3460.28042725,0.01909145
3462.20923462,0.01909152
3464.13804199,0.01913711
3466.06684937,0.01912633
3467.99565674,0.01905998
3469.92446411,0.01903544
3471.85327148,0.01902623
3473.78207886,0.01898627
3475.71088623,0.01897928
3477.63969360,0.01898830
3479.56850098,0.01897399
3481.49730835,0.01874898
3483.42611572,0.01877092
3485.35492310,0.01890424
3487.28373047,0.01891381
3489.21253784,0.01888091
3491.14134521,0.01888701
3493.07015259,0.01898595
3494.99895996,0.01882551
3496.92776733,0.01886788
3498.85657471,0.01888501
3500.78538208,0.01881833
3502.71418945,0.01860024
3504.64299683,0.01853091
3506.57180420,0.01896330
3508.50061157,0.01866846
3510.42941895,0.01858708
3512.35822632,0.01887063
3514.28703369,0.01876244
3516.21584106,0.01876823
3518.14464844,0.01876178
3520.07345581,0.01883205
3522.00226318,0.01866771
3523.93107056,0.01843571
3525.85987793,0.01852183
3527.78868530,0.01858162
3529.71749268,0.01852595
3531.64630005,0.01873917
3533.57510742,0.01884097
3535.50391479,0.01860945
3537.43272217,0.01865330
3539.36152954,0.01868909
3541.29033691,0.01868683
3543.21914429,0.01857716
3545.14795166,0.01817863
3547.07675903,0.01800875
3549.00556641,0.01860907
3550.93437378,0.01870016
3552.86318115,0.01821292
3554.79198853,0.01861561
3556.72079590,0.01862749
3558.64960327,0.01854932
3560.57841064,0.01844554
3562.50721802,0.01835716
3564.43602539,0.01850026
3566.36483276,0.01722899
3568.29364014,0.01694344
3570.22244751,0.01821141
3572.15125488,0.01867140
3574.08006226,0.01851614
3576.00886963,0.01846747
3577.93767700,0.01841227
3579.86648437,0.01837205
3581.79529175,0.01850513
3583.72409912,0.01855804
3585.65290649,0.01814783
3587.58171387,0.01681675
3589.51052124,0.01730557
3591.43932861,0.01868388
3593.36813599,0.01808511
3595.29694336,0.01793271
3597.22575073,0.01827603
3599.15455811,0.01829376
3601.08336548,0.01814277
3603.01217285,0.01837412
3604.94098022,0.01871257
3606.86978760,0.01796390
3608.79859497,0.01691099
3610.72740234,0.01733182
3612.65620972,0.01776246
3614.58501709,0.01722412
3616.51382446,0.01837896
3618.44263184,0.01712975
3620.37143921,0.01655836
3622.30024658,0.01858454
3624.22905395,0.01808661
3626.15786133,0.01883245
3628.08666870,0.01610020
3630.01547607,0.01478721
3631.94428345,0.01836566
3633.87309082,0.01789529
3635.80189819,0.01822604
3637.73070557,0.01852561
3639.65951294,0.01834811
3641.58832031,0.01858162
3643.51712769,0.01825850
3645.44593506,0.01840798
3647.37474243,0.01659623
3649.30354980,0.01532800
3651.23235718,0.01545703
3653.16116455,0.01818412
3655.08997192,0.01799913
3657.01877930,0.01622168
3658.94758667,0.01859813
3660.87639404,0.01815280
3662.80520142,0.01840354
3664.73400879,0.01831893
3666.66281616,0.01811841
3668.59162354,0.01765563
3670.52043091,0.01456117
3672.44923828,0.01753165
3674.37804565,0.01665663
3676.30685303,0.01400819
3678.23566040,0.01744063
3680.16446777,0.01767952
3682.09327515,0.01781134
3684.02208252,0.01826091
3685.95088989,0.01795210
3687.87969727,0.01628080
3689.80850464,0.01497034
3691.73731201,0.01705628
3693.66611938,0.01748641
3695.59492676,0.01793653
3697.52373413,0.01786455
3699.45254150,0.01762194
3701.38134888,0.01726354
3703.31015625,0.01650551
3705.23896362,0.01817929
3707.16777100,0.01733886
3709.09657837,0.01695910
3711.02538574,0.01613926
3712.95419312,0.01504845
3714.88300049,0.01752894
3716.81180786,0.01721487
3718.74061523,0.01734875
3720.66942261,0.01709463
3722.59822998,0.01649088
3724.52703735,0.01714691
3726.45584473,0.01594210
3728.38465210,0.01719015
3730.31345947,0.01701964
3732.24226685,0.01577215
3734.17107422,0.01540611
3736.09988159,0.01456700
3738.02868896,0.01541017
3739.95749634,0.01661052
3741.88630371,0.01739198
3743.81511108,0.01369546
3745.74391846,0.01296043
3747.67272583,0.01658141
3749.60153320,0.01431290
3751.53034058,0.01334875
3753.45914795,0.01518967
3755.38795532,0.01621660
3757.31676270,0.01691832
3759.24557007,0.01574838
3761.17437744,0.01627900
3763.10318481,0.01719264
3765.03199219,0.01606960
3766.96079956,0.01644503
3768.88960693,0.01627752
3770.81841431,0.01548193
3772.74722168,0.01672186
3774.67602905,0.01682340
3776.60483643,0.01673588
3778.53364380,0.01627470
3780.46245117,0.01577551
3782.39125854,0.01681158
3784.32006592,0.01637449
3786.24887329,0.01628332
3788.17768066,0.01667345
3790.10648804,0.01653035
3792.03529541,0.01642198
3793.96410278,0.01669706
3795.89291016,0.01571613
3797.82171753,0.01558954
3799.75052490,0.01644418
3801.67933228,0.01316846
3803.60813965,0.01522488
3805.53694702,0.01649709
3807.46575439,0.01362978
3809.39456177,0.01632993
3811.32336914,0.01607621
3813.25217651,0.01654424
3815.18098389,0.01502107
3817.10979126,0.01333385
3819.03859863,0.01649757
3820.96740601,0.01353169
3822.89621338,0.01422384
3824.82502075,0.01642159
3826.75382812,0.01492298
3828.68263550,0.01590103
3830.61144287,0.01542018
3832.54025024,0.01505970
3834.46905762,0.01527879
3836.39786499,0.01453065
3838.32667236,0.01319109
3840.25547974,0.01418152
3842.18428711,0.01525128
3844.11309448,0.01460367
3846.04190186,0.01572563
3847.97070923,0.01557226
3849.89951660,0.01555891
3851.82832397,0.01398839
3853.75713135,0.01069435
3855.68593872,0.01257269
3857.61474609,0.01562287
3859.54355347,0.01518481
3861.47236084,0.01499896
3863.40116821,0.01475251
3865.32997559,0.01378539
3867.25878296,0.01534203
3869.18759033,0.01402519
3871.11639770,0.01301687
3873.04520508,0.01531565
3874.97401245,0.01412728
3876.90281982,0.01521593
3878.83162720,0.01541618
3880.76043457,0.01332177
3882.68924194,0.01527034
3884.61804932,0.01431982
3886.54685669,0.01318115
3888.47566406,0.01524968
3890.40447144,0.01448136
3892.33327881,0.01362232
3894.26208618,0.01484961
3896.19089355,0.01513820
3898.11970093,0.01446902
3900.04850830,0.01375304
3901.97731567,0.01363147
3903.90612305,0.01346514
3905.83493042,0.01359967
3907.76373779,0.01486158
3909.69254517,0.01492042
3911.62135254,0.01472839
3913.55015991,0.01497045
3915.47896728,0.01445385
3917.40777466,0.01403059
3919.33658203,0.01397998
3921.26538940,0.01443498
3923.19419678,0.01439034
3925.12300415,0.01419748
3927.05181152,0.01444786
3928.98061890,0.01452991
3930.90942627,0.01422802
3932.83823364,0.01382075
3934.76704102,0.01427062
3936.69584839,0.01439525
3938.62465576,0.01436927
3940.55346313,0.01448061
3942.48227051,0.01389029
3944.41107788,0.01396690
3946.33988525,0.01431010
3948.26869263,0.01397725
3950.19750000,0.01390036
3952.12630737,0.01416678
3954.05511475,0.01421629
3955.98392212,0.01417185
3957.91272949,0.01412158
3959.84153687,0.01417957
3961.77034424,0.01404747
3963.69915161,0.01394340
3965.62795898,0.01411265
3967.55676636,0.01392158
3969.48557373,0.01395502
3971.41438110,0.01397274
3973.34318848,0.01385985
3975.27199585,0.01387791
3977.20080322,0.01380219
3979.12961060,0.01386516
3981.05841797,0.01377086
3982.98722534,0.01380921
3984.91603271,0.01376398
3986.84484009,0.01377673
3988.77364746,0.01383026
3990.70245483,0.01362819
3992.63126221,0.01369401
3994.56006958,0.01367469
3996.48887695,0.01369180
3998.41768433,0.01355381
4000.34649170,0.01349015
4002.27529907,0.01362954
4004.20410645,0.01360067
4006.13291382,0.01362738
4008.06172119,0.01346997
4009.99052856,0.01345097
4011.91933594,0.01340841
4013.84814331,0.01339850
4015.77695068,0.01347522
4017.70575806,0.01334345
4019.63456543,0.01325080
4021.56337280,0.01326168
4023.49218018,0.01335231
4025.42098755,0.01322887
4027.34979492,0.01325109
4029.27860229,0.01322346
4031.20740967,0.01311183
4033.13621704,0.01317536
4035.06502441,0.01313245
4036.99383179,0.01312710
4038.92263916,0.01304945
4040.85144653,0.01313179
4042.78025391,0.01301955
4044.70906128,0.01287566
4046.63786865,0.01298213
4048.56667603,0.01290847
4050.49548340,0.01296829
4052.42429077,0.01296515
4054.35309814,0.01289904
4056.28190552,0.01286705
4058.21071289,0.01283217
4060.13952026,0.01276125
4062.06832764,0.01272649
4063.99713501,0.01275403
4065.92594238,0.01277553
4067.85474976,0.01282687
4069.78355713,0.01267065
4071.71236450,0.01270615
4073.64117187,0.01260668
4075.56997925,0.01250550
4077.49878662,0.01263301
4079.42759399,0.01251619
4081.35640137,0.01250438
4083.28520874,0.01246860
4085.21401611,0.01251915
4087.14282349,0.01242098
4089.07163086,0.01241135
4091.00043823,0.01255292
4092.92924561,0.01238238
4094.85805298,0.01240885
4096.78686035,0.01234939
4098.71566772,0.01233201
4100.64447510,0.01232932
4102.57328247,0.01224390
4104.50208984,0.01219068
4106.43089722,0.01215982
4108.35970459,0.01224883
4110.28851196,0.01213816
4112.21731934,0.01214211
4114.14612671,0.01205984
4116.07493408,0.01208194
4118.00374145,0.01214875
4119.93254883,0.01205213
4121.86135620,0.01209613
4123.79016357,0.01195139
4125.71897095,0.01205629
4127.64777832,0.01199268
4129.57658569,0.01185735
4131.50539307,0.01197970
4133.43420044,0.01189381
4135.36300781,0.01188734
4137.29181519,0.01183080
4139.22062256,0.01183680
4141.14942993,0.01178110
4143.07823730,0.01175239
4145.00704468,0.01179488
4146.93585205,0.01175299
4148.86465942,0.01180679
4150.79346680,0.01174966
4152.72227417,0.01173199
4154.65108154,0.01157088
4156.57988892,0.01154569
4158.50869629,0.01159487
4160.43750366,0.01143884
4162.36631103,0.01156663
4164.29511841,0.01158340
4166.22392578,0.01151195
4168.15273315,0.01149490
4170.08154053,0.01144565
4172.01034790,0.01143899
4173.93915527,0.01134118
4175.86796265,0.01138536
4177.79677002,0.01145534
4179.72557739,0.01131204
4181.65438477,0.01126425
4183.58319214,0.01133432
4185.51199951,0.01127779
4187.44080688,0.01120522
4189.36961426,0.01120179
4191.29842163,0.01124459
4193.22722900,0.01119992
4195.15603638,0.01114276
4197.08484375,0.01111619
4199.01365112,0.01104028
4200.94245850,0.01110751
4202.87126587,0.01105750
4204.80007324,0.01104669
4206.72888062,0.01109121
4208.65768799,0.01093360
4210.58649536,0.01091089
4212.51530273,0.01091080
4214.44411011,0.01093838
4216.37291748,0.01090820
4218.30172485,0.01084746
4220.23053223,0.01090599
4222.15933960,0.01079801
4224.08814697,0.01079136
4226.01695435,0.01086273
4227.94576172,0.01079631
4229.87456909,0.01078604
4231.80337646,0.01070337
4233.73218384,0.01064979
4235.66099121,0.01067354
4237.58979858,0.01064262
4239.51860596,0.01071621
4241.44741333,0.01068927
4243.37622070,0.01067797
4245.30502808,0.01061916
4247.23383545,0.01044037
4249.16264282,0.01054961
4251.09145020,0.01052087
4253.02025757,0.01048652
4254.94906494,0.01048633
4256.87787231,0.01044066
4258.80667969,0.01051562
4260.73548706,0.01040329
4262.66429443,0.01043499
4264.59310181,0.01040108
4266.52190918,0.01038541
4268.45071655,0.01041066
4270.37952393,0.01030323
4272.30833130,0.01038546
4274.23713867,0.01027495
4276.16594604,0.01024764
4278.09475342,0.01030468
4280.02356079,0.01026765
4281.95236816,0.01017274
4283.88117554,0.01009594
4285.80998291,0.01017466
4287.73879028,0.01006022
4289.66759766,0.01011359
4291.59640503,0.01012367
4293.52521240,0.01001282
4295.45401978,0.01008494
4297.38282715,0.01006860
4299.31163452,0.00998767
4301.24044189,0.00994366
4303.16924927,0.00995974
4305.09805664,0.00986059
4307.02686401,0.00990212
4308.95567139,0.00989117
4310.88447876,0.00981776
4312.81328613,0.00985435
4314.74209351,0.00974631
4316.67090088,0.00979534
4318.59970825,0.00977125
4320.52851562,0.00977263
4322.45732300,0.00974629
4324.38613037,0.00966161
4326.31493774,0.00971824
4328.24374512,0.00961928
4330.17255249,0.00967190
4332.10135986,0.00967943
4334.03016724,0.00962463
4335.95897461,0.00963678
4337.88778198,0.00955785
4339.81658936,0.00958482
4341.74539673,0.00960784
4343.67420410,0.00949903
4345.60301147,0.00946672
4347.53181885,0.00952527
4349.46062622,0.00945649
4351.38943359,0.00951056
4353.31824097,0.00944800
4355.24704834,0.00937114
4357.17585571,0.00942498
4359.10466309,0.00932935
4361.03347046,0.00940099
4362.96227783,0.00934843
4364.89108520,0.00930291
4366.81989258,0.00926494
4368.74869995,0.00921292
4370.67750732,0.00924080
4372.60631470,0.00918221
4374.53512207,0.00924643
4376.46392944,0.00911441
4378.39273682,0.00917930
4380.32154419,0.00917451
4382.25035156,0.00908639
4384.17915894,0.00921356
4386.10796631,0.00903668
4388.03677368,0.00911342
4389.96558105,0.00906370
4391.89438843,0.00895167
4393.82319580,0.00900121
4395.75200317,0.00887081
4397.68081055,0.00892055
4399.60961792,0.00892566
4401.53842529,0.00895012
4403.46723267,0.00895795
4405.39604004,0.00893493
4407.32484741,0.00893973
4409.25365478,0.00887945
4411.18246216,0.00881485
4413.11126953,0.00884877
4415.04007690,0.00890356
4416.96888428,0.00872997
4418.89769165,0.00876645
4420.82649902,0.00874421
4422.75530640,0.00867682
4424.68411377,0.00878583
4426.61292114,0.00864527
4428.54172852,0.00859577
4430.47053589,0.00862687
4432.39934326,0.00862486
4434.32815063,0.00863198
4436.25695801,0.00862271
4438.18576538,0.00859188
4440.11457275,0.00861779
4442.04338013,0.00863258
4443.97218750,0.00851336
4445.90099487,0.00850528
4447.82980225,0.00841331
4449.75860962,0.00840815
4451.68741699,0.00843162
4453.61622437,0.00840860
4455.54503174,0.00847969
4457.47383911,0.00836447
4459.40264648,0.00839366
4461.33145386,0.00834437
4463.26026123,0.00821077
4465.18906860,0.00832129
4467.11787598,0.00830197
4469.04668335,0.00822080
4470.97549072,0.00825785
4472.90429810,0.00827155
4474.83310547,0.00826228
4476.76191284,0.00820139
4478.69072021,0.00806252
4480.61952759,0.00819692
4482.54833496,0.00818313
4484.47714233,0.00801900
4486.40594971,0.00813598
4488.33475708,0.00806682
4490.26356445,0.00811498
4492.19237183,0.00816917
4494.12117920,0.00799250
4496.04998657,0.00796879
4497.97879395,0.00798172
4499.90760132,0.00798323
4501.83640869,0.00796944
4503.76521606,0.00803195
4505.69402344,0.00798399
4507.62283081,0.00781893
4509.55163818,0.00788999
4511.48044556,0.00797260
4513.40925293,0.00789929
4515.33806030,0.00791232
4517.26686768,0.00792831
4519.19567505,0.00782800
4521.12448242,0.00784040
4523.05328979,0.00777669
4524.98209717,0.00768116
4526.91090454,0.00774157
4528.83971191,0.00769900
4530.76851929,0.00766439
4532.69732666,0.00770510
4534.62613403,0.00767361
4536.55494141,0.00769443
4538.48374878,0.00770182
4540.41255615,0.00761215
4542.34136353,0.00767270
4544.27017090,0.00765886
4546.19897827,0.00756763
4548.12778564,0.00756537
4550.05659302,0.00752013
4551.98540039,0.00753058
4553.91420776,0.00746114
4555.84301514,0.00746349
4557.77182251,0.00743558
4559.70062988,0.00738758
4561.62943726,0.00745554
4563.55824463,0.00737959
4565.48705200,0.00743665
4567.41585937,0.00739642
4569.34466675,0.00736342
4571.27347412,0.00738807
4573.20228149,0.00728550
4575.13108887,0.00738741
4577.05989624,0.00734984
4578.98870361,0.00730316
4580.91751099,0.00730572
4582.84631836,0.00722843
4584.77512573,0.00726609
4586.70393311,0.00726533
4588.63274048,0.00724360
4590.56154785,0.00721245
4592.49035522,0.00712493
4594.41916260,0.00703553
4596.34796997,0.00708221
4598.27677734,0.00709006
4600.20558472,0.00705592
4602.13439209,0.00708670
4604.06319946,0.00700563
4605.99200684,0.00696421
4607.92081421,0.00700075
4609.84962158,0.00702671
4611.77842895,0.00702021
4613.70723633,0.00706576
4615.63604370,0.00704371
4617.56485107,0.00698977
4619.49365845,0.00702649
4621.42246582,0.00694302
4623.35127319,0.00690212
4625.28008057,0.00686164
4627.20888794,0.00684758
4629.13769531,0.00686731
4631.06650269,0.00682275
4632.99531006,0.00680687
4634.92411743,0.00674964
4636.85292480,0.00676914
4638.78173218,0.00676215
4640.71053955,0.00675047
4642.63934692,0.00673518
4644.56815430,0.00671099
4646.49696167,0.00672184
4648.42576904,0.00661303
4650.35457642,0.00666174
4652.28338379,0.00674481
4654.21219116,0.00669611
4656.14099853,0.00669358
4658.06980591,0.00663737
4659.99861328,0.00657362
4661.92742065,0.00666864
4663.85622803,0.00662597
4665.78503540,0.00649782
4667.71384277,0.00661598
4669.64265015,0.00660209
4671.57145752,0.00656055
4673.50026489,0.00652304
4675.42907227,0.00642725
4677.35787964,0.00646246
4679.28668701,0.00647245
4681.21549438,0.00652878
4683.14430176,0.00645833
4685.07310913,0.00644754
4687.00191650,0.00646415
4688.93072388,0.00636007
4690.85953125,0.00637783
4692.78833862,0.00630799
4694.71714600,0.00634018
4696.64595337,0.00636420
4698.57476074,0.00630738
4700.50356812,0.00630006
4702.43237549,0.00625613
4704.36118286,0.00631321
4706.28999023,0.00627155
4708.21879761,0.00624749
4710.14760498,0.00626769
4712.07641235,0.00614012
4714.00521973,0.00611354
4715.93402710,0.00616029
4717.86283447,0.00618684
4719.79164185,0.00619976
4721.72044922,0.00609248
4723.64925659,0.00607105
4725.57806396,0.00607794
4727.50687134,0.00605878
4729.43567871,0.00617051
4731.36448608,0.00608593
4733.29329346,0.00605676
4735.22210083,0.00608306
4737.15090820,0.00605275
4739.07971558,0.00613191
4741.00852295,0.00602407
4742.93733032,0.00600201
4744.86613770,0.00596027
4746.79494507,0.00591779
4748.72375244,0.00595356
4750.65255981,0.00596483
4752.58136719,0.00603638
4754.51017456,0.00584213
4756.43898193,0.00583375
4758.36778931,0.00597927
4760.29659668,0.00596421
4762.22540405,0.00589101
4764.15421143,0.00588614
4766.08301880,0.00587880
4768.01182617,0.00569473
4769.94063354,0.00578179
4771.86944092,0.00569690
4773.79824829,0.00570095
4775.72705566,0.00586195
4777.65586304,0.00568941
4779.58467041,0.00576899
4781.51347778,0.00573690
4783.44228516,0.00571939
4785.37109253,0.00578070
4787.29989990,0.00571592
4789.22870728,0.00568026
4791.15751465,0.00559347
4793.08632202,0.00571047
4795.01512939,0.00566310
4796.94393677,0.00552395
4798.87274414,0.00552919
4800.80155151,0.00557364
4802.73035889,0.00561473
4804.65916626,0.00559364
4806.58797363,0.00557135
4808.51678101,0.00546338
4810.44558838,0.00550056
4812.37439575,0.00552527
4814.30320312,0.00550986
4816.23201050,0.00549858
4818.16081787,0.00544637
4820.08962524,0.00545266
4822.01843262,0.00537346
4823.94723999,0.00545260
4825.87604736,0.00547673
4827.80485474,0.00543777
4829.73366211,0.00545101
4831.66246948,0.00532934
4833.59127686,0.00529152
4835.52008423,0.00528091
4837.44889160,0.00528624
4839.37769897,0.00530987
4841.30650635,0.00527778
4843.23531372,0.00524572
4845.16412109,0.00530409
4847.09292847,0.00525773
4849.02173584,0.00519853
4850.95054321,0.00532553
4852.87935059,0.00529197
4854.80815796,0.00523193
4856.73696533,0.00519976
4858.66577270,0.00518688
4860.59458008,0.00518677
4862.52338745,0.00516348
4864.45219482,0.00518388
4866.38100220,0.00513252
4868.30980957,0.00514068
4870.23861694,0.00503666
4872.16742432,0.00503791
4874.09623169,0.00513986
4876.02503906,0.00507387
4877.95384644,0.00512107
4879.88265381,0.00507439
4881.81146118,0.00500596
4883.74026855,0.00505572
4885.66907593,0.00507862
4887.59788330,0.00502065
4889.52669067,0.00498048
4891.45549805,0.00497691
4893.38430542,0.00493906
4895.31311279,0.00495315
4897.24192017,0.00489787
4899.17072754,0.00495958
4901.09953491,0.00497699
4903.02834228,0.00487138
4904.95714966,0.00487225
4906.88595703,0.00482236
4908.81476440,0.00485434
4910.74357178,0.00486201
4912.67237915,0.00484767
4914.60118652,0.00481380
4916.52999390,0.00475389
4918.45880127,0.00483466
4920.38760864,0.00482332
4922.31641602,0.00481092
4924.24522339,0.00487963
4926.17403076,0.00485179
4928.10283813,0.00477108
4930.03164551,0.00476055
4931.96045288,0.00472439
4933.88926025,0.00470690
4935.81806763,0.00479176
4937.74687500,0.00476532
4939.67568237,0.00473019
4941.60448975,0.00474177
4943.53329712,0.00466145
4945.46210449,0.00461039
4947.39091187,0.00464882
4949.31971924,0.00462924
4951.24852661,0.00465484
4953.17733398,0.00461985
4955.10614136,0.00450782
4957.03494873,0.00463537
4958.96375610,0.00463122
4960.89256348,0.00454573
4962.82137085,0.00456593
4964.75017822,0.00457790
4966.67898560,0.00458931
4968.60779297,0.00449813
4970.53660034,0.00456292
4972.46540771,0.00459059
4974.39421509,0.00454388
4976.32302246,0.00452963
4978.25182983,0.00446589
4980.18063721,0.00450310
4982.10944458,0.00445188
4984.03825195,0.00447542
4985.96705933,0.00452340
4987.89586670,0.00444209
4989.82467407,0.00442132
4991.75348145,0.00439945
4993.68228882,0.00437620
4995.61109619,0.00440480
4997.53990356,0.00443523
4999.46871094,0.00438245
5001.39751831,0.00438581
5003.32632568,0.00435076
5005.25513306,0.00433050
5007.18394043,0.00435847
5009.11274780,0.00426484
5011.04155518,0.00428507
5012.97036255,0.00426299
5014.89916992,0.00426827
5016.82797729,0.00432613
5018.75678467,0.00429382
5020.68559204,0.00432884
5022.61439941,0.00425927
5024.54320679,0.00421600
5026.47201416,0.00423162
5028.40082153,0.00421380
5030.32962891,0.00423276
5032.25843628,0.00418531
5034.18724365,0.00411012
5036.11605103,0.00410659
5038.04485840,0.00415650
5039.97366577,0.00414649
5041.90247314,0.00409653
5043.83128052,0.00406911
5045.76008789,0.00412080
5047.68889526,0.00413429
5049.61770264,0.00399705
5051.54651001,0.00397501
5053.47531738,0.00407451
5055.40412476,0.00405721
5057.33293213,0.00400186
5059.26173950,0.00399374
5061.19054687,0.00396614
5063.11935425,0.00398121
5065.04816162,0.00398438
5066.97696899,0.00402245
5068.90577637,0.00399363
5070.83458374,0.00391399
5072.76339111,0.00404861
5074.69219849,0.00393849
5076.62100586,0.00383582
5078.54981323,0.00394195
5080.47862061,0.00387741
5082.40742798,0.00390906
5084.33623535,0.00386506
5086.26504272,0.00387524
5088.19385010,0.00394357
5090.12265747,0.00384692
5092.05146484,0.00388317
5093.98027222,0.00386131
5095.90907959,0.00385178
5097.83788696,0.00388850
5099.76669434,0.00383880
5101.69550171,0.00382422
5103.62430908,0.00378522
5105.55311645,0.00385772
5107.48192383,0.00386164
5109.41073120,0.00372243
5111.33953857,0.00380408
5113.26834595,0.00381696
5115.19715332,0.00369971
5117.12596069,0.00372438
5119.05476807,0.00370404
5120.98357544,0.00372153
5122.91238281,0.00373173
5124.84119019,0.00367624
5126.76999756,0.00370940
5128.69880493,0.00367611
5130.62761230,0.00365765
5132.55641968,0.00367050
5134.48522705,0.00368477
5136.41403442,0.00373233
5138.34284180,0.00371453
5140.27164917,0.00364445
5142.20045654,0.00356583
5144.12926392,0.00361557
5146.05807129,0.00361859
5147.98687866,0.00354525
5149.91568603,0.00354898
5151.84449341,0.00352837
5153.77330078,0.00358810
5155.70210815,0.00359662
5157.63091553,0.00353696
5159.55972290,0.00357732
5161.48853027,0.00354212
5163.41733765,0.00349591
5165.34614502,0.00351551
5167.27495239,0.00349034
5169.20375977,0.00347278
5171.13256714,0.00345781
5173.06137451,0.00344590
5174.99018188,0.00347248
5176.91898926,0.00343964
5178.84779663,0.00340272
5180.77660400,0.00342043
5182.70541138,0.00341807
5184.63421875,0.00340483
5186.56302612,0.00342041
5188.49183350,0.00346111
5190.42064087,0.00340736
5192.34944824,0.00334468
5194.27825562,0.00340933
5196.20706299,0.00335721
5198.13587036,0.00329326
5200.06467773,0.00335991
5201.99348511,0.00329179
5203.92229248,0.00331551
5205.85109985,0.00333035
5207.77990723,0.00323852
5209.70871460,0.00337973
5211.63752197,0.00330652
5213.56632935,0.00320649
5215.49513672,0.00329835
5217.42394409,0.00325832
5219.35275146,0.00330045
5221.28155884,0.00327923
5223.21036621,0.00327967
5225.13917358,0.00325608
5227.06798096,0.00317670
5228.99678833,0.00325760
5230.92559570,0.00322795
5232.85440308,0.00321987
5234.78321045,0.00319443
5236.71201782,0.00315666
5238.64082520,0.00317856
5240.56963257,0.00320786
5242.49843994,0.00323329
5244.42724731,0.00310015
5246.35605469,0.00312455
5248.28486206,0.00308551
5250.21366943,0.00305580
5252.14247681,0.00321601
5254.07128418,0.00310989
5256.00009155,0.00308931
5257.92889893,0.00313306
5259.85770630,0.00309118
5261.78651367,0.00309002
5263.71532104,0.00304905
5265.64412842,0.00305971
5267.57293579,0.00304951
5269.50174316,0.00305807
5271.43055054,0.00305729
5273.35935791,0.00301746
5275.28816528,0.00302354
5277.21697266,0.00308937
5279.14578003,0.00308516
5281.07458740,0.00299093
5283.00339478,0.00302982
5284.93220215,0.00301246
5286.86100952,0.00297372
5288.78981689,0.00295943
5290.71862427,0.00293159
5292.64743164,0.00297320
5294.57623901,0.00292661
5296.50504639,0.00299798
5298.43385376,0.00300525
5300.36266113,0.00293492
5302.29146851,0.00299059
5304.22027588,0.00292802
5306.14908325,0.00291645
5308.07789062,0.00288352
5310.00669800,0.00288894
5311.93550537,0.00294020
5313.86431274,0.00289306
5315.79312012,0.00288304
5317.72192749,0.00282148
5319.65073486,0.00290690
5321.57954224,0.00292808
5323.50834961,0.00285408
5325.43715698,0.00290779
5327.36596436,0.00283388
5329.29477173,0.00279560
5331.22357910,0.00282942
5333.15238647,0.00284206
5335.08119385,0.00279405
5337.01000122,0.00275483
5338.93880859,0.00270145
5340.86761597,0.00269643
5342.79642334,0.00278578
5344.72523071,0.00262696
5346.65403809,0.00264153
5348.58284546,0.00273416
5350.51165283,0.00269836
5352.44046020,0.00271698
5354.36926758,0.00262158
5356.29807495,0.00271057
5358.22688232,0.00276536
5360.15568970,0.00272122
5362.08449707,0.00266088
5364.01330444,0.00264785
5365.94211182,0.00271116
5367.87091919,0.00264400
5369.79972656,0.00273240
5371.72853394,0.00264912
5373.65734131,0.00264060
5375.58614868,0.00268113
5377.51495605,0.00255172
5379.44376343,0.00270560
5381.37257080,0.00263590
5383.30137817,0.00259072
5385.23018555,0.00260745
5387.15899292,0.00257202
5389.08780029,0.00265250
5391.01660767,0.00256561
5392.94541504,0.00254105
5394.87422241,0.00246148
5396.80302978,0.00250010
5398.73183716,0.00256907
5400.66064453,0.00256939
5402.58945190,0.00263236
5404.51825928,0.00252091
5406.44706665,0.00256783
5408.37587402,0.00257699
5410.30468140,0.00251512
5412.23348877,0.00255241
5414.16229614,0.00250953
5416.09110352,0.00245026
5418.01991089,0.00244962
5419.94871826,0.00247305
5421.87752563,0.00242697
5423.80633301,0.00248987
5425.73514038,0.00248293
5427.66394775,0.00246817
5429.59275513,0.00243007
5431.52156250,0.00239873
5433.45036987,0.00254998
5435.37917725,0.00236920
5437.30798462,0.00236481
5439.23679199,0.00250870
5441.16559936,0.00242335
5443.09440674,0.00243591
5445.02321411,0.00236541
5446.95202148,0.00240111
5448.88082886,0.00239603
5450.80963623,0.00234294
5452.73844360,0.00238614
5454.66725098,0.00234095
5456.59605835,0.00237948
5458.52486572,0.00240030
5460.45367310,0.00234461
5462.38248047,0.00228601
5464.31128784,0.00226886
5466.24009521,0.00229580
5468.16890259,0.00236905
5470.09770996,0.00239883
5472.02651733,0.00235585
5473.95532471,0.00231918
5475.88413208,0.00225632
5477.81293945,0.00237439
5479.74174683,0.00236068
5481.67055420,0.00225986
5483.59936157,0.00240245
5485.52816895,0.00233425
5487.45697632,0.00223761
5489.38578369,0.00230432
5491.31459106,0.00229794
5493.24339844,0.00225899
5495.17220581,0.00225399
5497.10101318,0.00229181
5499.02982056,0.00227582
5500.95862793,0.00222042
5502.88743530,0.00223339
5504.81624268,0.00228345
5506.74505005,0.00225026
5508.67385742,0.00225241
5510.60266479,0.00229805
5512.53147217,0.00224955
5514.46027954,0.00222868
5516.38908691,0.00218497
5518.31789429,0.00217475
5520.24670166,0.00222657
5522.17550903,0.00213734
5524.10431641,0.00212085
5526.03312378,0.00220491
5527.96193115,0.00219251
5529.89073853,0.00217255
5531.81954590,0.00210922
5533.74835327,0.00209820
5535.67716064,0.00213065
5537.60596802,0.00210387
5539.53477539,0.00216189
5541.46358276,0.00212305
5543.39239014,0.00209603
5545.32119751,0.00213822
5547.25000488,0.00210455
5549.17881226,0.00218585
5551.10761963,0.00216026
5553.03642700,0.00208729
5554.96523437,0.00205795
5556.89404175,0.00201897
5558.82284912,0.00210755
5560.75165649,0.00207773
5562.68046387,0.00202549
5564.60927124,0.00199346
5566.53807861,0.00201738
5568.46688599,0.00210514
5570.39569336,0.00199126
5572.32450073,0.00201790
5574.25330811,0.00210429
5576.18211548,0.00204081
5578.11092285,0.00201134
5580.03973022,0.00200611
5581.96853760,0.00203718
5583.89734497,0.00198399
5585.82615234,0.00198196
5587.75495972,0.00204379
5589.68376709,0.00199314
5591.61257446,0.00194560
5593.54138184,0.00194957
5595.47018921,0.00197101
5597.39899658,0.00194514
5599.32780395,0.00198319
5601.25661133,0.00201067
5603.18541870,0.00194193
5605.11422607,0.00189643
5607.04303345,0.00189805
5608.97184082,0.00197683
5610.90064819,0.00196615
5612.82945557,0.00193547
5614.75826294,0.00196040
5616.68707031,0.00195406
5618.61587769,0.00188977
5620.54468506,0.00184643
5622.47349243,0.00189523
5624.40229980,0.00184956
5626.33110718,0.00191216
5628.25991455,0.00189117
5630.18872192,0.00182405
5632.11752930,0.00195093
5634.04633667,0.00187888
5635.97514404,0.00190084
5637.90395142,0.00190422
5639.83275879,0.00186086
5641.76156616,0.00188106
5643.69037353,0.00184175
5645.61918091,0.00191272
5647.54798828,0.00176115
5649.47679565,0.00178352
5651.40560303,0.00182864
5653.33441040,0.00171961
5655.26321777,0.00187141
5657.19202515,0.00178551
5659.12083252,0.00175873
5661.04963989,0.00181723
5662.97844727,0.00175108
5664.90725464,0.00177301
5666.83606201,0.00174547
5668.76486938,0.00177657
5670.69367676,0.00177981
5672.62248413,0.00175198
5674.55129150,0.00178026
5676.48009888,0.00177511
5678.40890625,0.00178477
5680.33771362,0.00183614
5682.26652100,0.00174812
5684.19532837,0.00173489
5686.12413574,0.00179752
5688.05294311,0.00167403
5689.98175049,0.00173261
5691.91055786,0.00171921
5693.83936523,0.00172051
5695.76817261,0.00177241
5697.69697998,0.00164959
5699.62578735,0.00172298
5701.55459473,0.00166745
5703.48340210,0.00167042
5705.41220947,0.00170217
5707.34101685,0.00166064
5709.26982422,0.00173366
5711.19863159,0.00166054
5713.12743896,0.00166099
5715.05624634,0.00161419
5716.98505371,0.00166860
5718.91386108,0.00169967
5720.84266846,0.00160004
5722.77147583,0.00166250
5724.70028320,0.00163843
5726.62909058,0.00166335
5728.55789795,0.00163316
5730.48670532,0.00162957
5732.41551270,0.00159320
5734.34432007,0.00155167
5736.27312744,0.00166273
5738.20193481,0.00152981
5740.13074219,0.00154347
5742.05954956,0.00164494
5743.98835693,0.00163922
5745.91716431,0.00161865
5747.84597168,0.00155420
5749.77477905,0.00161353
5751.70358643,0.00158911
5753.63239380,0.00155474
5755.56120117,0.00156045
5757.49000854,0.00154351
5759.41881592,0.00153683
5761.34762329,0.00156892
5763.27643066,0.00156950
5765.20523804,0.00155036
5767.13404541,0.00159920
5769.06285278,0.00149092
5770.99166016,0.00148400
5772.92046753,0.00153434
5774.84927490,0.00151876
5776.77808228,0.00153160
5778.70688965,0.00148390
5780.63569702,0.00151131
5782.56450439,0.00143580
5784.49331177,0.00144848
5786.42211914,0.00152236
5788.35092651,0.00150310
5790.27973389,0.00149313
5792.20854126,0.00135775
5794.13734863,0.00143979
5796.06615601,0.00150677
5797.99496338,0.00138929
5799.92377075,0.00143749
5801.85257812,0.00146755
5803.78138550,0.00142437
5805.71019287,0.00139486
5807.63900024,0.00142435
5809.56780762,0.00147296
5811.49661499,0.00142558
5813.42542236,0.00138584
5815.35422974,0.00142108
5817.28303711,0.00141198
5819.21184448,0.00141346
5821.14065186,0.00139216
5823.06945923,0.00135658
5824.99826660,0.00142831
5826.92707397,0.00142791
5828.85588135,0.00145624
5830.78468872,0.00143354
5832.71349609,0.00131343
5834.64230347,0.00138936
5836.57111084,0.00146402
5838.49991821,0.00141753
5840.42872559,0.00133184
5842.35753296,0.00129576
5844.28634033,0.00133740
5846.21514770,0.00141185
5848.14395508,0.00142842
5850.07276245,0.00135798
5852.00156982,0.00136777
5853.93037720,0.00133938
5855.85918457,0.00129348
5857.78799194,0.00129893
5859.71679932,0.00129470
5861.64560669,0.00135580
5863.57441406,0.00137624
5865.50322144,0.00136875
5867.43202881,0.00135074
5869.36083618,0.00129105
5871.28964355,0.00129825
5873.21845093,0.00134729
5875.14725830,0.00133103
5877.07606567,0.00126233
5879.00487305,0.00128293
5880.93368042,0.00136193
5882.86248779,0.00135453
5884.79129517,0.00130024
5886.72010254,0.00127643
5888.64890991,0.00128606
5890.57771728,0.00127012
5892.50652466,0.00123548
5894.43533203,0.00123320
5896.36413940,0.00122364
5898.29294678,0.00131750
5900.22175415,0.00132591
5902.15056152,0.00116282
5904.07936890,0.00124723
5906.00817627,0.00127570
5907.93698364,0.00116638
5909.86579102,0.00122938
5911.79459839,0.00126215
5913.72340576,0.00127425
5915.65221313,0.00121299
5917.58102051,0.00118192
5919.50982788,0.00124244
5921.43863525,0.00117065
5923.36744263,0.00118025
5925.29625000,0.00125693
5927.22505737,0.00121070
5929.15386475,0.00119096
5931.08267212,0.00123101
5933.01147949,0.00121920
5934.94028686,0.00120607
5936.86909424,0.00120626
5938.79790161,0.00117534
5940.72670898,0.00118957
5942.65551636,0.00123258
5944.58432373,0.00123516
5946.51313110,0.00120705
5948.44193848,0.00119375
5950.37074585,0.00116825
5952.29955322,0.00115294
5954.22836060,0.00116310
5956.15716797,0.00112635
5958.08597534,0.00111826
5960.01478271,0.00113996
5961.94359009,0.00114340
5963.87239746,0.00116792
5965.80120483,0.00118401
5967.73001221,0.00112645
5969.65881958,0.00107950
5971.58762695,0.00112115
5973.51643433,0.00113196
5975.44524170,0.00112316
5977.37404907,0.00116558
5979.30285645,0.00118816
5981.23166382,0.00113808
5983.16047119,0.00110678
5985.08927856,0.00112256
5987.01808594,0.00110902
5988.94689331,0.00105420
5990.87570068,0.00105249
5992.80450806,0.00115412
5994.73331543,0.00108912
5996.66212280,0.00099546
5998.59093018,0.00108094
6000.51973755,0.00107544
