399.26312622,0.00008445
401.19193359,-0.00008841
403.12074097,0.00021908
405.04954834,0.00012159
406.97835571,-0.00004681
408.90716309,0.00017660
410.83597046,0.00005305
412.76477783,0.00013838
414.69358521,0.00029228
416.62239258,0.00020301
418.55119995,0.00003542
420.48000732,0.00018894
422.40881470,0.00034943
424.33762207,0.00015357
426.26642944,0.00006079
428.19523682,-0.00004566
430.12404419,0.00000275
432.05285156,0.00011429
433.98165894,-0.00001071
435.91046631,0.00008396
437.83927368,0.00029800
439.76808105,0.00016808
441.69688843,0.00002882
443.62569580,0.00010970
445.55450317,0.00009961
447.48331055,0.00011462
449.41211792,0.00012474
451.34092529,0.00005692
453.26973267,0.00021053
455.19854004,0.00037120
457.12734741,-0.00009158
459.05615479,-0.00015654
460.98496216,0.00014175
462.91376953,0.00007726
464.84257690,0.00015583
466.77138428,0.00019264
468.70019165,0.00013848
470.62899902,0.00016741
472.55780640,0.00008353
474.48661377,-0.00000868
476.41542114,0.00007183
478.34422852,-0.00003804
480.27303589,0.00004727
482.20184326,0.00014947
484.13065063,0.00004436
486.05945801,0.00024477
487.98826538,0.00006030
489.91707275,-0.00011228
491.84588013,0.00010637
493.77468750,0.00023360
495.70349487,0.00016820
497.63230225,0.00007819
499.56110962,0.00028597
501.48991699,0.00014582
503.41872437,-0.00001248
505.34753174,0.00001592
507.27633911,0.00004388
509.20514648,0.00027130
511.13395386,0.00019881
513.06276123,0.00003181
514.99156860,0.00004293
516.92037598,0.00022709
518.84918335,0.00007702
520.77799072,-0.00005211
522.70679810,0.00011238
524.63560547,0.00001265
526.56441284,0.00007100
528.49322021,-0.00003944
530.42202759,0.00006358
532.35083496,0.00017681
534.27964233,-0.00010407
536.20844971,0.00004631
538.13725708,0.00028756
540.06606445,0.00031484
541.99487183,0.00002417
543.92367920,0.00002791
545.85248657,0.00008837
547.78129395,-0.00002811
549.71010132,0.00025151
551.63890869,0.00024857
553.56771606,0.00000115
555.49652344,-0.00016757
557.42533081,0.00013563
559.35413818,0.00034213
561.28294556,-0.00000362
563.21175293,0.00029328
565.14056030,0.00037101
567.06936768,0.00014261
568.99817505,0.00015957
570.92698242,0.00016567
572.85578979,0.00021955
574.78459717,0.00014004
576.71340454,0.00031039
578.64221191,0.00031162
580.57101929,0.00001212
582.49982666,0.00008190
584.42863403,0.00008273
586.35744141,0.00011779
588.28624878,0.00025512
590.21505615,0.00001041
592.14386353,0.00001536
594.07267090,0.00030930
596.00147827,0.00011659
597.93028564,0.00006693
599.85909302,0.00016602
601.78790039,0.00003551
603.71670776,0.00006458
605.64551514,-0.00001074
607.57432251,0.00008722
609.50312988,0.00019272
611.43193726,0.00013789
613.36074463,0.00024834
615.28955200,0.00018678
617.21835938,0.00007848
619.14716675,-0.00003891
621.07597412,-0.00006535
623.00478149,0.00008372
624.93358887,0.00020932
626.86239624,0.00020336
628.79120361,-0.00003782
630.72001099,0.00000943
632.64881836,0.00016657
634.57762573,0.00000233
636.50643311,0.00007778
638.43524048,0.00015151
640.36404785,0.00008024
642.29285522,0.00030505
644.22166260,0.00025377
646.15046997,0.00009861
648.07927734,0.00009697
650.00808472,-0.00004333
651.93689209,0.00002665
653.86569946,0.00009814
655.79450684,0.00011579
657.72331421,0.00029598
659.65212158,0.00038696
661.58092896,0.00022004
663.50973633,0.00009582
665.43854370,0.00002079
667.36735107,0.00004669
669.29615845,0.00023013
671.22496582,0.00005276
673.15377319,0.00008230
675.08258057,0.00011786
677.01138794,-0.00001534
678.94019531,0.00004037
680.86900269,0.00001784
682.79781006,0.00018853
684.72661743,0.00007759
686.65542480,0.00008381
688.58423218,0.00011197
690.51303955,-0.00009813
692.44184692,0.00020935
694.37065430,0.00020337
696.29946167,0.00009823
698.22826904,0.00012083
700.15707642,0.00001476
702.08588379,0.00012146
704.01469116,0.00022967
705.94349854,0.00028351
707.87230591,0.00002361
709.80111328,0.00004264
711.72992065,0.00015267
713.65872803,-0.00003530
715.58753540,0.00025923
717.51634277,0.00026660
719.44515015,0.00007912
721.37395752,0.00014362
723.30276489,0.00020699
725.23157227,0.00032520
727.16037964,0.00021175
729.08918701,0.00007169
731.01799438,0.00014903
732.94680176,0.00030275
734.87560913,-0.00003635
736.80441650,-0.00001830
738.73322388,0.00040954
740.66203125,-0.00004061
742.59083862,-0.00004658
744.51964600,0.00015821
746.44845337,0.00001454
748.37726074,0.00018335
750.30606812,0.00008508
752.23487549,0.00002296
754.16368286,-0.00002116
756.09249023,-0.00001805
758.02129761,0.00009193
759.95010498,0.00021463
761.87891235,0.00026241
763.80771973,-0.00002467
765.73652710,0.00013155
767.66533447,0.00017346
769.59414185,0.00002653
771.52294922,0.00003288
773.45175659,0.00003063
775.38056396,0.00038136
777.30937134,0.00028646
779.23817871,0.00009191
781.16698608,0.00003821
783.09579346,-0.00003055
785.02460083,0.00014828
786.95340820,0.00000311
788.88221558,0.00009115
790.81102295,0.00029957
792.73983032,0.00010251
794.66863770,0.00010259
796.59744507,0.00022631
798.52625244,0.00017600
800.45505981,0.00013316
802.38386719,0.00011695
804.31267456,0.00010560
806.24148193,0.00015603
808.17028931,0.00014631
810.09909668,0.00012554
812.02790405,0.00007693
813.95671143,0.00012494
815.88551880,0.00018085
817.81432617,0.00005988
819.74313354,-0.00009519
821.67194092,-0.00007822
823.60074829,0.00012645
825.52955566,0.00009054
827.45836304,0.00022720
829.38717041,0.00017265
831.31597778,-0.00006220
833.24478516,0.00017437
835.17359253,0.00010107
837.10239990,0.00016788
839.03120728,0.00021767
840.96001465,0.00007181
842.88882202,0.00025978
844.81762939,0.00021876
846.74643677,0.00024029
848.67524414,0.00016508
850.60405151,0.00000827
852.53285889,0.00020916
854.46166626,0.00022988
856.39047363,0.00013705
858.31928101,0.00023724
860.24808838,0.00018421
862.17689575,0.00002335
864.10570313,0.00014562
866.03451050,0.00014303
867.96331787,0.00004920
869.89212524,0.00020479
871.82093262,0.00029712
873.74973999,0.00015285
875.67854736,0.00005861
877.60735474,0.00023572
879.53616211,0.00017526
881.46496948,0.00003539
883.39377686,0.00015056
885.32258423,0.00015511
887.25139160,0.00014135
889.18019897,0.00016237
891.10900635,0.00016274
893.03781372,0.00039197
894.96662109,0.00038088
896.89542847,0.00009049
898.82423584,0.00024211
900.75304321,0.00024608
902.68185059,0.00029639
904.61065796,0.00028258
906.53946533,-0.00001041
908.46827271,0.00019110
910.39708008,0.00006875
912.32588745,0.00029036
914.25469482,0.00051281
916.18350220,0.00006928
918.11230957,0.00030190
920.04111694,0.00030077
921.96992432,0.00009284
923.89873169,0.00022172
925.82753906,0.00015153
927.75634644,0.00011993
929.68515381,0.00023171
931.61396118,0.00013727
933.54276855,0.00000023
935.47157593,0.00012925
937.40038330,0.00012304
939.32919067,0.00013023
941.25799805,0.00010001
943.18680542,0.00010985
945.11561279,0.00018939
947.04442017,0.00027080
948.97322754,0.00018801
950.90203491,-0.00013831
952.83084229,0.00018225
954.75964966,0.00023642
956.68845703,0.00013241
958.61726440,0.00018536
960.54607178,0.00013677
962.47487915,0.00034228
964.40368652,0.00016380
966.33249390,0.00030109
968.26130127,0.00012288
970.19010864,0.00002579
972.11891602,0.00033271
974.04772339,0.00001125
975.97653076,0.00016556
977.90533813,0.00018979
979.83414551,0.00026913
981.76295288,0.00014230
983.69176025,-0.00010223
985.62056763,0.00036405
987.54937500,0.00017929
989.47818237,0.00028099
991.40698975,0.00042122
993.33579712,0.00006276
995.26460449,0.00025607
997.19341187,0.00028846
999.12221924,0.00014101
1001.05102661,0.00027480
1002.97983398,0.00017280
1004.90864136,0.00006984
1006.83744873,0.00030200
1008.76625610,0.00019148
1010.69506348,0.00021012
1012.62387085,0.00031018
1014.55267822,0.00021581
1016.48148560,0.00032077
1018.41029297,0.00020876
1020.33910034,0.00021715
1022.26790771,0.00029819
1024.19671509,0.00031072
1026.12552246,0.00018318
1028.05432983,0.00010731
1029.98313721,0.00040639
1031.91194458,0.00043765
1033.84075195,0.00032584
1035.76955933,0.00020552
1037.69836670,0.00027514
1039.62717407,0.00049461
1041.55598145,0.00055667
1043.48478882,0.00044282
1045.41359619,0.00025678
1047.34240356,0.00028270
1049.27121094,0.00024145
1051.20001831,0.00033772
1053.12882568,0.00036827
1055.05763306,0.00031152
1056.98644043,0.00028144
1058.91524780,0.00011961
1060.84405518,0.00028852
1062.77286255,0.00031100
1064.70166992,0.00037926
1066.63047729,0.00046602
1068.55928467,0.00027575
1070.48809204,0.00034529
1072.41689941,0.00031458
1074.34570679,0.00020297
1076.27451416,0.00020603
1078.20332153,0.00023044
1080.13212891,0.00016101
1082.06093628,0.00016993
1083.98974365,0.00028679
1085.91855103,0.00025104
1087.84735840,0.00034660
1089.77616577,0.00023763
1091.70497314,0.00014043
1093.63378052,0.00026655
1095.56258789,0.00015765
1097.49139526,0.00019820
1099.42020264,0.00028616
1101.34901001,0.00024172
1103.27781738,0.00034762
1105.20662476,0.00044721
1107.13543213,0.00026583
1109.06423950,0.00020428
1110.99304687,0.00035818
1112.92185425,0.00039104
1114.85066162,0.00040473
1116.77946899,0.00022485
1118.70827637,0.00030988
1120.63708374,0.00048031
1122.56589111,0.00023683
1124.49469849,0.00032152
1126.42350586,0.00041247
1128.35231323,0.00027345
1130.28112061,0.00027326
1132.20992798,0.00035678
1134.13873535,0.00037505
1136.06754272,0.00016285
1137.99635010,0.00029644
1139.92515747,0.00047461
1141.85396484,0.00015965
1143.78277222,0.00015827
1145.71157959,0.00039011
1147.64038696,0.00038511
1149.56919434,0.00030909
1151.49800171,0.00032603
1153.42680908,0.00033382
1155.35561646,0.00023621
1157.28442383,0.00029067
1159.21323120,0.00036721
1161.14203857,0.00044054
1163.07084595,0.00036872
1164.99965332,0.00026305
1166.92846069,0.00042144
1168.85726807,0.00038363
1170.78607544,0.00032126
1172.71488281,0.00030568
1174.64369019,0.00045662
1176.57249756,0.00047313
1178.50130493,0.00021296
1180.43011230,0.00047399
1182.35891968,0.00054248
1184.28772705,0.00051578
1186.21653442,0.00055835
1188.14534180,0.00042214
1190.07414917,0.00056368
1192.00295654,0.00051818
1193.93176392,0.00051910
1195.86057129,0.00050716
1197.78937866,0.00045785
1199.71818604,0.00060657
1201.64699341,0.00047775
1203.57580078,0.00045749
1205.50460815,0.00060914
1207.43341553,0.00063068
1209.36222290,0.00062480
1211.29103027,0.00062932
1213.21983765,0.00073503
1215.14864502,0.00101472
1217.07745239,0.00090285
1219.00625977,0.00070940
1220.93506714,0.00089023
1222.86387451,0.00080217
1224.79268188,0.00078798
1226.72148926,0.00068712
1228.65029663,0.00072871
1230.57910400,0.00083504
1232.50791138,0.00058153
1234.43671875,0.00095362
1236.36552612,0.00087438
1238.29433350,0.00060820
1240.22314087,0.00095851
1242.15194824,0.00077629
1244.08075562,0.00067935
1246.00956299,0.00075788
1247.93837036,0.00070373
1249.86717773,0.00087900
1251.79598511,0.00089550
1253.72479248,0.00076616
1255.65359985,0.00073296
1257.58240723,0.00062705
1259.51121460,0.00071567
1261.44002197,0.00079185
1263.36882935,0.00061501
1265.29763672,0.00076311
1267.22644409,0.00073883
1269.15525146,0.00068021
1271.08405884,0.00094047
1273.01286621,0.00080892
1274.94167358,0.00070174
1276.87048096,0.00086459
1278.79928833,0.00087258
1280.72809570,0.00077182
1282.65690308,0.00072822
1284.58571045,0.00064070
1286.51451782,0.00070257
1288.44332520,0.00074977
1290.37213257,0.00052693
1292.30093994,0.00057147
1294.22974731,0.00060149
1296.15855469,0.00064946
1298.08736206,0.00076057
1300.01616943,0.00058015
1301.94497681,0.00066076
1303.87378418,0.00071714
1305.80259155,0.00057610
1307.73139893,0.00075359
1309.66020630,0.00085207
1311.58901367,0.00070339
1313.51782104,0.00071752
1315.44662842,0.00078234
1317.37543579,0.00081832
1319.30424316,0.00074067
1321.23305054,0.00060470
1323.16185791,0.00069160
1325.09066528,0.00078855
1327.01947266,0.00096440
1328.94828003,0.00096645
1330.87708740,0.00091939
1332.80589478,0.00102380
1334.73470215,0.00087556
1336.66350952,0.00092879
1338.59231689,0.00085397
1340.52112427,0.00081096
1342.44993164,0.00110079
1344.37873901,0.00102816
1346.30754639,0.00094605
1348.23635376,0.00094896
1350.16516113,0.00091788
1352.09396851,0.00074966
1354.02277588,0.00071765
1355.95158325,0.00101196
1357.88039062,0.00101954
1359.80919800,0.00097778
1361.73800537,0.00101786
1363.66681274,0.00090566
1365.59562012,0.00086658
1367.52442749,0.00101006
1369.45323486,0.00092734
1371.38204224,0.00093973
1373.31084961,0.00117304
1375.23965698,0.00105477
1377.16846436,0.00107332
1379.09727173,0.00099678
1381.02607910,0.00081368
1382.95488647,0.00090057
1384.88369385,0.00094376
1386.81250122,0.00095160
1388.74130859,0.00091477
1390.67011597,0.00101419
1392.59892334,0.00088358
1394.52773071,0.00086353
1396.45653809,0.00100571
1398.38534546,0.00090017
1400.31415283,0.00111571
1402.24296021,0.00102459
1404.17176758,0.00083000
1406.10057495,0.00101053
1408.02938232,0.00105542
1409.95818970,0.00091427
1411.88699707,0.00083809
1413.81580444,0.00102181
1415.74461182,0.00101136
1417.67341919,0.00100567
1419.60222656,0.00088867
1421.53103394,0.00070385
1423.45984131,0.00091253
1425.38864868,0.00092059
1427.31745605,0.00085200
1429.24626343,0.00085943
1431.17507080,0.00095122
1433.10387817,0.00105513
1435.03268555,0.00081492
1436.96149292,0.00062529
1438.89030029,0.00071449
1440.81910767,0.00076995
1442.74791504,0.00081519
1444.67672241,0.00083670
1446.60552979,0.00062353
1448.53433716,0.00075694
1450.46314453,0.00080428
1452.39195190,0.00070686
1454.32075928,0.00100429
1456.24956665,0.00074687
1458.17837402,0.00068881
1460.10718140,0.00099991
1462.03598877,0.00097390
1463.96479614,0.00105941
1465.89360352,0.00096425
1467.82241089,0.00107174
1469.75121826,0.00119088
1471.68002563,0.00100461
1473.60883301,0.00118425
1475.53764038,0.00121892
1477.46644775,0.00119611
1479.39525513,0.00145825
1481.32406250,0.00132541
1483.25286987,0.00130049
1485.18167725,0.00144048
1487.11048462,0.00136952
1489.03929199,0.00152615
1490.96809937,0.00142509
1492.89690674,0.00153062
1494.82571411,0.00169345
1496.75452148,0.00147695
1498.68332886,0.00169930
1500.61213623,0.00170678
1502.54094360,0.00181395
1504.46975098,0.00178540
1506.39855835,0.00126376
1508.32736572,0.00148127
1510.25617310,0.00173329
1512.18498047,0.00175868
1514.11378784,0.00193347
1516.04259521,0.00184046
1517.97140259,0.00168090
1519.90020996,0.00180365
1521.82901733,0.00182497
1523.75782471,0.00177915
1525.68663208,0.00195112
1527.61543945,0.00186905
1529.54424683,0.00191523
1531.47305420,0.00190210
1533.40186157,0.00175848
1535.33066895,0.00196095
1537.25947632,0.00175380
1539.18828369,0.00153553
1541.11709106,0.00171848
1543.04589844,0.00169823
1544.97470581,0.00172477
1546.90351318,0.00196196
1548.83232056,0.00184810
1550.76112793,0.00181077
1552.68993530,0.00201598
1554.61874268,0.00192920
1556.54755005,0.00182843
1558.47635742,0.00138718
1560.40516479,0.00148371
1562.33397217,0.00217987
1564.26277954,0.00197515
1566.19158691,0.00197988
1568.12039429,0.00220391
1570.04920166,0.00190298
1571.97800903,0.00197931
1573.90681641,0.00204583
1575.83562378,0.00172424
1577.76443115,0.00198282
1579.69323853,0.00235774
1581.62204590,0.00217116
1583.55085327,0.00218780
1585.47966064,0.00219139
1587.40846802,0.00207364
1589.33727539,0.00210632
1591.26608276,0.00208124
1593.19489014,0.00205284
1595.12369751,0.00202362
1597.05250488,0.00207953
1598.98131226,0.00209477
1600.91011963,0.00204957
1602.83892700,0.00205783
1604.76773437,0.00215624
1606.69654175,0.00210436
1608.62534912,0.00195252
1610.55415649,0.00209344
1612.48296387,0.00221719
1614.41177124,0.00204681
1616.34057861,0.00173678
1618.26938599,0.00199473
1620.19819336,0.00228936
1622.12700073,0.00208385
1624.05580811,0.00202419
1625.98461548,0.00202632
1627.91342285,0.00219688
1629.84223022,0.00212605
1631.77103760,0.00211241
1633.69984497,0.00209386
1635.62865234,0.00169519
1637.55745972,0.00194762
1639.48626709,0.00206518
1641.41507446,0.00204361
1643.34388184,0.00221837
1645.27268921,0.00187535
1647.20149658,0.00174818
1649.13030396,0.00219942
1651.05911133,0.00209393
1652.98791870,0.00145266
1654.91672607,0.00184658
1656.84553345,0.00223222
1658.77434082,0.00211638
1660.70314819,0.00229178
1662.63195557,0.00213606
1664.56076294,0.00225522
1666.48957031,0.00225894
1668.41837769,0.00183057
1670.34718506,0.00203558
1672.27599243,0.00231082
1674.20479980,0.00199432
1676.13360718,0.00201388
1678.06241455,0.00230970
1679.99122192,0.00225804
1681.92002930,0.00231006
1683.84883667,0.00181425
1685.77764404,0.00181791
1687.70645142,0.00238398
1689.63525879,0.00197061
1691.56406616,0.00228208
1693.49287354,0.00237576
1695.42168091,0.00185837
1697.35048828,0.00222542
1699.27929565,0.00199984
1701.20810303,0.00194986
1703.13691040,0.00234682
1705.06571777,0.00206078
1706.99452515,0.00222168
1708.92333252,0.00233676
1710.85213989,0.00212394
1712.78094727,0.00224884
1714.70975464,0.00206124
1716.63856201,0.00192710
1718.56736938,0.00203699
1720.49617676,0.00222016
1722.42498413,0.00227577
1724.35379150,0.00216770
1726.28259888,0.00237950
1728.21140625,0.00219941
1730.14021362,0.00223935
1732.06902100,0.00232612
1733.99782837,0.00184757
1735.92663574,0.00207648
1737.85544312,0.00224444
1739.78425049,0.00215831
1741.71305786,0.00225608
1743.64186523,0.00227224
1745.57067261,0.00223007
1747.49947998,0.00216824
1749.42828735,0.00226911
1751.35709473,0.00208481
1753.28590210,0.00229216
1755.21470947,0.00250254
1757.14351685,0.00227001
1759.07232422,0.00237145
1761.00113159,0.00224962
1762.92993896,0.00239344
1764.85874634,0.00248672
1766.78755371,0.00222794
1768.71636108,0.00236033
1770.64516846,0.00226379
1772.57397583,0.00216250
1774.50278320,0.00241454
1776.43159058,0.00248251
1778.36039795,0.00237644
1780.28920532,0.00245772
1782.21801270,0.00246918
1784.14682007,0.00239402
1786.07562744,0.00246663
1788.00443481,0.00245565
1789.93324219,0.00234971
1791.86204956,0.00220087
1793.79085693,0.00226435
1795.71966431,0.00246595
1797.64847168,0.00247895
1799.57727905,0.00236783
1801.50608643,0.00247529
1803.43489380,0.00248234
1805.36370117,0.00232019
1807.29250854,0.00262421
1809.22131592,0.00250514
1811.15012329,0.00237636
1813.07893066,0.00260334
1815.00773804,0.00247928
1816.93654541,0.00257759
1818.86535278,0.00239145
1820.79416016,0.00246923
1822.72296753,0.00264684
1824.65177490,0.00223280
1826.58058228,0.00235803
1828.50938965,0.00235387
1830.43819702,0.00234307
1832.36700439,0.00261381
1834.29581177,0.00252208
1836.22461914,0.00252498
1838.15342651,0.00256818
1840.08223389,0.00252141
1842.01104126,0.00237747
1843.93984863,0.00228267
1845.86865601,0.00244339
1847.79746338,0.00256421
1849.72627075,0.00253102
1851.65507812,0.00251805
1853.58388550,0.00249740
1855.51269287,0.00247661
1857.44150024,0.00254325
1859.37030762,0.00253751
1861.29911499,0.00255111
1863.22792236,0.00252722
1865.15672974,0.00252471
1867.08553711,0.00251883
1869.01434448,0.00237162
1870.94315186,0.00247544
1872.87195923,0.00268339
1874.80076660,0.00267753
1876.72957397,0.00245922
1878.65838135,0.00248624
1880.58718872,0.00262466
1882.51599609,0.00249235
1884.44480347,0.00250519
1886.37361084,0.00243099
1888.30241821,0.00243260
1890.23122559,0.00251583
1892.16003296,0.00248756
1894.08884033,0.00259392
1896.01764771,0.00251454
1897.94645508,0.00253702
1899.87526245,0.00259023
1901.80406982,0.00241734
1903.73287720,0.00240974
1905.66168457,0.00250472
1907.59049194,0.00247769
1909.51929932,0.00241060
1911.44810669,0.00251243
1913.37691406,0.00259473
1915.30572144,0.00253594
1917.23452881,0.00250037
1919.16333618,0.00254694
1921.09214355,0.00250118
1923.02095093,0.00244254
1924.94975830,0.00241010
1926.87856567,0.00240245
1928.80737305,0.00266844
1930.73618042,0.00264474
1932.66498779,0.00247821
1934.59379517,0.00250200
1936.52260254,0.00250827
1938.45140991,0.00255997
1940.38021729,0.00246221
1942.30902466,0.00254220
1944.23783203,0.00254975
1946.16663940,0.00251941
1948.09544678,0.00257684
1950.02425415,0.00246185
1951.95306152,0.00260730
1953.88186890,0.00257510
1955.81067627,0.00256534
1957.73948364,0.00259160
1959.66829102,0.00248680
1961.59709839,0.00255888
1963.52590576,0.00243331
1965.45471313,0.00257180
1967.38352051,0.00262758
1969.31232788,0.00248114
1971.24113525,0.00256758
1973.16994263,0.00258156
1975.09875000,0.00264830
1977.02755737,0.00260977
1978.95636475,0.00263776
1980.88517212,0.00250897
1982.81397949,0.00239593
1984.74278687,0.00267540
1986.67159424,0.00258016
1988.60040161,0.00257941
1990.52920898,0.00266409
1992.45801636,0.00246974
1994.38682373,0.00254235
1996.31563110,0.00255097
1998.24443848,0.00254742
2000.17324585,0.00265280
2002.10205322,0.00261539
2004.03086060,0.00266163
2005.95966797,0.00256819
2007.88847534,0.00248106
2009.81728271,0.00258979
2011.74609009,0.00256011
2013.67489746,0.00254127
2015.60370483,0.00245185
2017.53251221,0.00248835
2019.46131958,0.00269505
2021.39012695,0.00264754
2023.31893433,0.00255759
2025.24774170,0.00255028
2027.17654907,0.00255489
2029.10535645,0.00245584
2031.03416382,0.00251593
2032.96297119,0.00251209
2034.89177856,0.00234796
2036.82058594,0.00258701
2038.74939331,0.00260545
2040.67820068,0.00252400
2042.60700806,0.00255715
2044.53581543,0.00249104
2046.46462280,0.00257860
2048.39343018,0.00251908
2050.32223755,0.00258747
2052.25104492,0.00259313
2054.17985229,0.00246403
2056.10865967,0.00252826
2058.03746704,0.00248330
2059.96627441,0.00259401
2061.89508179,0.00257896
2063.82388916,0.00244020
2065.75269653,0.00255565
2067.68150391,0.00252612
2069.61031128,0.00248049
2071.53911865,0.00247720
2073.46792603,0.00242799
2075.39673340,0.00251570
2077.32554077,0.00253468
2079.25434814,0.00245714
2081.18315552,0.00245552
2083.11196289,0.00249104
2085.04077026,0.00250425
2086.96957764,0.00244744
2088.89838501,0.00247081
2090.82719238,0.00250975
2092.75599976,0.00243477
2094.68480713,0.00236357
2096.61361450,0.00239333
2098.54242187,0.00250680
2100.47122925,0.00241854
2102.40003662,0.00241212
2104.32884399,0.00253608
2106.25765137,0.00250320
2108.18645874,0.00251251
2110.11526611,0.00246052
2112.04407349,0.00253271
2113.97288086,0.00261853
2115.90168823,0.00253665
2117.83049561,0.00249557
2119.75930298,0.00246421
2121.68811035,0.00253411
2123.61691772,0.00242478
2125.54572510,0.00232323
2127.47453247,0.00244974
2129.40333984,0.00248012
2131.33214722,0.00247586
2133.26095459,0.00244628
2135.18976196,0.00245724
2137.11856934,0.00250571
2139.04737671,0.00250815
2140.97618408,0.00241288
2142.90499146,0.00237862
2144.83379883,0.00254781
2146.76260620,0.00250902
2148.69141357,0.00237969
2150.62022095,0.00246569
2152.54902832,0.00250185
2154.47783569,0.00245431
2156.40664307,0.00245549
2158.33545044,0.00251615
2160.26425781,0.00252654
2162.19306519,0.00244830
2164.12187256,0.00253861
2166.05067993,0.00248691
2167.97948730,0.00234682
2169.90829468,0.00246017
2171.83710205,0.00235011
2173.76590942,0.00243661
2175.69471680,0.00255729
2177.62352417,0.00244564
2179.55233154,0.00263535
2181.48113892,0.00248520
2183.40994629,0.00233316
2185.33875366,0.00252522
2187.26756104,0.00254445
2189.19636841,0.00242256
2191.12517578,0.00234362
2193.05398315,0.00246200
2194.98279053,0.00243329
2196.91159790,0.00246233
2198.84040527,0.00251906
2200.76921265,0.00243850
2202.69802002,0.00248751
2204.62682739,0.00245202
2206.55563477,0.00242963
2208.48444214,0.00242113
2210.41324951,0.00251329
2212.34205688,0.00250762
2214.27086426,0.00239841
2216.19967163,0.00250359
2218.12847900,0.00238145
2220.05728638,0.00235573
2221.98609375,0.00248619
2223.91490112,0.00244882
2225.84370850,0.00245567
2227.77251587,0.00242675
2229.70132324,0.00249891
2231.63013062,0.00251797
2233.55893799,0.00238633
2235.48774536,0.00250768
2237.41655273,0.00254182
2239.34536011,0.00243718
2241.27416748,0.00252335
2243.20297485,0.00241901
2245.13178223,0.00240665
2247.06058960,0.00249532
2248.98939697,0.00243934
2250.91820435,0.00257770
2252.84701172,0.00246775
2254.77581909,0.00241852
2256.70462646,0.00255796
2258.63343384,0.00245058
2260.56224121,0.00248796
2262.49104858,0.00248846
2264.41985596,0.00238226
2266.34866333,0.00240675
2268.27747070,0.00257435
2270.20627808,0.00255195
2272.13508545,0.00240524
2274.06389282,0.00248979
2275.99270020,0.00244142
2277.92150757,0.00242964
2279.85031494,0.00245892
2281.77912231,0.00244527
2283.70792969,0.00253813
2285.63673706,0.00257928
2287.56554443,0.00258677
2289.49435181,0.00243222
2291.42315918,0.00239518
2293.35196655,0.00245767
2295.28077393,0.00238228
2297.20958130,0.00233807
2299.13838867,0.00235050
2301.06719604,0.00245783
2302.99600342,0.00239619
2304.92481079,0.00231257
2306.85361816,0.00234506
2308.78242554,0.00235218
2310.71123291,0.00243624
2312.64004028,0.00241278
2314.56884766,0.00238482
2316.49765503,0.00231229
2318.42646240,0.00224474
2320.35526978,0.00236863
2322.28407715,0.00221314
2324.21288452,0.00208124
2326.14169189,0.00221426
2328.07049927,0.00217260
2329.99930664,0.00214094
2331.92811401,0.00211735
2333.85692139,0.00208363
2335.78572876,0.00214122
2337.71453613,0.00216287
2339.64334351,0.00217342
2341.57215088,0.00210552
2343.50095825,0.00208956
2345.42976562,0.00218115
2347.35857300,0.00238501
2349.28738037,0.00244980
2351.21618774,0.00224550
2353.14499512,0.00229010
2355.07380249,0.00220398
2357.00260986,0.00200198
2358.93141724,0.00202831
2360.86022461,0.00198704
2362.78903198,0.00205208
2364.71783936,0.00211785
2366.64664673,0.00215597
2368.57545410,0.00213887
2370.50426147,0.00211390
2372.43306885,0.00216583
2374.36187622,0.00212272
2376.29068359,0.00225423
2378.21949097,0.00226096
2380.14829834,0.00222881
2382.07710571,0.00241266
2384.00591309,0.00240157
2385.93472046,0.00234831
2387.86352783,0.00236678
2389.79233521,0.00238275
2391.72114258,0.00236716
2393.64994995,0.00236609
2395.57875732,0.00233273
2397.50756470,0.00236562
2399.43637207,0.00245646
2401.36517944,0.00231870
2403.29398682,0.00238302
2405.22279419,0.00251961
2407.15160156,0.00243273
2409.08040894,0.00240252
2411.00921631,0.00233617
2412.93802368,0.00234901
2414.86683105,0.00241124
2416.79563843,0.00237117
2418.72444580,0.00236034
2420.65325317,0.00238116
2422.58206055,0.00239378
2424.51086792,0.00238830
2426.43967529,0.00240712
2428.36848267,0.00241928
2430.29729004,0.00236742
2432.22609741,0.00234149
2434.15490479,0.00231489
2436.08371216,0.00231933
2438.01251953,0.00242963
2439.94132690,0.00241765
2441.87013428,0.00236783
2443.79894165,0.00236913
2445.72774902,0.00234830
2447.65655640,0.00232049
2449.58536377,0.00227458
2451.51417114,0.00241071
2453.44297852,0.00243600
2455.37178589,0.00238923
2457.30059326,0.00239316
2459.22940063,0.00226235
2461.15820801,0.00239835
2463.08701538,0.00246611
2465.01582275,0.00237659
2466.94463013,0.00237516
2468.87343750,0.00232668
2470.80224487,0.00233705
2472.73105225,0.00231591
2474.65985962,0.00241177
2476.58866699,0.00244051
2478.51747437,0.00228071
2480.44628174,0.00230426
2482.37508911,0.00248666
2484.30389648,0.00246580
2486.23270386,0.00238107
2488.16151123,0.00244685
2490.09031860,0.00227524
2492.01912598,0.00230457
2493.94793335,0.00236350
2495.87674072,0.00230240
2497.80554810,0.00248692
2499.73435547,0.00237101
2501.66316284,0.00241622
2503.59197021,0.00244974
2505.52077759,0.00226930
2507.44958496,0.00234365
2509.37839233,0.00234225
2511.30719971,0.00234097
2513.23600708,0.00233087
2515.16481445,0.00234029
2517.09362183,0.00229376
2519.02242920,0.00235378
2520.95123657,0.00237184
2522.88004395,0.00226326
2524.80885132,0.00242517
2526.73765869,0.00227870
2528.66646606,0.00235843
2530.59527344,0.00251633
2532.52408081,0.00231464
2534.45288818,0.00242736
2536.38169556,0.00238166
2538.31050293,0.00232099
2540.23931030,0.00231891
2542.16811768,0.00227634
2544.09692505,0.00233233
2546.02573242,0.00237817
2547.95453979,0.00242455
2549.88334717,0.00227723
2551.81215454,0.00232185
2553.74096191,0.00235708
2555.66976929,0.00231363
2557.59857666,0.00235757
2559.52738403,0.00222014
2561.45619141,0.00226226
2563.38499878,0.00228059
2565.31380615,0.00225175
2567.24261353,0.00231421
2569.17142090,0.00226303
2571.10022827,0.00231926
2573.02903564,0.00242403
2574.95784302,0.00242956
2576.88665039,0.00233507
2578.81545776,0.00221346
2580.74426514,0.00223671
2582.67307251,0.00232880
2584.60187988,0.00233101
2586.53068726,0.00229531
2588.45949463,0.00224774
2590.38830200,0.00226266
2592.31710937,0.00225420
2594.24591675,0.00219300
2596.17472412,0.00224679
2598.10353149,0.00227683
2600.03233887,0.00229869
2601.96114624,0.00219468
2603.88995361,0.00223584
2605.81876099,0.00237670
2607.74756836,0.00221922
2609.67637573,0.00231994
2611.60518311,0.00231299
2613.53399048,0.00216495
2615.46279785,0.00223841
2617.39160522,0.00223446
2619.32041260,0.00229744
2621.24921997,0.00228604
2623.17802734,0.00230995
2625.10683472,0.00224274
2627.03564209,0.00219513
2628.96444946,0.00233737
2630.89325684,0.00220204
2632.82206421,0.00222998
2634.75087158,0.00230042
2636.67967895,0.00223737
2638.60848633,0.00230449
2640.53729370,0.00225223
2642.46610107,0.00223816
2644.39490845,0.00226338
2646.32371582,0.00227521
2648.25252319,0.00233578
2650.18133057,0.00227840
2652.11013794,0.00219821
2654.03894531,0.00224719
2655.96775269,0.00226700
2657.89656006,0.00222248
2659.82536743,0.00223430
2661.75417480,0.00225663
2663.68298218,0.00225937
2665.61178955,0.00221021
2667.54059692,0.00224760
2669.46940430,0.00229380
2671.39821167,0.00223340
2673.32701904,0.00223001
2675.25582642,0.00219297
2677.18463379,0.00227654
2679.11344116,0.00229816
2681.04224854,0.00211122
2682.97105591,0.00220381
2684.89986328,0.00231096
2686.82867065,0.00224591
2688.75747803,0.00220059
2690.68628540,0.00221171
2692.61509277,0.00232083
2694.54390015,0.00226495
2696.47270752,0.00221266
2698.40151489,0.00226897
2700.33032227,0.00220856
2702.25912964,0.00215399
2704.18793701,0.00222903
2706.11674438,0.00235501
2708.04555176,0.00219855
2709.97435913,0.00210202
2711.90316650,0.00221642
2713.83197388,0.00220270
2715.76078125,0.00225266
2717.68958862,0.00218945
2719.61839600,0.00216564
2721.54720337,0.00217659
2723.47601074,0.00215997
2725.40481812,0.00225700
2727.33362549,0.00208417
2729.26243286,0.00208879
2731.19124023,0.00218598
2733.12004761,0.00219210
2735.04885498,0.00226897
2736.97766235,0.00212448
2738.90646973,0.00217275
2740.83527710,0.00224180
2742.76408447,0.00217490
2744.69289185,0.00215293
2746.62169922,0.00211396
2748.55050659,0.00218594
2750.47931396,0.00218633
2752.40812134,0.00219909
2754.33692871,0.00219959
2756.26573608,0.00211567
2758.19454346,0.00210868
2760.12335083,0.00216012
2762.05215820,0.00214141
2763.98096558,0.00207681
2765.90977295,0.00213141
2767.83858032,0.00207931
2769.76738770,0.00206777
2771.69619507,0.00218248
2773.62500244,0.00215046
2775.55380981,0.00214406
2777.48261719,0.00219281
2779.41142456,0.00220389
2781.34023193,0.00218205
2783.26903931,0.00212322
2785.19784668,0.00211987
2787.12665405,0.00219064
2789.05546143,0.00216837
2790.98426880,0.00212072
2792.91307617,0.00208211
2794.84188354,0.00205224
2796.77069092,0.00210350
2798.69949829,0.00207811
2800.62830566,0.00208189
2802.55711304,0.00209993
2804.48592041,0.00214552
2806.41472778,0.00211823
2808.34353516,0.00205319
2810.27234253,0.00215769
2812.20114990,0.00209607
2814.12995728,0.00216346
2816.05876465,0.00214777
2817.98757202,0.00199628
2819.91637939,0.00211691
2821.84518677,0.00208217
2823.77399414,0.00213190
2825.70280151,0.00208641
2827.63160889,0.00200040
2829.56041626,0.00205768
2831.48922363,0.00191096
2833.41803101,0.00201594
2835.34683838,0.00207371
2837.27564575,0.00204524
2839.20445312,0.00212772
2841.13326050,0.00202890
2843.06206787,0.00205348
2844.99087524,0.00207916
2846.91968262,0.00206317
2848.84848999,0.00202572
2850.77729736,0.00195518
2852.70610474,0.00206373
2854.63491211,0.00206803
2856.56371948,0.00211463
2858.49252686,0.00211198
2860.42133423,0.00195972
2862.35014160,0.00206746
2864.27894897,0.00205326
2866.20775635,0.00205883
2868.13656372,0.00206097
2870.06537109,0.00196005
2871.99417847,0.00210913
2873.92298584,0.00199083
2875.85179321,0.00201073
2877.78060059,0.00206193
2879.70940796,0.00190541
2881.63821533,0.00203551
2883.56702270,0.00192894
2885.49583008,0.00196981
2887.42463745,0.00200709
2889.35344482,0.00187262
2891.28225220,0.00203190
2893.21105957,0.00197890
2895.13986694,0.00195916
2897.06867432,0.00197969
2898.99748169,0.00191902
2900.92628906,0.00197195
2902.85509644,0.00199969
2904.78390381,0.00198616
2906.71271118,0.00193050
2908.64151855,0.00194950
2910.57032593,0.00194132
2912.49913330,0.00190603
2914.42794067,0.00188389
2916.35674805,0.00192303
2918.28555542,0.00196148
2920.21436279,0.00193531
2922.14317017,0.00194461
2924.07197754,0.00187837
2926.00078491,0.00186838
2927.92959229,0.00184797
2929.85839966,0.00195289
2931.78720703,0.00200557
2933.71601440,0.00185194
2935.64482178,0.00195108
2937.57362915,0.00195068
2939.50243652,0.00192523
2941.43124390,0.00189609
2943.36005127,0.00180770
2945.28885864,0.00196158
2947.21766602,0.00192491
2949.14647339,0.00180021
2951.07528076,0.00185042
2953.00408813,0.00191537
2954.93289551,0.00193405
2956.86170288,0.00189313
2958.79051025,0.00182132
2960.71931763,0.00184078
2962.64812500,0.00188866
2964.57693237,0.00176959
2966.50573975,0.00180757
2968.43454712,0.00193035
2970.36335449,0.00188018
2972.29216187,0.00187967
2974.22096924,0.00190754
2976.14977661,0.00192043
2978.07858398,0.00190125
2980.00739136,0.00182117
2981.93619873,0.00183204
2983.86500610,0.00189394
2985.79381348,0.00193076
2987.72262085,0.00196641
2989.65142822,0.00189237
2991.58023560,0.00186991
2993.50904297,0.00188356
2995.43785034,0.00185736
2997.36665771,0.00187777
2999.29546509,0.00183843
3001.22427246,0.00187852
3003.15307983,0.00179157
3005.08188721,0.00173799
3007.01069458,0.00188751
3008.93950195,0.00183893
3010.86830933,0.00183671
3012.79711670,0.00190555
3014.72592407,0.00191524
3016.65473145,0.00189388
3018.58353882,0.00191907
3020.51234619,0.00186617
3022.44115356,0.00179825
3024.36996094,0.00190162
3026.29876831,0.00178271
3028.22757568,0.00182807
3030.15638306,0.00195417
3032.08519043,0.00190371
3034.01399780,0.00189405
3035.94280518,0.00176951
3037.87161255,0.00183667
3039.80041992,0.00183302
3041.72922729,0.00177466
3043.65803467,0.00184863
3045.58684204,0.00180628
3047.51564941,0.00180580
3049.44445679,0.00180449
3051.37326416,0.00179089
3053.30207153,0.00174884
3055.23087891,0.00182010
3057.15968628,0.00187321
3059.08849365,0.00178320
3061.01730103,0.00173689
3062.94610840,0.00175587
3064.87491577,0.00184433
3066.80372314,0.00177535
3068.73253052,0.00177174
3070.66133789,0.00178924
3072.59014526,0.00174375
3074.51895264,0.00177869
3076.44776001,0.00175290
3078.37656738,0.00177249
3080.30537476,0.00176151
3082.23418213,0.00181126
3084.16298950,0.00176998
3086.09179687,0.00175092
3088.02060425,0.00181018
3089.94941162,0.00166994
3091.87821899,0.00169804
3093.80702637,0.00169912
3095.73583374,0.00177761
3097.66464111,0.00184050
3099.59344849,0.00171302
3101.52225586,0.00178457
3103.45106323,0.00174961
3105.37987061,0.00173365
3107.30867798,0.00173981
3109.23748535,0.00164601
3111.16629272,0.00164573
3113.09510010,0.00173509
3115.02390747,0.00172886
3116.95271484,0.00157061
3118.88152222,0.00168134
3120.81032959,0.00169649
3122.73913696,0.00161985
3124.66794434,0.00171761
3126.59675171,0.00166467
3128.52555908,0.00169392
3130.45436645,0.00168452
3132.38317383,0.00172243
3134.31198120,0.00181430
3136.24078857,0.00164938
3138.16959595,0.00168364
3140.09840332,0.00174801
3142.02721069,0.00162911
3143.95601807,0.00161804
3145.88482544,0.00163762
3147.81363281,0.00171386
3149.74244019,0.00166169
3151.67124756,0.00156010
3153.60005493,0.00168788
3155.52886230,0.00165379
3157.45766968,0.00164657
3159.38647705,0.00176291
3161.31528442,0.00166268
3163.24409180,0.00166547
3165.17289917,0.00162576
3167.10170654,0.00155021
3169.03051392,0.00168194
3170.95932129,0.00161797
3172.88812866,0.00155842
3174.81693604,0.00161981
3176.74574341,0.00162125
3178.67455078,0.00168818
3180.60335815,0.00158338
3182.53216553,0.00152238
3184.46097290,0.00162617
3186.38978027,0.00160367
3188.31858765,0.00166443
3190.24739502,0.00159256
3192.17620239,0.00151799
3194.10500977,0.00167212
3196.03381714,0.00162265
3197.96262451,0.00153403
3199.89143188,0.00147510
3201.82023926,0.00148207
3203.74904663,0.00155607
3205.67785400,0.00148064
3207.60666138,0.00151306
3209.53546875,0.00156712
3211.46427612,0.00153559
3213.39308350,0.00155525
3215.32189087,0.00158266
3217.25069824,0.00156767
3219.17950562,0.00153208
3221.10831299,0.00154430
3223.03712036,0.00156059
3224.96592773,0.00151032
3226.89473511,0.00144636
3228.82354248,0.00155996
3230.75234985,0.00155349
3232.68115723,0.00145175
3234.60996460,0.00157492
3236.53877197,0.00152846
3238.46757935,0.00150781
3240.39638672,0.00156877
3242.32519409,0.00149669
3244.25400146,0.00150864
3246.18280884,0.00149690
3248.11161621,0.00152695
3250.04042358,0.00154421
3251.96923096,0.00150696
3253.89803833,0.00149685
3255.82684570,0.00149200
3257.75565308,0.00154266
3259.68446045,0.00145449
3261.61326782,0.00141046
3263.54207520,0.00151065
3265.47088257,0.00152138
3267.39968994,0.00153954
3269.32849731,0.00158445
3271.25730469,0.00152030
3273.18611206,0.00142888
3275.11491943,0.00151296
3277.04372681,0.00153326
3278.97253418,0.00146017
3280.90134155,0.00152452
3282.83014893,0.00147939
3284.75895630,0.00142431
3286.68776367,0.00149754
3288.61657104,0.00146691
3290.54537842,0.00145940
3292.47418579,0.00149077
3294.40299316,0.00144808
3296.33180054,0.00151942
3298.26060791,0.00150830
3300.18941528,0.00144858
3302.11822266,0.00156672
3304.04703003,0.00144393
3305.97583740,0.00140953
3307.90464478,0.00155994
3309.83345215,0.00146398
3311.76225952,0.00149297
3313.69106689,0.00146020
3315.61987427,0.00143112
3317.54868164,0.00156139
3319.47748901,0.00146680
3321.40629639,0.00150648
3323.33510376,0.00157970
3325.26391113,0.00147226
3327.19271851,0.00148998
3329.12152588,0.00149767
3331.05033325,0.00144329
3332.97914062,0.00147931
3334.90794800,0.00148643
3336.83675537,0.00149971
3338.76556274,0.00157952
3340.69437012,0.00144660
3342.62317749,0.00139927
3344.55198486,0.00151347
3346.48079224,0.00140607
3348.40959961,0.00137203
3350.33840698,0.00141061
3352.26721436,0.00136568
3354.19602173,0.00139688
3356.12482910,0.00145655
3358.05363647,0.00145137
3359.98244385,0.00146130
3361.91125122,0.00148962
3363.84005859,0.00151705
3365.76886597,0.00154521
3367.69767334,0.00144092
3369.62648071,0.00147346
3371.55528809,0.00153020
3373.48409546,0.00141813
3375.41290283,0.00141297
3377.34171020,0.00144282
3379.27051758,0.00151422
3381.19932495,0.00146400
3383.12813232,0.00140450
3385.05693970,0.00138914
3386.98574707,0.00134613
3388.91455444,0.00150335
3390.84336182,0.00152128
3392.77216919,0.00145108
3394.70097656,0.00140566
3396.62978394,0.00142070
3398.55859131,0.00140550
3400.48739868,0.00134488
3402.41620605,0.00149191
3404.34501343,0.00138516
3406.27382080,0.00139367
3408.20262817,0.00149936
3410.13143555,0.00141404
3412.06024292,0.00151849
3413.98905029,0.00143110
3415.91785767,0.00135884
3417.84666504,0.00140018
3419.77547241,0.00140450
3421.70427979,0.00141531
3423.63308716,0.00135422
3425.56189453,0.00138333
3427.49070190,0.00141637
3429.41950928,0.00146465
3431.34831665,0.00141918
3433.27712402,0.00139744
3435.20593140,0.00141704
3437.13473877,0.00133566
3439.06354614,0.00139388
3440.99235352,0.00149101
3442.92116089,0.00150488
3444.84996826,0.00140517
3446.77877563,0.00139364
3448.70758301,0.00136146
3450.63639038,0.00132919
3452.56519775,0.00146606
3454.49400513,0.00139184
3456.42281250,0.00139700
3458.35161987,0.00146687
3460.28042725,0.00139118
3462.20923462,0.00135503
3464.13804199,0.00136894
3466.06684937,0.00143383
3467.99565674,0.00134857
3469.92446411,0.00131094
3471.85327148,0.00142013
3473.78207886,0.00140449
3475.71088623,0.00130375
3477.63969360,0.00141304
3479.56850098,0.00150546
3481.49730835,0.00130857
3483.42611572,0.00133173
3485.35492310,0.00143706
3487.28373047,0.00142864
3489.21253784,0.00144168
3491.14134521,0.00134889
3493.07015259,0.00133949
3494.99895996,0.00139117
3496.92776733,0.00134721
3498.85657471,0.00134922
3500.78538208,0.00146319
3502.71418945,0.00142014
3504.64299683,0.00136150
3506.57180420,0.00137150
3508.50061157,0.00124834
3510.42941895,0.00126441
3512.35822632,0.00130472
3514.28703369,0.00137061
3516.21584106,0.00140704
3518.14464844,0.00133648
3520.07345581,0.00141638
3522.00226318,0.00137810
3523.93107056,0.00134652
3525.85987793,0.00135457
3527.78868530,0.00134859
3529.71749268,0.00138330
3531.64630005,0.00130684
3533.57510742,0.00135413
3535.50391479,0.00132525
3537.43272217,0.00129893
3539.36152954,0.00136959
3541.29033691,0.00133998
3543.21914429,0.00139071
3545.14795166,0.00132122
3547.07675903,0.00133732
3549.00556641,0.00142184
3550.93437378,0.00133878
3552.86318115,0.00133760
3554.79198853,0.00135356
3556.72079590,0.00145886
3558.64960327,0.00143123
3560.57841064,0.00133686
3562.50721802,0.00137974
3564.43602539,0.00130188
3566.36483276,0.00130299
3568.29364014,0.00124839
3570.22244751,0.00127074
3572.15125488,0.00139432
3574.08006226,0.00131231
3576.00886963,0.00137569
3577.93767700,0.00135777
3579.86648437,0.00126141
3581.79529175,0.00131711
3583.72409912,0.00135255
3585.65290649,0.00133271
3587.58171387,0.00119949
3589.51052124,0.00128614
3591.43932861,0.00146154
3593.36813599,0.00140678
3595.29694336,0.00134934
3597.22575073,0.00134820
3599.15455811,0.00137503
3601.08336548,0.00138277
3603.01217285,0.00140900
3604.94098022,0.00139392
3606.86978760,0.00128316
3608.79859497,0.00125071
3610.72740234,0.00127428
3612.65620972,0.00124202
3614.58501709,0.00126849
3616.51382446,0.00131341
3618.44263184,0.00124123
3620.37143921,0.00127514
3622.30024658,0.00135403
3624.22905395,0.00138393
3626.15786133,0.00134808
3628.08666870,0.00115808
3630.01547607,0.00123152
3631.94428345,0.00144818
3633.87309082,0.00138255
3635.80189819,0.00132350
3637.73070557,0.00141166
3639.65951294,0.00139175
3641.58832031,0.00133996
3643.51712769,0.00139689
3645.44593506,0.00136623
3647.37474243,0.00128218
3649.30354980,0.00117317
3651.23235718,0.00116459
3653.16116455,0.00135826
3655.08997192,0.00133004
3657.01877930,0.00126214
3658.94758667,0.00138652
3660.87639404,0.00140838
3662.80520142,0.00141079
3664.73400879,0.00141532
3666.66281616,0.00143943
3668.59162354,0.00133903
3670.52043091,0.00115569
3672.44923828,0.00132677
3674.37804565,0.00127263
3676.30685303,0.00110192
3678.23566040,0.00134199
3680.16446777,0.00142207
3682.09327515,0.00139740
3684.02208252,0.00137619
3685.95088989,0.00137942
3687.87969727,0.00125769
3689.80850464,0.00109181
3691.73731201,0.00134004
3693.66611938,0.00144123
3695.59492676,0.00143729
3697.52373413,0.00141767
3699.45254150,0.00131402
3701.38134888,0.00128096
3703.31015625,0.00125136
3705.23896362,0.00145118
3707.16777100,0.00138929
3709.09657837,0.00129825
3711.02538574,0.00132103
3712.95419312,0.00116695
3714.88300049,0.00125446
3716.81180786,0.00129541
3718.74061523,0.00131962
3720.66942261,0.00133740
3722.59822998,0.00128403
3724.52703735,0.00119250
3726.45584473,0.00114653
3728.38465210,0.00135326
3730.31345947,0.00130545
3732.24226685,0.00117594
3734.17107422,0.00117290
3736.09988159,0.00116796
3738.02868896,0.00116100
3739.95749634,0.00123588
3741.88630371,0.00137078
3743.81511108,0.00116397
3745.74391846,0.00110943
3747.67272583,0.00122383
3749.60153320,0.00112758
3751.53034058,0.00111638
3753.45914795,0.00119634
3755.38795532,0.00129412
3757.31676270,0.00133782
3759.24557007,0.00126213
3761.17437744,0.00123355
3763.10318481,0.00134718
3765.03199219,0.00131647
3766.96079956,0.00129116
3768.88960693,0.00125957
3770.81841431,0.00121744
3772.74722168,0.00134322
3774.67602905,0.00127673
3776.60483643,0.00134600
3778.53364380,0.00134509
3780.46245117,0.00122879
3782.39125854,0.00133973
3784.32006592,0.00128256
3786.24887329,0.00124675
3788.17768066,0.00123889
3790.10648804,0.00119124
3792.03529541,0.00119026
3793.96410278,0.00127639
3795.89291016,0.00120997
3797.82171753,0.00120523
3799.75052490,0.00129265
3801.67933228,0.00103905
3803.60813965,0.00123053
3805.53694702,0.00123075
3807.46575439,0.00104471
3809.39456177,0.00125704
3811.32336914,0.00120939
3813.25217651,0.00132516
3815.18098389,0.00115585
3817.10979126,0.00106364
3819.03859863,0.00124384
3820.96740601,0.00100943
3822.89621338,0.00111530
3824.82502075,0.00128733
3826.75382812,0.00122027
3828.68263550,0.00124918
3830.61144287,0.00122497
3832.54025024,0.00104661
3834.46905762,0.00111002
3836.39786499,0.00119670
3838.32667236,0.00105098
3840.25547974,0.00112090
3842.18428711,0.00114294
3844.11309448,0.00118979
3846.04190186,0.00118398
3847.97070923,0.00118414
3849.89951660,0.00121346
3851.82832397,0.00098869
3853.75713135,0.00095133
3855.68593872,0.00103404
3857.61474609,0.00125035
3859.54355347,0.00119314
3861.47236084,0.00105006
3863.40116821,0.00116436
3865.32997559,0.00107987
3867.25878296,0.00117990
3869.18759033,0.00107307
3871.11639770,0.00098096
3873.04520508,0.00117746
3874.97401245,0.00117513
3876.90281982,0.00128781
3878.83162720,0.00124905
3880.76043457,0.00111879
3882.68924194,0.00120771
3884.61804932,0.00118027
3886.54685669,0.00109120
3888.47566406,0.00118427
3890.40447144,0.00114121
3892.33327881,0.00110898
3894.26208618,0.00122224
3896.19089355,0.00111166
3898.11970093,0.00111588
3900.04850830,0.00110593
3901.97731567,0.00108832
3903.90612305,0.00115215
3905.83493042,0.00106610
3907.76373779,0.00114331
3909.69254517,0.00121030
3911.62135254,0.00117401
3913.55015991,0.00114320
3915.47896728,0.00113493
3917.40777466,0.00112354
3919.33658203,0.00111091
3921.26538940,0.00115942
3923.19419678,0.00117691
3925.12300415,0.00116127
3927.05181152,0.00111944
3928.98061890,0.00116859
3930.90942627,0.00109722
3932.83823364,0.00112910
3934.76704102,0.00122427
3936.69584839,0.00107327
3938.62465576,0.00114648
3940.55346313,0.00110965
3942.48227051,0.00104366
3944.41107788,0.00116808
3946.33988525,0.00118315
3948.26869263,0.00114571
3950.19750000,0.00103602
3952.12630737,0.00105530
3954.05511475,0.00110111
3955.98392212,0.00109336
3957.91272949,0.00111519
3959.84153687,0.00118295
3961.77034424,0.00113578
3963.69915161,0.00103707
3965.62795898,0.00114328
3967.55676636,0.00109756
3969.48557373,0.00107895
3971.41438110,0.00114773
3973.34318848,0.00114527
3975.27199585,0.00107702
3977.20080322,0.00098836
3979.12961060,0.00111178
3981.05841797,0.00107677
3982.98722534,0.00104435
3984.91603271,0.00115938
3986.84484009,0.00110135
3988.77364746,0.00099814
3990.70245483,0.00104637
3992.63126221,0.00115763
3994.56006958,0.00113052
3996.48887695,0.00112364
3998.41768433,0.00106833
4000.34649170,0.00108453
4002.27529907,0.00113430
4004.20410645,0.00105237
4006.13291382,0.00111963
4008.06172119,0.00111434
4009.99052856,0.00106796
4011.91933594,0.00109974
4013.84814331,0.00108634
4015.77695068,0.00102829
4017.70575806,0.00103918
4019.63456543,0.00113978
4021.56337280,0.00111971
4023.49218018,0.00109520
4025.42098755,0.00107722
4027.34979492,0.00103695
4029.27860229,0.00100097
4031.20740967,0.00105707
4033.13621704,0.00112506
4035.06502441,0.00106475
4036.99383179,0.00105515
4038.92263916,0.00098141
4040.85144653,0.00099426
4042.78025391,0.00107646
4044.70906128,0.00107328
4046.63786865,0.00105734
4048.56667603,0.00107649
4050.49548340,0.00114923
4052.42429077,0.00099267
4054.35309814,0.00098845
4056.28190552,0.00110051
4058.21071289,0.00099162
4060.13952026,0.00098010
4062.06832764,0.00104014
4063.99713501,0.00102928
4065.92594238,0.00094876
4067.85474976,0.00099797
4069.78355713,0.00096265
4071.71236450,0.00095349
4073.64117187,0.00105741
4075.56997925,0.00097860
4077.49878662,0.00105111
4079.42759399,0.00101778
4081.35640137,0.00095356
4083.28520874,0.00102284
4085.21401611,0.00098329
4087.14282349,0.00099682
4089.07163086,0.00096501
4091.00043823,0.00098347
4092.92924561,0.00099130
4094.85805298,0.00098985
4096.78686035,0.00104774
4098.71566772,0.00103507
4100.64447510,0.00097394
4102.57328247,0.00091816
4104.50208984,0.00099505
4106.43089722,0.00101025
4108.35970459,0.00100078
4110.28851196,0.00098226
4112.21731934,0.00104656
4114.14612671,0.00110436
4116.07493408,0.00093295
4118.00374145,0.00098639
4119.93254883,0.00099912
4121.86135620,0.00100743
4123.79016357,0.00102929
4125.71897095,0.00090855
4127.64777832,0.00100163
4129.57658569,0.00093642
4131.50539307,0.00093340
4133.43420044,0.00096534
4135.36300781,0.00093004
4137.29181519,0.00100010
4139.22062256,0.00092640
4141.14942993,0.00102249
4143.07823730,0.00098554
4145.00704468,0.00091438
4146.93585205,0.00095581
4148.86465942,0.00091448
4150.79346680,0.00104930
4152.72227417,0.00096400
4154.65108154,0.00092955
4156.57988892,0.00101766
4158.50869629,0.00095173
4160.43750366,0.00094488
4162.36631103,0.00092493
4164.29511841,0.00099563
4166.22392578,0.00097952
4168.15273315,0.00092811
4170.08154053,0.00092859
4172.01034790,0.00089454
4173.93915527,0.00093839
4175.86796265,0.00089917
4177.79677002,0.00091930
4179.72557739,0.00098407
4181.65438477,0.00090570
4183.58319214,0.00082323
4185.51199951,0.00084637
4187.44080688,0.00088050
4189.36961426,0.00088821
4191.29842163,0.00089600
4193.22722900,0.00080172
4195.15603638,0.00082572
4197.08484375,0.00094959
4199.01365112,0.00093961
4200.94245850,0.00086628
4202.87126587,0.00087397
4204.80007324,0.00093004
4206.72888062,0.00089429
4208.65768799,0.00095162
4210.58649536,0.00097865
4212.51530273,0.00094011
4214.44411011,0.00095115
4216.37291748,0.00085070
4218.30172485,0.00088082
4220.23053223,0.00096698
4222.15933960,0.00087405
4224.08814697,0.00085117
4226.01695435,0.00090111
4227.94576172,0.00084212
4229.87456909,0.00086413
4231.80337646,0.00090201
4233.73218384,0.00084173
4235.66099121,0.00088387
4237.58979858,0.00085790
4239.51860596,0.00086635
4241.44741333,0.00093843
4243.37622070,0.00089227
4245.30502808,0.00083618
4247.23383545,0.00085040
4249.16264282,0.00093203
4251.09145020,0.00085830
4253.02025757,0.00085424
4254.94906494,0.00087436
4256.87787231,0.00085514
4258.80667969,0.00095147
4260.73548706,0.00079357
4262.66429443,0.00079966
4264.59310181,0.00094936
4266.52190918,0.00085043
4268.45071655,0.00082549
4270.37952393,0.00082419
4272.30833130,0.00082481
4274.23713867,0.00084203
4276.16594604,0.00083826
4278.09475342,0.00081126
4280.02356079,0.00078768
4281.95236816,0.00082220
4283.88117554,0.00080639
4285.80998291,0.00077397
4287.73879028,0.00081575
4289.66759766,0.00082128
4291.59640503,0.00074077
4293.52521240,0.00080665
4295.45401978,0.00090508
4297.38282715,0.00084275
4299.31163452,0.00081298
4301.24044189,0.00087195
4303.16924927,0.00088907
4305.09805664,0.00085716
4307.02686401,0.00087566
4308.95567139,0.00085830
4310.88447876,0.00080768
4312.81328613,0.00076663
4314.74209351,0.00080828
4316.67090088,0.00086068
4318.59970825,0.00082860
4320.52851562,0.00082551
4322.45732300,0.00072727
4324.38613037,0.00079983
4326.31493774,0.00087847
4328.24374512,0.00078402
4330.17255249,0.00086719
4332.10135986,0.00083181
4334.03016724,0.00077913
4335.95897461,0.00079773
4337.88778198,0.00080872
4339.81658936,0.00083750
4341.74539673,0.00080077
4343.67420410,0.00082534
4345.60301147,0.00085046
4347.53181885,0.00086669
4349.46062622,0.00076095
4351.38943359,0.00076760
4353.31824097,0.00085260
4355.24704834,0.00080918
4357.17585571,0.00088198
4359.10466309,0.00075574
4361.03347046,0.00071388
4362.96227783,0.00083721
4364.89108520,0.00077366
4366.81989258,0.00080164
4368.74869995,0.00081325
4370.67750732,0.00075434
4372.60631470,0.00076443
4374.53512207,0.00077794
4376.46392944,0.00068922
4378.39273682,0.00068372
4380.32154419,0.00076047
4382.25035156,0.00076512
4384.17915894,0.00080666
4386.10796631,0.00079420
4388.03677368,0.00079175
4389.96558105,0.00073018
4391.89438843,0.00073512
4393.82319580,0.00082417
4395.75200317,0.00072273
4397.68081055,0.00073849
4399.60961792,0.00078398
4401.53842529,0.00078211
4403.46723267,0.00081296
4405.39604004,0.00081111
4407.32484741,0.00081141
4409.25365478,0.00074423
4411.18246216,0.00074743
4413.11126953,0.00072572
4415.04007690,0.00069972
4416.96888428,0.00077265
4418.89769165,0.00078778
4420.82649902,0.00078471
4422.75530640,0.00075920
4424.68411377,0.00072549
4426.61292114,0.00071181
4428.54172852,0.00070806
4430.47053589,0.00069356
4432.39934326,0.00073140
4434.32815063,0.00075697
4436.25695801,0.00070625
4438.18576538,0.00073733
4440.11457275,0.00071264
4442.04338013,0.00065581
4443.97218750,0.00062342
4445.90099487,0.00066019
4447.82980225,0.00074161
4449.75860962,0.00064158
4451.68741699,0.00068896
4453.61622437,0.00074542
4455.54503174,0.00069140
4457.47383911,0.00075860
4459.40264648,0.00068836
4461.33145386,0.00071686
4463.26026123,0.00075432
4465.18906860,0.00063157
4467.11787598,0.00066887
4469.04668335,0.00067416
4470.97549072,0.00066184
4472.90429810,0.00071495
4474.83310547,0.00077267
4476.76191284,0.00078158
4478.69072021,0.00065598
4480.61952759,0.00063854
4482.54833496,0.00072267
4484.47714233,0.00075870
4486.40594971,0.00071857
4488.33475708,0.00066580
4490.26356445,0.00067199
4492.19237183,0.00061329
4494.12117920,0.00066746
4496.04998657,0.00076086
4497.97879395,0.00068818
4499.90760132,0.00068650
4501.83640869,0.00067405
4503.76521606,0.00063710
4505.69402344,0.00067099
4507.62283081,0.00069112
4509.55163818,0.00072209
4511.48044556,0.00069560
4513.40925293,0.00071981
4515.33806030,0.00071712
4517.26686768,0.00062593
4519.19567505,0.00069964
4521.12448242,0.00070130
4523.05328979,0.00067985
4524.98209717,0.00069222
4526.91090454,0.00056612
4528.83971191,0.00062466
4530.76851929,0.00068076
4532.69732666,0.00061350
4534.62613403,0.00063077
4536.55494141,0.00064777
4538.48374878,0.00070929
4540.41255615,0.00069554
4542.34136353,0.00064919
4544.27017090,0.00065363
4546.19897827,0.00065443
4548.12778564,0.00065751
4550.05659302,0.00058411
4551.98540039,0.00064512
4553.91420776,0.00066665
4555.84301514,0.00064084
4557.77182251,0.00075438
4559.70062988,0.00060005
4561.62943726,0.00059472
4563.55824463,0.00073671
4565.48705200,0.00060076
4567.41585937,0.00061364
4569.34466675,0.00057335
4571.27347412,0.00055882
4573.20228149,0.00067827
4575.13108887,0.00062018
4577.05989624,0.00065001
4578.98870361,0.00066174
4580.91751099,0.00063072
4582.84631836,0.00062796
4584.77512573,0.00060067
4586.70393311,0.00065790
4588.63274048,0.00065016
4590.56154785,0.00060397
4592.49035522,0.00063535
4594.41916260,0.00066780
4596.34796997,0.00060740
4598.27677734,0.00067836
4600.20558472,0.00073561
4602.13439209,0.00057297
4604.06319946,0.00060402
4605.99200684,0.00069919
4607.92081421,0.00071011
4609.84962158,0.00059544
4611.77842895,0.00052484
4613.70723633,0.00065025
4615.63604370,0.00061812
4617.56485107,0.00064685
4619.49365845,0.00058409
4621.42246582,0.00047812
4623.35127319,0.00064382
4625.28008057,0.00064286
4627.20888794,0.00059876
4629.13769531,0.00063633
4631.06650269,0.00060267
4632.99531006,0.00059456
4634.92411743,0.00061062
4636.85292480,0.00060552
4638.78173218,0.00063157
4640.71053955,0.00064538
4642.63934692,0.00058226
4644.56815430,0.00056625
4646.49696167,0.00056680
4648.42576904,0.00057068
4650.35457642,0.00057629
4652.28338379,0.00055920
4654.21219116,0.00054562
4656.14099853,0.00058790
4658.06980591,0.00060057
4659.99861328,0.00054148
4661.92742065,0.00061316
4663.85622803,0.00056264
4665.78503540,0.00056091
4667.71384277,0.00066662
4669.64265015,0.00055678
4671.57145752,0.00055505
4673.50026489,0.00056321
4675.42907227,0.00054633
4677.35787964,0.00057135
4679.28668701,0.00060826
4681.21549438,0.00060494
4683.14430176,0.00052623
4685.07310913,0.00056806
4687.00191650,0.00049187
4688.93072388,0.00053001
4690.85953125,0.00065160
4692.78833862,0.00062060
4694.71714600,0.00062668
4696.64595337,0.00052705
4698.57476074,0.00053802
4700.50356812,0.00054899
4702.43237549,0.00053096
4704.36118286,0.00060839
4706.28999023,0.00053268
4708.21879761,0.00054641
4710.14760498,0.00061180
4712.07641235,0.00057500
4714.00521973,0.00060289
4715.93402710,0.00061270
4717.86283447,0.00054400
4719.79164185,0.00051202
4721.72044922,0.00053585
4723.64925659,0.00059828
4725.57806396,0.00057775
4727.50687134,0.00053757
4729.43567871,0.00055572
4731.36448608,0.00047669
4733.29329346,0.00052636
4735.22210083,0.00055952
4737.15090820,0.00049227
4739.07971558,0.00052359
4741.00852295,0.00048880
4742.93733032,0.00052424
4744.86613770,0.00056549
4746.79494507,0.00052011
4748.72375244,0.00050868
4750.65255981,0.00053479
4752.58136719,0.00052773
4754.51017456,0.00053191
4756.43898193,0.00055490
4758.36778931,0.00052843
4760.29659668,0.00058973
4762.22540405,0.00050189
4764.15421143,0.00051550
4766.08301880,0.00063403
4768.01182617,0.00052423
4769.94063354,0.00054324
4771.86944092,0.00052717
4773.79824829,0.00052940
4775.72705566,0.00047987
4777.65586304,0.00042336
4779.58467041,0.00054610
4781.51347778,0.00043807
4783.44228516,0.00046756
4785.37109253,0.00060678
4787.29989990,0.00053331
4789.22870728,0.00045930
4791.15751465,0.00048526
4793.08632202,0.00057717
4795.01512939,0.00057230
4796.94393677,0.00053711
4798.87274414,0.00053304
4800.80155151,0.00055370
4802.73035889,0.00050670
4804.65916626,0.00049199
4806.58797363,0.00058497
4808.51678101,0.00053927
4810.44558838,0.00046721
4812.37439575,0.00052662
4814.30320312,0.00053888
4816.23201050,0.00045169
4818.16081787,0.00054898
4820.08962524,0.00058942
4822.01843262,0.00049302
4823.94723999,0.00048821
4825.87604736,0.00042855
4827.80485474,0.00050626
4829.73366211,0.00051956
4831.66246948,0.00047482
4833.59127686,0.00054417
4835.52008423,0.00051337
4837.44889160,0.00052490
4839.37769897,0.00046734
4841.30650635,0.00047188
4843.23531372,0.00053210
4845.16412109,0.00043746
4847.09292847,0.00046946
4849.02173584,0.00053940
4850.95054321,0.00048395
4852.87935059,0.00045314
4854.80815796,0.00049894
4856.73696533,0.00045893
4858.66577270,0.00042168
4860.59458008,0.00051131
4862.52338745,0.00052333
4864.45219482,0.00050726
4866.38100220,0.00048572
4868.30980957,0.00043227
4870.23861694,0.00050729
4872.16742432,0.00047886
4874.09623169,0.00042523
4876.02503906,0.00054931
4877.95384644,0.00046726
4879.88265381,0.00044010
4881.81146118,0.00048486
4883.74026855,0.00040551
4885.66907593,0.00052534
4887.59788330,0.00045723
4889.52669067,0.00035359
4891.45549805,0.00044599
4893.38430542,0.00040887
4895.31311279,0.00044087
4897.24192017,0.00045152
4899.17072754,0.00043123
4901.09953491,0.00048973
4903.02834228,0.00047395
4904.95714966,0.00045733
4906.88595703,0.00050139
4908.81476440,0.00051630
4910.74357178,0.00043624
4912.67237915,0.00038099
4914.60118652,0.00041561
4916.52999390,0.00043495
4918.45880127,0.00044537
4920.38760864,0.00044389
4922.31641602,0.00042748
4924.24522339,0.00044325
4926.17403076,0.00043763
4928.10283813,0.00050542
4930.03164551,0.00051197
4931.96045288,0.00039757
4933.88926025,0.00045532
4935.81806763,0.00043893
4937.74687500,0.00037744
4939.67568237,0.00047530
4941.60448975,0.00051053
4943.53329712,0.00048304
4945.46210449,0.00049535
4947.39091187,0.00050136
4949.31971924,0.00039278
4951.24852661,0.00039638
4953.17733398,0.00045293
4955.10614136,0.00040712
4957.03494873,0.00043528
4958.96375610,0.00042155
4960.89256348,0.00039906
4962.82137085,0.00043027
4964.75017822,0.00044005
4966.67898560,0.00042553
4968.60779297,0.00048091
4970.53660034,0.00049393
4972.46540771,0.00044092
4974.39421509,0.00049906
4976.32302246,0.00047369
4978.25182983,0.00045412
4980.18063721,0.00044581
4982.10944458,0.00043571
4984.03825195,0.00045621
4985.96705933,0.00042308
4987.89586670,0.00045584
4989.82467407,0.00036550
4991.75348145,0.00034695
4993.68228882,0.00040151
4995.61109619,0.00036891
4997.53990356,0.00040130
4999.46871094,0.00037556
5001.39751831,0.00042029
5003.32632568,0.00044995
5005.25513306,0.00042465
5007.18394043,0.00042261
5009.11274780,0.00038361
5011.04155518,0.00039326
5012.97036255,0.00038866
5014.89916992,0.00040249
5016.82797729,0.00044422
5018.75678467,0.00044623
5020.68559204,0.00038805
5022.61439941,0.00032519
5024.54320679,0.00030661
5026.47201416,0.00036444
5028.40082153,0.00040931
5030.32962891,0.00035770
5032.25843628,0.00038266
5034.18724365,0.00038432
5036.11605103,0.00035449
5038.04485840,0.00040157
5039.97366577,0.00043282
5041.90247314,0.00039644
5043.83128052,0.00039220
5045.76008789,0.00039978
5047.68889526,0.00033919
5049.61770264,0.00037987
5051.54651001,0.00036928
5053.47531738,0.00035989
5055.40412476,0.00035469
5057.33293213,0.00033535
5059.26173950,0.00042543
5061.19054687,0.00034426
5063.11935425,0.00038333
5065.04816162,0.00041623
5066.97696899,0.00033688
5068.90577637,0.00042079
5070.83458374,0.00039725
5072.76339111,0.00039323
5074.69219849,0.00042588
5076.62100586,0.00039852
5078.54981323,0.00031433
5080.47862061,0.00034051
5082.40742798,0.00042352
5084.33623535,0.00032483
5086.26504272,0.00033983
5088.19385010,0.00039004
5090.12265747,0.00035956
5092.05146484,0.00033599
5093.98027222,0.00036359
5095.90907959,0.00035984
5097.83788696,0.00030796
5099.76669434,0.00033254
5101.69550171,0.00036811
5103.62430908,0.00040356
5105.55311645,0.00031843
5107.48192383,0.00033704
5109.41073120,0.00035526
5111.33953857,0.00030819
5113.26834595,0.00037811
5115.19715332,0.00031602
5117.12596069,0.00036770
5119.05476807,0.00034210
5120.98357544,0.00032984
5122.91238281,0.00045802
5124.84119019,0.00036608
5126.76999756,0.00032571
5128.69880493,0.00030356
5130.62761230,0.00033891
5132.55641968,0.00036358
5134.48522705,0.00035010
5136.41403442,0.00033964
5138.34284180,0.00031840
5140.27164917,0.00041535
5142.20045654,0.00032376
5144.12926392,0.00035965
5146.05807129,0.00043726
5147.98687866,0.00034477
5149.91568603,0.00038370
5151.84449341,0.00037673
5153.77330078,0.00041634
5155.70210815,0.00037027
5157.63091553,0.00037182
5159.55972290,0.00042076
5161.48853027,0.00024300
5163.41733765,0.00029876
5165.34614502,0.00035863
5167.27495239,0.00029852
5169.20375977,0.00036201
5171.13256714,0.00035710
5173.06137451,0.00037247
5174.99018188,0.00031591
5176.91898926,0.00029546
5178.84779663,0.00040164
5180.77660400,0.00029482
5182.70541138,0.00024478
5184.63421875,0.00030371
5186.56302612,0.00032395
5188.49183350,0.00040947
5190.42064087,0.00040111
5192.34944824,0.00032010
5194.27825562,0.00029364
5196.20706299,0.00039838
5198.13587036,0.00036322
5200.06467773,0.00027086
5201.99348511,0.00036412
5203.92229248,0.00029675
5205.85109985,0.00032961
5207.77990723,0.00040588
5209.70871460,0.00036522
5211.63752197,0.00037045
5213.56632935,0.00028738
5215.49513672,0.00032520
5217.42394409,0.00031452
5219.35275146,0.00028861
5221.28155884,0.00033451
5223.21036621,0.00029583
5225.13917358,0.00036292
5227.06798096,0.00037249
5228.99678833,0.00036235
5230.92559570,0.00037763
5232.85440308,0.00036286
5234.78321045,0.00031218
5236.71201782,0.00028777
5238.64082520,0.00036549
5240.56963257,0.00025329
5242.49843994,0.00030652
5244.42724731,0.00039291
5246.35605469,0.00019787
5248.28486206,0.00025524
5250.21366943,0.00030284
5252.14247681,0.00030935
5254.07128418,0.00038594
5256.00009155,0.00029639
5257.92889893,0.00025826
5259.85770630,0.00028768
5261.78651367,0.00037680
5263.71532104,0.00035669
5265.64412842,0.00029801
5267.57293579,0.00036491
5269.50174316,0.00034911
5271.43055054,0.00032950
5273.35935791,0.00025386
5275.28816528,0.00028598
5277.21697266,0.00033459
5279.14578003,0.00028805
5281.07458740,0.00041326
5283.00339478,0.00039577
5284.93220215,0.00031582
5286.86100952,0.00028080
5288.78981689,0.00025898
5290.71862427,0.00032419
5292.64743164,0.00034259
5294.57623901,0.00034228
5296.50504639,0.00028284
5298.43385376,0.00031932
5300.36266113,0.00033633
5302.29146851,0.00030174
5304.22027588,0.00030817
5306.14908325,0.00029139
5308.07789062,0.00035849
5310.00669800,0.00027424
5311.93550537,0.00023190
5313.86431274,0.00029106
5315.79312012,0.00029929
5317.72192749,0.00029823
5319.65073486,0.00029416
5321.57954224,0.00035897
5323.50834961,0.00027396
5325.43715698,0.00030924
5327.36596436,0.00029883
5329.29477173,0.00018465
5331.22357910,0.00030936
5333.15238647,0.00032417
5335.08119385,0.00031481
5337.01000122,0.00030281
5338.93880859,0.00027738
5340.86761597,0.00028982
5342.79642334,0.00029016
5344.72523071,0.00023236
5346.65403809,0.00026487
5348.58284546,0.00037530
5350.51165283,0.00019946
5352.44046020,0.00027580
5354.36926758,0.00033507
5356.29807495,0.00023812
5358.22688232,0.00032486
5360.15568970,0.00022275
5362.08449707,0.00027066
5364.01330444,0.00031567
5365.94211182,0.00032973
5367.87091919,0.00026875
5369.79972656,0.00016606
5371.72853394,0.00033101
5373.65734131,0.00025163
5375.58614868,0.00022301
5377.51495605,0.00030282
5379.44376343,0.00031089
5381.37257080,0.00025200
5383.30137817,0.00020937
5385.23018555,0.00033873
5387.15899292,0.00024046
5389.08780029,0.00024358
5391.01660767,0.00025662
5392.94541504,0.00020053
5394.87422241,0.00023914
5396.80302978,0.00020458
5398.73183716,0.00030633
5400.66064453,0.00023898
5402.58945190,0.00020232
5404.51825928,0.00024802
5406.44706665,0.00022577
5408.37587402,0.00031109
5410.30468140,0.00028596
5412.23348877,0.00030581
5414.16229614,0.00025376
5416.09110352,0.00026097
5418.01991089,0.00032312
5419.94871826,0.00020463
5421.87752563,0.00027566
5423.80633301,0.00028024
5425.73514038,0.00022634
5427.66394775,0.00028415
5429.59275513,0.00025085
5431.52156250,0.00025883
5433.45036987,0.00024699
5435.37917725,0.00022838
5437.30798462,0.00025566
5439.23679199,0.00023918
5441.16559936,0.00026261
5443.09440674,0.00023353
5445.02321411,0.00021010
5446.95202148,0.00029428
5448.88082886,0.00027623
5450.80963623,0.00025810
5452.73844360,0.00028598
5454.66725098,0.00026168
5456.59605835,0.00028495
5458.52486572,0.00028918
5460.45367310,0.00024999
5462.38248047,0.00026466
5464.31128784,0.00029522
5466.24009521,0.00029354
5468.16890259,0.00029514
5470.09770996,0.00025807
5472.02651733,0.00026342
5473.95532471,0.00027117
5475.88413208,0.00019731
5477.81293945,0.00022085
5479.74174683,0.00018714
5481.67055420,0.00018239
5483.59936157,0.00023220
5485.52816895,0.00019064
5487.45697632,0.00024555
5489.38578369,0.00023489
5491.31459106,0.00026806
5493.24339844,0.00030375
5495.17220581,0.00021840
5497.10101318,0.00020181
5499.02982056,0.00016350
5500.95862793,0.00025085
5502.88743530,0.00027055
5504.81624268,0.00021652
5506.74505005,0.00027070
5508.67385742,0.00019903
5510.60266479,0.00020533
5512.53147217,0.00023933
5514.46027954,0.00022459
5516.38908691,0.00027435
5518.31789429,0.00024111
5520.24670166,0.00017604
5522.17550903,0.00021412
5524.10431641,0.00027732
5526.03312378,0.00020300
5527.96193115,0.00018489
5529.89073853,0.00022745
5531.81954590,0.00021643
5533.74835327,0.00027467
5535.67716064,0.00023497
5537.60596802,0.00023013
5539.53477539,0.00029934
5541.46358276,0.00019801
5543.39239014,0.00019965
5545.32119751,0.00029519
5547.25000488,0.00026400
5549.17881226,0.00024168
5551.10761963,0.00024604
5553.03642700,0.00024614
5554.96523437,0.00022073
5556.89404175,0.00020934
5558.82284912,0.00024222
5560.75165649,0.00018398
5562.68046387,0.00016634
5564.60927124,0.00021591
5566.53807861,0.00021396
5568.46688599,0.00021895
5570.39569336,0.00016110
5572.32450073,0.00017566
5574.25330811,0.00029350
5576.18211548,0.00030209
5578.11092285,0.00025771
5580.03973022,0.00021386
5581.96853760,0.00018879
5583.89734497,0.00021266
5585.82615234,0.00025215
5587.75495972,0.00026322
5589.68376709,0.00025764
5591.61257446,0.00021699
5593.54138184,0.00018310
5595.47018921,0.00023107
5597.39899658,0.00018115
5599.32780395,0.00015115
5601.25661133,0.00023966
5603.18541870,0.00024126
5605.11422607,0.00020946
5607.04303345,0.00017326
5608.97184082,0.00020414
5610.90064819,0.00024131
5612.82945557,0.00019533
5614.75826294,0.00021893
5616.68707031,0.00022903
5618.61587769,0.00021981
5620.54468506,0.00026114
5622.47349243,0.00022828
5624.40229980,0.00017411
5626.33110718,0.00024043
5628.25991455,0.00024080
5630.18872192,0.00013511
5632.11752930,0.00016700
5634.04633667,0.00022406
5635.97514404,0.00020214
5637.90395142,0.00018525
5639.83275879,0.00018223
5641.76156616,0.00021724
5643.69037353,0.00023433
5645.61918091,0.00019694
5647.54798828,0.00020820
5649.47679565,0.00019157
5651.40560303,0.00015909
5653.33441040,0.00026834
5655.26321777,0.00020405
5657.19202515,0.00011448
5659.12083252,0.00022372
5661.04963989,0.00018910
5662.97844727,0.00020319
5664.90725464,0.00022926
5666.83606201,0.00023122
5668.76486938,0.00027636
5670.69367676,0.00021828
5672.62248413,0.00023102
5674.55129150,0.00014207
5676.48009888,0.00011384
5678.40890625,0.00022134
5680.33771362,0.00017370
5682.26652100,0.00017200
5684.19532837,0.00018061
5686.12413574,0.00017494
5688.05294311,0.00017548
5689.98175049,0.00017385
5691.91055786,0.00020041
5693.83936523,0.00014742
5695.76817261,0.00011855
5697.69697998,0.00016875
5699.62578735,0.00023006
5701.55459473,0.00022113
5703.48340210,0.00017379
5705.41220947,0.00020973
5707.34101685,0.00018495
5709.26982422,0.00012697
5711.19863159,0.00019795
5713.12743896,0.00021304
5715.05624634,0.00020289
5716.98505371,0.00019348
5718.91386108,0.00013599
5720.84266846,0.00018880
5722.77147583,0.00016389
5724.70028320,0.00014087
5726.62909058,0.00018483
5728.55789795,0.00013837
5730.48670532,0.00014104
5732.41551270,0.00013880
5734.34432007,0.00017780
5736.27312744,0.00017077
5738.20193481,0.00011973
5740.13074219,0.00018498
5742.05954956,0.00020163
5743.98835693,0.00017849
5745.91716431,0.00014316
5747.84597168,0.00016280
5749.77477905,0.00018519
5751.70358643,0.00017312
5753.63239380,0.00020218
5755.56120117,0.00019533
5757.49000854,0.00016737
5759.41881592,0.00014636
5761.34762329,0.00017499
5763.27643066,0.00012806
5765.20523804,0.00013479
5767.13404541,0.00023027
5769.06285278,0.00018704
5770.99166016,0.00019625
5772.92046753,0.00019629
5774.84927490,0.00017337
5776.77808228,0.00024433
5778.70688965,0.00026289
5780.63569702,0.00019072
5782.56450439,0.00017542
5784.49331177,0.00020501
5786.42211914,0.00016857
5788.35092651,0.00021688
5790.27973389,0.00019396
5792.20854126,0.00015872
5794.13734863,0.00020305
5796.06615601,0.00013676
5797.99496338,0.00014235
5799.92377075,0.00013648
5801.85257812,0.00014777
5803.78138550,0.00019510
5805.71019287,0.00020010
5807.63900024,0.00017804
5809.56780762,0.00011376
5811.49661499,0.00022185
5813.42542236,0.00022459
5815.35422974,0.00015328
5817.28303711,0.00016991
5819.21184448,0.00010534
5821.14065186,0.00017570
5823.06945923,0.00018611
5824.99826660,0.00013577
5826.92707397,0.00019711
5828.85588135,0.00016677
5830.78468872,0.00019837
5832.71349609,0.00022179
5834.64230347,0.00013323
5836.57111084,0.00018973
5838.49991821,0.00021004
5840.42872559,0.00013726
5842.35753296,0.00014474
5844.28634033,0.00015806
5846.21514770,0.00017210
5848.14395508,0.00009060
5850.07276245,0.00011535
5852.00156982,0.00019332
5853.93037720,0.00006477
5855.85918457,0.00007683
5857.78799194,0.00010257
5859.71679932,0.00014070
5861.64560669,0.00022827
5863.57441406,0.00011530
5865.50322144,0.00011645
5867.43202881,0.00016988
5869.36083618,0.00016723
5871.28964355,0.00017529
5873.21845093,0.00015316
5875.14725830,0.00015477
5877.07606567,0.00011656
5879.00487305,0.00011592
5880.93368042,0.00010728
5882.86248779,0.00015107
5884.79129517,0.00021899
5886.72010254,0.00012532
5888.64890991,0.00012459
5890.57771728,0.00022266
5892.50652466,0.00019449
5894.43533203,0.00012298
5896.36413940,0.00014355
5898.29294678,0.00012284
5900.22175415,0.00009384
5902.15056152,0.00016213
5904.07936890,0.00013511
5906.00817627,0.00013871
5907.93698364,0.00021956
5909.86579102,0.00017788
5911.79459839,0.00011946
5913.72340576,0.00010284
5915.65221313,0.00011105
5917.58102051,0.00014329
5919.50982788,0.00012781
5921.43863525,0.00011248
5923.36744263,0.00012495
5925.29625000,0.00007628
5927.22505737,0.00010748
5929.15386475,0.00013690
5931.08267212,0.00004541
5933.01147949,0.00012776
5934.94028686,0.00016479
5936.86909424,0.00010396
5938.79790161,0.00019561
5940.72670898,0.00018939
5942.65551636,0.00013889
5944.58432373,0.00016814
5946.51313110,0.00016089
5948.44193848,0.00016558
5950.37074585,0.00018933
5952.29955322,0.00012994
5954.22836060,0.00008173
5956.15716797,0.00013831
5958.08597534,0.00019659
5960.01478271,0.00021657
5961.94359009,0.00017261
5963.87239746,0.00014060
5965.80120483,0.00016288
5967.73001221,0.00016550
5969.65881958,0.00011414
5971.58762695,0.00007708
5973.51643433,0.00012222
5975.44524170,0.00012714
5977.37404907,0.00012044
5979.30285645,0.00008747
5981.23166382,0.00008733
5983.16047119,0.00015182
5985.08927856,0.00010444
5987.01808594,0.00010480
5988.94689331,0.00013447
5990.87570068,0.00014619
5992.80450806,0.00009747
5994.73331543,0.00004947
5996.66212280,0.00015138
5998.59093018,0.00010738
6000.51973755,0.00010528
