399.26312622,0.00018494
401.19193359,0.00036972
403.12074097,0.00012342
405.04954834,0.00037176
406.97835571,0.00040551
408.90716309,0.00008674
410.83597046,0.00050636
412.76477783,0.00101435
414.69358521,0.00032093
416.62239258,0.00041351
418.55119995,0.00071314
420.48000732,0.00043512
422.40881470,0.00049379
424.33762207,0.00040252
426.26642944,0.00063550
428.19523682,0.00073766
430.12404419,0.00060674
432.05285156,0.00015044
433.98165894,0.00019922
435.91046631,0.00070698
437.83927368,0.00045334
439.76808105,0.00040906
441.69688843,0.00013042
443.62569580,0.00013495
445.55450317,0.00045264
447.48331055,0.00016548
449.41211792,-0.00002270
451.34092529,0.00003034
453.26973267,0.00001697
455.19854004,0.00001177
457.12734741,0.00054976
459.05615479,0.00027216
460.98496216,-0.00014954
462.91376953,0.00022628
464.84257690,0.00014864
466.77138428,0.00007615
468.70019165,0.00009496
470.62899902,0.00029915
472.55780640,0.00026452
474.48661377,0.00019709
476.41542114,0.00018658
478.34422852,0.00041805
480.27303589,-0.00013485
482.20184326,-0.00007440
484.13065063,0.00053626
486.05945801,0.00015199
487.98826538,0.00012626
489.91707275,0.00014920
491.84588013,0.00011371
493.77468750,-0.00005227
495.70349487,0.00006328
497.63230225,0.00019230
499.56110962,-0.00007420
501.48991699,0.00012638
503.41872437,0.00015585
505.34753174,0.00008795
507.27633911,0.00022072
509.20514648,0.00036556
511.13395386,0.00029924
513.06276123,0.00007659
514.99156860,0.00012568
516.92037598,0.00032205
518.84918335,-0.00001020
520.77799072,-0.00029324
522.70679810,-0.00003981
524.63560547,-0.00016605
526.56441284,-0.00022790
528.49322021,0.00007501
530.42202759,0.00026134
532.35083496,0.00030499
534.27964233,0.00032880
536.20844971,0.00032227
538.13725708,0.00033542
540.06606445,0.00040188
541.99487183,0.00010805
543.92367920,-0.00001116
545.85248657,0.00028081
547.78129395,0.00052940
549.71010132,0.00038200
551.63890869,0.00000527
553.56771606,0.00026944
555.49652344,0.00019501
557.42533081,0.00010960
559.35413818,0.00030621
561.28294556,0.00008559
563.21175293,0.00026261
565.14056030,0.00030133
567.06936768,0.00014253
568.99817505,0.00002862
570.92698242,0.00012130
572.85578979,0.00000022
574.78459717,-0.00040764
576.71340454,0.00002010
578.64221191,0.00026863
580.57101929,0.00005501
582.49982666,-0.00011604
584.42863403,0.00002050
586.35744141,0.00023856
588.28624878,-0.00014125
590.21505615,-0.00023286
592.14386353,0.00042559
594.07267090,0.00052051
596.00147827,-0.00005258
597.93028564,0.00025892
599.85909302,0.00047204
601.78790039,0.00024989
603.71670776,0.00001583
605.64551514,-0.00031204
607.57432251,0.00037322
609.50312988,0.00028756
611.43193726,0.00021488
613.36074463,0.00022698
615.28955200,-0.00018905
617.21835938,0.00014802
619.14716675,-0.00020518
621.07597412,-0.00009581
623.00478149,-0.00009011
624.93358887,-0.00001419
626.86239624,0.00020685
628.79120361,0.00009114
630.72001099,0.00024823
632.64881836,-0.00004980
634.57762573,0.00059853
636.50643311,0.00089301
638.43524048,0.00011098
640.36404785,0.00060861
642.29285522,0.00035050
644.22166260,0.00048315
646.15046997,0.00098310
648.07927734,0.00054608
650.00808472,0.00050087
651.93689209,0.00055745
653.86569946,0.00082344
655.79450684,0.00055288
657.72331421,0.00055673
659.65212158,0.00073507
661.58092896,0.00051562
663.50973633,0.00091092
665.43854370,0.00102444
667.36735107,0.00073984
669.29615845,0.00065715
671.22496582,0.00087249
673.15377319,0.00077216
675.08258057,0.00086998
677.01138794,0.00112815
678.94019531,0.00092402
680.86900269,0.00098511
682.79781006,0.00093680
684.72661743,0.00107046
686.65542480,0.00103258
688.58423218,0.00069685
690.51303955,0.00100921
692.44184692,0.00131698
694.37065430,0.00120732
696.29946167,0.00133674
698.22826904,0.00188154
700.15707642,0.00199851
702.08588379,0.00185160
704.01469116,0.00170624
705.94349854,0.00135705
707.87230591,0.00117504
709.80111328,0.00113073
711.72992065,0.00064301
713.65872803,0.00021519
715.58753540,0.00042647
717.51634277,0.00029010
719.44515015,0.00019077
721.37395752,0.00030726
723.30276489,0.00027252
725.23157227,0.00019055
727.16037964,-0.00005175
729.08918701,0.00019431
731.01799438,0.00022053
732.94680176,0.00007382
734.87560913,0.00018556
736.80441650,-0.00002650
738.73322388,0.00025059
740.66203125,0.00021213
742.59083862,0.00005578
744.51964600,0.00045525
746.44845337,0.00019119
748.37726074,0.00022290
750.30606812,0.00027831
752.23487549,0.00029732
754.16368286,0.00010209
756.09249023,0.00012854
758.02129761,0.00029946
759.95010498,-0.00007454
761.87891235,0.00015053
763.80771973,0.00014893
765.73652710,0.00008821
767.66533447,0.00017094
769.59414185,0.00001877
771.52294922,-0.00001168
773.45175659,-0.00007044
775.38056396,0.00012872
777.30937134,0.00035965
779.23817871,0.00056725
781.16698608,0.00049443
783.09579346,0.00019359
785.02460083,0.00030579
786.95340820,0.00047121
788.88221558,0.00004926
790.81102295,0.00008328
792.73983032,0.00060459
794.66863770,0.00022191
796.59744507,-0.00008701
798.52625244,0.00012336
800.45505981,0.00046361
802.38386719,0.00030845
804.31267456,0.00013505
806.24148193,0.00057104
808.17028931,0.00034709
810.09909668,0.00034363
812.02790405,0.00036376
813.95671143,0.00003557
815.88551880,0.00012730
817.81432617,0.00019296
819.74313354,0.00032667
821.67194092,0.00044531
823.60074829,0.00032962
825.52955566,0.00026588
827.45836304,0.00035847
829.38717041,0.00038628
831.31597778,0.00050788
833.24478516,0.00048920
835.17359253,0.00050630
837.10239990,0.00044710
839.03120728,0.00035266
840.96001465,0.00068143
842.88882202,0.00059683
844.81762939,0.00052222
846.74643677,0.00031807
848.67524414,0.00016052
850.60405151,0.00041861
852.53285889,0.00035509
854.46166626,0.00053115
856.39047363,0.00042816
858.31928101,0.00031049
860.24808838,0.00039253
862.17689575,0.00005773
864.10570313,0.00007593
866.03451050,0.00018061
867.96331787,0.00028503
869.89212524,0.00035567
871.82093262,0.00012678
873.74973999,0.00026514
875.67854736,0.00038690
877.60735474,0.00016428
879.53616211,0.00012475
881.46496948,0.00018945
883.39377686,0.00019404
885.32258423,0.00039170
887.25139160,0.00033538
889.18019897,0.00003467
891.10900635,0.00018552
893.03781372,0.00007945
894.96662109,0.00017652
896.89542847,0.00049227
898.82423584,0.00026250
900.75304321,0.00014277
902.68185059,-0.00003059
904.61065796,-0.00012650
906.53946533,0.00026238
908.46827271,0.00047457
910.39708008,0.00025781
912.32588745,0.00037898
914.25469482,0.00048912
916.18350220,0.00039874
918.11230957,0.00056678
920.04111694,0.00054821
921.96992432,0.00059207
923.89873169,0.00051807
925.82753906,0.00031589
927.75634644,0.00060548
929.68515381,0.00072876
931.61396118,0.00073482
933.54276855,0.00077987
935.47157593,0.00071861
937.40038330,0.00086016
939.32919067,0.00077230
941.25799805,0.00079015
943.18680542,0.00095796
945.11561279,0.00082723
947.04442017,0.00084160
948.97322754,0.00071490
950.90203491,0.00057711
952.83084229,0.00065003
954.75964966,0.00080758
956.68845703,0.00079501
958.61726440,0.00059985
960.54607178,0.00076580
962.47487915,0.00062438
964.40368652,0.00062291
966.33249390,0.00080698
968.26130127,0.00061494
970.19010864,0.00091482
972.11891602,0.00101228
974.04772339,0.00083892
975.97653076,0.00090745
977.90533813,0.00085606
979.83414551,0.00101323
981.76295288,0.00131938
983.69176025,0.00137518
985.62056763,0.00147592
987.54937500,0.00172371
989.47818237,0.00176690
991.40698975,0.00207703
993.33579712,0.00238110
995.26460449,0.00219957
997.19341187,0.00242269
999.12221924,0.00287034
1001.05102661,0.00312028
1002.97983398,0.00346308
1004.90864136,0.00355296
1006.83744873,0.00363564
1008.76625610,0.00380716
1010.69506348,0.00384956
1012.62387085,0.00439849
1014.55267822,0.00464831
1016.48148560,0.00462388
1018.41029297,0.00507867
1020.33910034,0.00519840
1022.26790771,0.00531556
1024.19671509,0.00547865
1026.12552246,0.00567921
1028.05432983,0.00597184
1029.98313721,0.00606171
1031.91194458,0.00633892
1033.84075195,0.00656848
1035.76955933,0.00671234
1037.69836670,0.00659263
1039.62717407,0.00655977
1041.55598145,0.00674416
1043.48478882,0.00667121
1045.41359619,0.00672707
1047.34240356,0.00648636
1049.27121094,0.00634638
1051.20001831,0.00642154
1053.12882568,0.00606916
1055.05763306,0.00610602
1056.98644043,0.00607899
1058.91524780,0.00564937
1060.84405518,0.00563711
1062.77286255,0.00549483
1064.70166992,0.00523941
1066.63047729,0.00525735
1068.55928467,0.00498298
1070.48809204,0.00472121
1072.41689941,0.00469437
1074.34570679,0.00448416
1076.27451416,0.00425613
1078.20332153,0.00420769
1080.13212891,0.00391491
1082.06093628,0.00351290
1083.98974365,0.00340095
1085.91855103,0.00318582
1087.84735840,0.00305519
1089.77616577,0.00307577
1091.70497314,0.00295591
1093.63378052,0.00266484
1095.56258789,0.00263542
1097.49139526,0.00289019
1099.42020264,0.00269101
1101.34901001,0.00259858
1103.27781738,0.00253110
1105.20662476,0.00238540
1107.13543213,0.00241528
1109.06423950,0.00230253
1110.99304687,0.00242414
1112.92185425,0.00250048
1114.85066162,0.00243255
1116.77946899,0.00228927
1118.70827637,0.00236780
1120.63708374,0.00258632
1122.56589111,0.00246253
1124.49469849,0.00239475
1126.42350586,0.00252467
1128.35231323,0.00271188
1130.28112061,0.00253659
1132.20992798,0.00274610
1134.13873535,0.00295969
1136.06754272,0.00270410
1137.99635010,0.00287237
1139.92515747,0.00300155
1141.85396484,0.00339406
1143.78277222,0.00354376
1145.71157959,0.00373444
1147.64038696,0.00410369
1149.56919434,0.00400144
1151.49800171,0.00445376
1153.42680908,0.00475267
1155.35561646,0.00496471
1157.28442383,0.00503576
1159.21323120,0.00507328
1161.14203857,0.00541868
1163.07084595,0.00542573
1164.99965332,0.00591069
1166.92846069,0.00607872
1168.85726807,0.00610157
1170.78607544,0.00649610
1172.71488281,0.00664422
1174.64369019,0.00699829
1176.57249756,0.00748118
1178.50130493,0.00766438
1180.43011230,0.00752751
1182.35891968,0.00816128
1184.28772705,0.00861590
1186.21653442,0.00864064
1188.14534180,0.00938059
1190.07414917,0.00973240
1192.00295654,0.01009082
1193.93176392,0.01072169
1195.86057129,0.01120303
1197.78937866,0.01175640
1199.71818604,0.01228731
1201.64699341,0.01264153
1203.57580078,0.01303346
1205.50460815,0.01374993
1207.43341553,0.01425312
1209.36222290,0.01478355
1211.29103027,0.01523534
1213.21983765,0.01555766
1215.14864502,0.01609029
1217.07745239,0.01643462
1219.00625977,0.01668385
1220.93506714,0.01681847
1222.86387451,0.01703345
1224.79268188,0.01732123
1226.72148926,0.01746894
1228.65029663,0.01749677
1230.57910400,0.01764788
1232.50791138,0.01775122
1234.43671875,0.01761252
1236.36552612,0.01786452
1238.29433350,0.01778740
1240.22314087,0.01753311
1242.15194824,0.01756240
1244.08075562,0.01742224
1246.00956299,0.01742823
1247.93837036,0.01742228
1249.86717773,0.01741358
1251.79598511,0.01711694
1253.72479248,0.01704838
1255.65359985,0.01709744
1257.58240723,0.01650900
1259.51121460,0.01643135
1261.44002197,0.01633239
1263.36882935,0.01598417
1265.29763672,0.01597344
1267.22644409,0.01567432
1269.15525146,0.01536730
1271.08405884,0.01531125
1273.01286621,0.01498336
1274.94167358,0.01459544
1276.87048096,0.01464210
1278.79928833,0.01426208
1280.72809570,0.01394363
1282.65690308,0.01389523
1284.58571045,0.01329885
1286.51451782,0.01328232
1288.44332520,0.01318789
1290.37213257,0.01286386
1292.30093994,0.01284996
1294.22974731,0.01248916
1296.15855469,0.01258988
1298.08736206,0.01267666
1300.01616943,0.01255722
1301.94497681,0.01277534
1303.87378418,0.01295898
1305.80259155,0.01309242
1307.73139893,0.01324497
1309.66020630,0.01363720
1311.58901367,0.01374180
1313.51782104,0.01386368
1315.44662842,0.01430690
1317.37543579,0.01459000
1319.30424316,0.01499539
1321.23305054,0.01545681
1323.16185791,0.01606729
1325.09066528,0.01648433
1327.01947266,0.01692183
1328.94828003,0.01752253
1330.87708740,0.01779403
1332.80589478,0.01831672
1334.73470215,0.01857853
1336.66350952,0.01858568
1338.59231689,0.01866884
1340.52112427,0.01882569
1342.44993164,0.01952772
1344.37873901,0.01982582
1346.30754639,0.01977072
1348.23635376,0.01970102
1350.16516113,0.01950195
1352.09396851,0.01967108
1354.02277588,0.01959630
1355.95158325,0.01922286
1357.88039062,0.01917652
1359.80919800,0.01900432
1361.73800537,0.01799052
1363.66681274,0.01783534
1365.59562012,0.01885346
1367.52442749,0.01843274
1369.45323486,0.01836382
1371.38204224,0.01864738
1373.31084961,0.01757744
1375.23965698,0.01773461
1377.16846436,0.01820185
1379.09727173,0.01798148
1381.02607910,0.01796954
1382.95488647,0.01814091
1384.88369385,0.01817083
1386.81250122,0.01734324
1388.74130859,0.01770427
1390.67011597,0.01892438
1392.59892334,0.01842935
1394.52773071,0.01746592
1396.45653809,0.01816266
1398.38534546,0.01831771
1400.31415283,0.01811704
1402.24296021,0.01945741
1404.17176758,0.01880590
1406.10057495,0.01884990
1408.02938232,0.01955817
1409.95818970,0.01879901
1411.88699707,0.01930735
1413.81580444,0.01873476
1415.74461182,0.01884503
1417.67341919,0.01720858
1419.60222656,0.01528420
1421.53103394,0.01754673
1423.45984131,0.01714890
1425.38864868,0.01667184
1427.31745605,0.01697217
1429.24626343,0.01554845
1431.17507080,0.01510589
1433.10387817,0.01546777
1435.03268555,0.01431117
1436.96149292,0.01201843
1438.89030029,0.01362252
1440.81910767,0.01399700
1442.74791504,0.01287515
1444.67672241,0.01376741
1446.60552979,0.01245533
1448.53433716,0.01263885
1450.46314453,0.01326824
1452.39195190,0.01340495
1454.32075928,0.01385602
1456.24956665,0.01160124
1458.17837402,0.01231393
1460.10718140,0.01612318
1462.03598877,0.01707542
1463.96479614,0.01684563
1465.89360352,0.01779555
1467.82241089,0.02023619
1469.75121826,0.02150552
1471.68002563,0.01947890
1473.60883301,0.02032156
1475.53764038,0.02320080
1477.46644775,0.02495330
1479.39525513,0.02722426
1481.32406250,0.02755490
1483.25286987,0.02926408
1485.18167725,0.03047824
1487.11048462,0.02973224
1489.03929199,0.02978804
1490.96809937,0.03009767
1492.89690674,0.03450782
1494.82571411,0.03385375
1496.75452148,0.03077662
1498.68332886,0.03471541
1500.61213623,0.03550615
1502.54094360,0.03815298
1504.46975098,0.03625025
1506.39855835,0.02675470
1508.32736572,0.03232268
1510.25617310,0.03786139
1512.18498047,0.03697788
1514.11378784,0.03955311
1516.04259521,0.03592040
1517.97140259,0.03737117
1519.90020996,0.03605430
1521.82901733,0.03169601
1523.75782471,0.03824980
1525.68663208,0.03774680
1527.61543945,0.03769673
1529.54424683,0.04152796
1531.47305420,0.04012009
1533.40186157,0.03694087
1535.33066895,0.03901106
1537.25947632,0.04159557
1539.18828369,0.03034884
1541.11709106,0.03159766
1543.04589844,0.03763001
1544.97470581,0.03613472
1546.90351318,0.04253856
1548.83232056,0.03987212
1550.76112793,0.04088909
1552.68993530,0.04083207
1554.61874268,0.03729616
1556.54755005,0.03974954
1558.47635742,0.02859108
1560.40516479,0.03084811
1562.33397217,0.04315088
1564.26277954,0.04088081
1566.19158691,0.04203737
1568.12039429,0.04169060
1570.04920166,0.03727606
1571.97800903,0.04263005
1573.90681641,0.04313302
1575.83562378,0.03454341
1577.76443115,0.03896120
1579.69323853,0.04403473
1581.62204590,0.04202005
1583.55085327,0.04294723
1585.47966064,0.04236466
1587.40846802,0.04290338
1589.33727539,0.04264878
1591.26608276,0.04255800
1593.19489014,0.04273567
1595.12369751,0.04218569
1597.05250488,0.04284452
1598.98131226,0.04263213
1600.91011963,0.04274027
1602.83892700,0.04218771
1604.76773437,0.04295278
1606.69654175,0.04208551
1608.62534912,0.04220431
1610.55415649,0.04238056
1612.48296387,0.04244203
1614.41177124,0.04313527
1616.34057861,0.03555971
1618.26938599,0.03852787
1620.19819336,0.04468956
1622.12700073,0.03970104
1624.05580811,0.04003168
1625.98461548,0.04194216
1627.91342285,0.04173528
1629.84223022,0.04139504
1631.77103760,0.04417547
1633.69984497,0.04091567
1635.62865234,0.03394308
1637.55745972,0.03968773
1639.48626709,0.04344172
1641.41507446,0.04230400
1643.34388184,0.04360022
1645.27268921,0.03934318
1647.20149658,0.03480543
1649.13030396,0.04293596
1651.05911133,0.04068258
1652.98791870,0.02684553
1654.91672607,0.03605566
1656.84553345,0.04471861
1658.77434082,0.04277131
1660.70314819,0.04397312
1662.63195557,0.04021169
1664.56076294,0.04233805
1666.48957031,0.04519113
1668.41837769,0.03987120
1670.34718506,0.03898914
1672.27599243,0.04371336
1674.20479980,0.04053974
1676.13360718,0.03914892
1678.06241455,0.04474144
1679.99122192,0.04313936
1681.92002930,0.04265918
1683.84883667,0.03494427
1685.77764404,0.03480399
1687.70645142,0.04692354
1689.63525879,0.04082374
1691.56406616,0.04505198
1693.49287354,0.04577649
1695.42168091,0.03388667
1697.35048828,0.04161286
1699.27929565,0.03675372
1701.20810303,0.03329743
1703.13691040,0.04485077
1705.06571777,0.04127873
1706.99452515,0.04145400
1708.92333252,0.04498377
1710.85213989,0.04330849
1712.78094727,0.04414050
1714.70975464,0.04114600
1716.63856201,0.03689392
1718.56736938,0.03646514
1720.49617676,0.04302380
1722.42498413,0.04456517
1724.35379150,0.04167087
1726.28259888,0.04511587
1728.21140625,0.04166432
1730.14021362,0.04215361
1732.06902100,0.04106530
1733.99782837,0.03155681
1735.92663574,0.03910062
1737.85544312,0.04298426
1739.78425049,0.03850083
1741.71305786,0.04189197
1743.64186523,0.04221948
1745.57067261,0.04251056
1747.49947998,0.04288635
1749.42828735,0.04103056
1751.35709473,0.03940608
1753.28590210,0.04343672
1755.21470947,0.04558031
1757.14351685,0.04173509
1759.07232422,0.04576100
1761.00113159,0.04318206
1762.92993896,0.04155871
1764.85874634,0.04744483
1766.78755371,0.04295642
1768.71636108,0.04323950
1770.64516846,0.04304815
1772.57397583,0.03899489
1774.50278320,0.04333652
1776.43159058,0.04569706
1778.36039795,0.04503683
1780.28920532,0.04443372
1782.21801270,0.04486416
1784.14682007,0.04471215
1786.07562744,0.04390956
1788.00443481,0.04631475
1789.93324219,0.04513799
1791.86204956,0.04110353
1793.79085693,0.04279223
1795.71966431,0.04572370
1797.64847168,0.04529275
1799.57727905,0.04469880
1801.50608643,0.04398262
1803.43489380,0.04516748
1805.36370117,0.04613439
1807.29250854,0.04575893
1809.22131592,0.04589495
1811.15012329,0.04471977
1813.07893066,0.04603578
1815.00773804,0.04630824
1816.93654541,0.04592580
1818.86535278,0.04630718
1820.79416016,0.04611605
1822.72296753,0.04671007
1824.65177490,0.04378435
1826.58058228,0.04539970
1828.50938965,0.04559050
1830.43819702,0.04288387
1832.36700439,0.04652591
1834.29581177,0.04627495
1836.22461914,0.04614293
1838.15342651,0.04605553
1840.08223389,0.04638567
1842.01104126,0.04649037
1843.93984863,0.04152986
1845.86865601,0.04410769
1847.79746338,0.04647804
1849.72627075,0.04551334
1851.65507812,0.04685811
1853.58388550,0.04602563
1855.51269287,0.04642689
1857.44150024,0.04617832
1859.37030762,0.04594035
1861.29911499,0.04633897
1863.22792236,0.04587279
1865.15672974,0.04627910
1867.08553711,0.04489181
1869.01434448,0.04313332
1870.94315186,0.04471813
1872.87195923,0.04643569
1874.80076660,0.04573701
1876.72957397,0.04601652
1878.65838135,0.04582885
1880.58718872,0.04562371
1882.51599609,0.04612957
1884.44480347,0.04533707
1886.37361084,0.04598378
1888.30241821,0.04494420
1890.23122559,0.04428366
1892.16003296,0.04591924
1894.08884033,0.04507697
1896.01764771,0.04519919
1897.94645508,0.04567911
1899.87526245,0.04537687
1901.80406982,0.04569894
1903.73287720,0.04533377
1905.66168457,0.04549426
1907.59049194,0.04522412
1909.51929932,0.04509996
1911.44810669,0.04526381
1913.37691406,0.04524403
1915.30572144,0.04565499
1917.23452881,0.04369883
1919.16333618,0.04388018
1921.09214355,0.04552560
1923.02095093,0.04416683
1924.94975830,0.04509872
1926.87856567,0.04551216
1928.80737305,0.04497255
1930.73618042,0.04540597
1932.66498779,0.04481100
1934.59379517,0.04541733
1936.52260254,0.04515264
1938.45140991,0.04537345
1940.38021729,0.04537223
1942.30902466,0.04384242
1944.23783203,0.04471497
1946.16663940,0.04522615
1948.09544678,0.04510346
1950.02425415,0.04523069
1951.95306152,0.04510853
1953.88186890,0.04517877
1955.81067627,0.04502825
1957.73948364,0.04513435
1959.66829102,0.04495748
1961.59709839,0.04510660
1963.52590576,0.04536630
1965.45471313,0.04506987
1967.38352051,0.04465128
1969.31232788,0.04493767
1971.24113525,0.04522321
1973.16994263,0.04498638
1975.09875000,0.04531682
1977.02755737,0.04498084
1978.95636475,0.04511027
1980.88517212,0.04531951
1982.81397949,0.04494664
1984.74278687,0.04520548
1986.67159424,0.04482723
1988.60040161,0.04482892
1990.52920898,0.04455266
1992.45801636,0.04423423
1994.38682373,0.04489025
1996.31563110,0.04474317
1998.24443848,0.04462459
2000.17324585,0.04476579
2002.10205322,0.04455189
2004.03086060,0.04452699
2005.95966797,0.04450509
2007.88847534,0.04421465
2009.81728271,0.04435240
2011.74609009,0.04441221
2013.67489746,0.04431143
2015.60370483,0.04423042
2017.53251221,0.04364959
2019.46131958,0.04402877
2021.39012695,0.04421163
2023.31893433,0.04381461
2025.24774170,0.04396520
2027.17654907,0.04383492
2029.10535645,0.04385091
2031.03416382,0.04374694
2032.96297119,0.04367346
2034.89177856,0.04355550
2036.82058594,0.04349262
2038.74939331,0.04362784
2040.67820068,0.04327973
2042.60700806,0.04336792
2044.53581543,0.04335146
2046.46462280,0.04322927
2048.39343018,0.04327269
2050.32223755,0.04305977
2052.25104492,0.04310355
2054.17985229,0.04295290
2056.10865967,0.04294600
2058.03746704,0.04301864
2059.96627441,0.04282038
2061.89508179,0.04286477
2063.82388916,0.04271511
2065.75269653,0.04245524
2067.68150391,0.04258788
2069.61031128,0.04272176
2071.53911865,0.04258672
2073.46792603,0.04243406
2075.39673340,0.04238547
2077.32554077,0.04237229
2079.25434814,0.04228251
2081.18315552,0.04229891
2083.11196289,0.04221404
2085.04077026,0.04199772
2086.96957764,0.04212406
2088.89838501,0.04203137
2090.82719238,0.04196392
2092.75599976,0.04212108
2094.68480713,0.04183481
2096.61361450,0.04183003
2098.54242187,0.04202930
2100.47122925,0.04186740
2102.40003662,0.04174294
2104.32884399,0.04166180
2106.25765137,0.04166333
2108.18645874,0.04165074
2110.11526611,0.04158030
2112.04407349,0.04149877
2113.97288086,0.04145747
2115.90168823,0.04152796
2117.83049561,0.04132566
2119.75930298,0.04131515
2121.68811035,0.04141741
2123.61691772,0.04130995
2125.54572510,0.04142984
2127.47453247,0.04134669
2129.40333984,0.04128181
2131.33214722,0.04129988
2133.26095459,0.04118130
2135.18976196,0.04110343
2137.11856934,0.04104718
2139.04737671,0.04117624
2140.97618408,0.04109278
2142.90499146,0.04107554
2144.83379883,0.04112936
2146.76260620,0.04096428
2148.69141357,0.04097607
2150.62022095,0.04094819
2152.54902832,0.04089011
2154.47783569,0.04089639
2156.40664307,0.04096468
2158.33545044,0.04091397
2160.26425781,0.04090344
2162.19306519,0.04090460
2164.12187256,0.04066757
2166.05067993,0.04077453
2167.97948730,0.04086872
2169.90829468,0.04079369
2171.83710205,0.04076305
2173.76590942,0.04067990
2175.69471680,0.04066100
2177.62352417,0.04059759
2179.55233154,0.04064495
2181.48113892,0.04067273
2183.40994629,0.04062485
2185.33875366,0.04054182
2187.26756104,0.04046369
2189.19636841,0.04044768
2191.12517578,0.04041623
2193.05398315,0.04050106
2194.98279053,0.04047558
2196.91159790,0.04042237
2198.84040527,0.04038489
2200.76921265,0.04031625
2202.69802002,0.04037990
2204.62682739,0.04037568
2206.55563477,0.04034719
2208.48444214,0.04034882
2210.41324951,0.04030880
2212.34205688,0.04022149
2214.27086426,0.04011022
2216.19967163,0.04012084
2218.12847900,0.04015117
2220.05728638,0.04006626
2221.98609375,0.04009610
2223.91490112,0.04002531
2225.84370850,0.03987910
2227.77251587,0.03994920
2229.70132324,0.03993586
2231.63013062,0.03995631
2233.55893799,0.03983945
2235.48774536,0.03978405
2237.41655273,0.03988655
2239.34536011,0.03974773
2241.27416748,0.03977437
2243.20297485,0.03971220
2245.13178223,0.03964610
2247.06058960,0.03964054
2248.98939697,0.03955799
2250.91820435,0.03953806
2252.84701172,0.03944424
2254.77581909,0.03951734
2256.70462646,0.03940208
2258.63343384,0.03939778
2260.56224121,0.03953217
2262.49104858,0.03938368
2264.41985596,0.03939079
2266.34866333,0.03932589
2268.27747070,0.03923361
2270.20627808,0.03924359
2272.13508545,0.03913348
2274.06389282,0.03898095
2275.99270020,0.03916370
2277.92150757,0.03922618
2279.85031494,0.03893040
2281.77912231,0.03899329
2283.70792969,0.03906963
2285.63673706,0.03909197
2287.56554443,0.03903748
2289.49435181,0.03896172
2291.42315918,0.03890619
2293.35196655,0.03865615
2295.28077393,0.03868708
2297.20958130,0.03859917
2299.13838867,0.03844031
2301.06719604,0.03840597
2302.99600342,0.03829213
2304.92481079,0.03807788
2306.85361816,0.03776990
2308.78242554,0.03771111
2310.71123291,0.03738806
2312.64004028,0.03694980
2314.56884766,0.03663658
2316.49765503,0.03619898
2318.42646240,0.03581395
2320.35526978,0.03524847
2322.28407715,0.03478352
2324.21288452,0.03446361
2326.14169189,0.03406511
2328.07049927,0.03374733
2329.99930664,0.03335201
2331.92811401,0.03305598
2333.85692139,0.03300046
2335.78572876,0.03286978
2337.71453613,0.03283127
2339.64334351,0.03279515
2341.57215088,0.03292549
2343.50095825,0.03352664
2345.42976562,0.03407039
2347.35857300,0.03547044
2349.28738037,0.03659600
2351.21618774,0.03537699
2353.14499512,0.03370158
2355.07380249,0.03246301
2357.00260986,0.03152484
2358.93141724,0.03106127
2360.86022461,0.03062425
2362.78903198,0.03050707
2364.71783936,0.03083539
2366.64664673,0.03122027
2368.57545410,0.03169167
2370.50426147,0.03266229
2372.43306885,0.03358730
2374.36187622,0.03444909
2376.29068359,0.03541725
2378.21949097,0.03608887
2380.14829834,0.03672601
2382.07710571,0.03703333
2384.00591309,0.03738079
2385.93472046,0.03768826
2387.86352783,0.03757305
2389.79233521,0.03765854
2391.72114258,0.03764021
2393.64994995,0.03757917
2395.57875732,0.03747204
2397.50756470,0.03740427
2399.43637207,0.03751458
2401.36517944,0.03738887
2403.29398682,0.03740767
2405.22279419,0.03742639
2407.15160156,0.03737959
2409.08040894,0.03731704
2411.00921631,0.03715591
2412.93802368,0.03722209
2414.86683105,0.03718955
2416.79563843,0.03721899
2418.72444580,0.03726617
2420.65325317,0.03709050
2422.58206055,0.03710079
2424.51086792,0.03716133
2426.43967529,0.03723563
2428.36848267,0.03709714
2430.29729004,0.03687616
2432.22609741,0.03699621
2434.15490479,0.03701940
2436.08371216,0.03690461
2438.01251953,0.03679516
2439.94132690,0.03679148
2441.87013428,0.03686389
2443.79894165,0.03687116
2445.72774902,0.03680073
2447.65655640,0.03665265
2449.58536377,0.03672855
2451.51417114,0.03675031
2453.44297852,0.03669120
2455.37178589,0.03673140
2457.30059326,0.03660363
2459.22940063,0.03655774
2461.15820801,0.03664876
2463.08701538,0.03659306
2465.01582275,0.03652190
2466.94463013,0.03661271
2468.87343750,0.03649097
2470.80224487,0.03642730
2472.73105225,0.03649728
2474.65985962,0.03629275
2476.58866699,0.03633124
2478.51747437,0.03643204
2480.44628174,0.03635930
2482.37508911,0.03617380
2484.30389648,0.03614228
2486.23270386,0.03628618
2488.16151123,0.03612636
2490.09031860,0.03612510
2492.01912598,0.03611615
2493.94793335,0.03619258
2495.87674072,0.03627959
2497.80554810,0.03604092
2499.73435547,0.03601023
2501.66316284,0.03592576
2503.59197021,0.03594692
2505.52077759,0.03601398
2507.44958496,0.03602785
2509.37839233,0.03597154
2511.30719971,0.03577452
2513.23600708,0.03590956
2515.16481445,0.03581636
2517.09362183,0.03575212
2519.02242920,0.03582691
2520.95123657,0.03563502
2522.88004395,0.03564128
2524.80885132,0.03561245
2526.73765869,0.03554251
2528.66646606,0.03559501
2530.59527344,0.03558470
2532.52408081,0.03552318
2534.45288818,0.03562042
2536.38169556,0.03568093
2538.31050293,0.03546396
2540.23931030,0.03542136
2542.16811768,0.03545443
2544.09692505,0.03532131
2546.02573242,0.03531650
2547.95453979,0.03535355
2549.88334717,0.03534791
2551.81215454,0.03542952
2553.74096191,0.03525577
2555.66976929,0.03513260
2557.59857666,0.03523920
2559.52738403,0.03505795
2561.45619141,0.03504667
2563.38499878,0.03516364
2565.31380615,0.03511534
2567.24261353,0.03506839
2569.17142090,0.03505946
2571.10022827,0.03503171
2573.02903564,0.03488299
2574.95784302,0.03492983
2576.88665039,0.03488139
2578.81545776,0.03479613
2580.74426514,0.03488693
2582.67307251,0.03482279
2584.60187988,0.03482467
2586.53068726,0.03481891
2588.45949463,0.03471687
2590.38830200,0.03467888
2592.31710937,0.03471865
2594.24591675,0.03462593
2596.17472412,0.03457765
2598.10353149,0.03467267
2600.03233887,0.03461854
2601.96114624,0.03454224
2603.88995361,0.03442652
2605.81876099,0.03453258
2607.74756836,0.03456917
2609.67637573,0.03441366
2611.60518311,0.03443583
2613.53399048,0.03434546
2615.46279785,0.03438227
2617.39160522,0.03436498
2619.32041260,0.03422869
2621.24921997,0.03423800
2623.17802734,0.03425274
2625.10683472,0.03419012
2627.03564209,0.03408892
2628.96444946,0.03418357
2630.89325684,0.03408165
2632.82206421,0.03396904
2634.75087158,0.03403890
2636.67967895,0.03402232
2638.60848633,0.03403144
2640.53729370,0.03389486
2642.46610107,0.03387422
2644.39490845,0.03391078
2646.32371582,0.03385127
2648.25252319,0.03389711
2650.18133057,0.03384116
2652.11013794,0.03367392
2654.03894531,0.03370899
2655.96775269,0.03382465
2657.89656006,0.03363919
2659.82536743,0.03359812
2661.75417480,0.03363536
2663.68298218,0.03350862
2665.61178955,0.03354542
2667.54059692,0.03352278
2669.46940430,0.03345481
2671.39821167,0.03336260
2673.32701904,0.03338138
2675.25582642,0.03349750
2677.18463379,0.03336927
2679.11344116,0.03332122
2681.04224854,0.03329580
2682.97105591,0.03316390
2684.89986328,0.03324072
2686.82867065,0.03334749
2688.75747803,0.03324648
2690.68628540,0.03313927
2692.61509277,0.03311457
2694.54390015,0.03304341
2696.47270752,0.03298723
2698.40151489,0.03298019
2700.33032227,0.03297557
2702.25912964,0.03294154
2704.18793701,0.03286136
2706.11674438,0.03285778
2708.04555176,0.03286790
2709.97435913,0.03287436
2711.90316650,0.03287105
2713.83197388,0.03272732
2715.76078125,0.03268041
2717.68958862,0.03265573
2719.61839600,0.03266855
2721.54720337,0.03270674
2723.47601074,0.03255489
2725.40481812,0.03263851
2727.33362549,0.03257290
2729.26243286,0.03241993
2731.19124023,0.03254633
2733.12004761,0.03242188
2735.04885498,0.03240951
2736.97766235,0.03245486
2738.90646973,0.03238185
2740.83527710,0.03235002
2742.76408447,0.03224307
2744.69289185,0.03216222
2746.62169922,0.03212557
2748.55050659,0.03220399
2750.47931396,0.03207457
2752.40812134,0.03196692
2754.33692871,0.03208361
2756.26573608,0.03210650
2758.19454346,0.03208735
2760.12335083,0.03191043
2762.05215820,0.03187509
2763.98096558,0.03192227
2765.90977295,0.03186323
2767.83858032,0.03179259
2769.76738770,0.03172518
2771.69619507,0.03174365
2773.62500244,0.03162029
2775.55380981,0.03155833
2777.48261719,0.03158274
2779.41142456,0.03162429
2781.34023193,0.03159431
2783.26903931,0.03138071
2785.19784668,0.03137227
2787.12665405,0.03144076
2789.05546143,0.03139920
2790.98426880,0.03126863
2792.91307617,0.03121717
2794.84188354,0.03119538
2796.77069092,0.03108610
2798.69949829,0.03110608
2800.62830566,0.03106951
2802.55711304,0.03099065
2804.48592041,0.03096407
2806.41472778,0.03099779
2808.34353516,0.03100128
2810.27234253,0.03086168
2812.20114990,0.03081784
2814.12995728,0.03084161
2816.05876465,0.03078080
2817.98757202,0.03065373
2819.91637939,0.03062958
2821.84518677,0.03067895
2823.77399414,0.03065101
2825.70280151,0.03057976
2827.63160889,0.03052672
2829.56041626,0.03050224
2831.48922363,0.03044647
2833.41803101,0.03032449
2835.34683838,0.03027293
2837.27564575,0.03030405
2839.20445312,0.03008696
2841.13326050,0.03012594
2843.06206787,0.03025298
2844.99087524,0.02987565
2846.91968262,0.02966443
2848.84848999,0.02952011
2850.77729736,0.02959553
2852.70610474,0.02965269
2854.63491211,0.02948096
2856.56371948,0.02968100
2858.49252686,0.02952559
2860.42133423,0.02943815
2862.35014160,0.02958642
2864.27894897,0.02942559
2866.20775635,0.02942260
2868.13656372,0.02938261
2870.06537109,0.02931869
2871.99417847,0.02922611
2873.92298584,0.02916994
2875.85179321,0.02922569
2877.78060059,0.02916249
2879.70940796,0.02916990
2881.63821533,0.02918159
2883.56702270,0.02913446
2885.49583008,0.02906565
2887.42463745,0.02906506
2889.35344482,0.02905325
2891.28225220,0.02891186
2893.21105957,0.02882428
2895.13986694,0.02876109
2897.06867432,0.02871948
2898.99748169,0.02872094
2900.92628906,0.02866610
2902.85509644,0.02858649
2904.78390381,0.02862964
2906.71271118,0.02857590
2908.64151855,0.02832776
2910.57032593,0.02822417
2912.49913330,0.02821425
2914.42794067,0.02807357
2916.35674805,0.02791540
2918.28555542,0.02792671
2920.21436279,0.02790669
2922.14317017,0.02782666
2924.07197754,0.02777975
2926.00078491,0.02776700
2927.92959229,0.02783922
2929.85839966,0.02782061
2931.78720703,0.02778930
2933.71601440,0.02776018
2935.64482178,0.02782551
2937.57362915,0.02783682
2939.50243652,0.02767113
2941.43124390,0.02778383
2943.36005127,0.02779762
2945.28885864,0.02770983
2947.21766602,0.02774614
2949.14647339,0.02759947
2951.07528076,0.02751353
2953.00408813,0.02756365
2954.93289551,0.02754360
2956.86170288,0.02740652
2958.79051025,0.02739400
2960.71931763,0.02735103
2962.64812500,0.02715716
2964.57693237,0.02715995
2966.50573975,0.02714939
2968.43454712,0.02710445
2970.36335449,0.02717178
2972.29216187,0.02731816
2974.22096924,0.02734874
2976.14977661,0.02723111
2978.07858398,0.02730698
2980.00739136,0.02727343
2981.93619873,0.02723347
2983.86500610,0.02737537
2985.79381348,0.02725840
2987.72262085,0.02723087
2989.65142822,0.02734563
2991.58023560,0.02723137
2993.50904297,0.02714282
2995.43785034,0.02717773
2997.36665771,0.02716597
2999.29546509,0.02705295
3001.22427246,0.02701577
3003.15307983,0.02698878
3005.08188721,0.02687624
3007.01069458,0.02692955
3008.93950195,0.02694528
3010.86830933,0.02686703
3012.79711670,0.02681193
3014.72592407,0.02667703
3016.65473145,0.02665460
3018.58353882,0.02670532
3020.51234619,0.02669821
3022.44115356,0.02663738
3024.36996094,0.02657764
3026.29876831,0.02655309
3028.22757568,0.02648804
3030.15638306,0.02641323
3032.08519043,0.02627631
3034.01399780,0.02625661
3035.94280518,0.02633614
3037.87161255,0.02621550
3039.80041992,0.02617644
3041.72922729,0.02627055
3043.65803467,0.02616128
3045.58684204,0.02606857
3047.51564941,0.02608295
3049.44445679,0.02602258
3051.37326416,0.02603832
3053.30207153,0.02592349
3055.23087891,0.02577076
3057.15968628,0.02583652
3059.08849365,0.02583956
3061.01730103,0.02583913
3062.94610840,0.02578221
3064.87491577,0.02568375
3066.80372314,0.02558619
3068.73253052,0.02556409
3070.66133789,0.02568094
3072.59014526,0.02552443
3074.51895264,0.02542591
3076.44776001,0.02547370
3078.37656738,0.02536706
3080.30537476,0.02532893
3082.23418213,0.02532579
3084.16298950,0.02531020
3086.09179687,0.02531796
3088.02060425,0.02526649
3089.94941162,0.02513574
3091.87821899,0.02516230
3093.80702637,0.02512141
3095.73583374,0.02496200
3097.66464111,0.02494611
3099.59344849,0.02485841
3101.52225586,0.02487387
3103.45106323,0.02482994
3105.37987061,0.02481646
3107.30867798,0.02486805
3109.23748535,0.02470233
3111.16629272,0.02472522
3113.09510010,0.02462029
3115.02390747,0.02448840
3116.95271484,0.02449466
3118.88152222,0.02446765
3120.81032959,0.02448651
3122.73913696,0.02433834
3124.66794434,0.02432199
3126.59675171,0.02422934
3128.52555908,0.02421821
3130.45436645,0.02430314
3132.38317383,0.02405061
3134.31198120,0.02402100
3136.24078857,0.02401110
3138.16959595,0.02394195
3140.09840332,0.02389470
3142.02721069,0.02386362
3143.95601807,0.02391452
3145.88482544,0.02376012
3147.81363281,0.02374040
3149.74244019,0.02373125
3151.67124756,0.02362410
3153.60005493,0.02353930
3155.52886230,0.02353378
3157.45766968,0.02355882
3159.38647705,0.02339505
3161.31528442,0.02339605
3163.24409180,0.02332886
3165.17289917,0.02326036
3167.10170654,0.02328892
3169.03051392,0.02317596
3170.95932129,0.02309895
3172.88812866,0.02303784
3174.81693604,0.02309223
3176.74574341,0.02291273
3178.67455078,0.02283241
3180.60335815,0.02289663
3182.53216553,0.02271517
3184.46097290,0.02276977
3186.38978027,0.02276083
3188.31858765,0.02273224
3190.24739502,0.02262810
3192.17620239,0.02250145
3194.10500977,0.02256692
3196.03381714,0.02245482
3197.96262451,0.02246055
3199.89143188,0.02244606
3201.82023926,0.02237458
3203.74904663,0.02233705
3205.67785400,0.02234694
3207.60666138,0.02231019
3209.53546875,0.02214435
3211.46427612,0.02214473
3213.39308350,0.02205320
3215.32189087,0.02213139
3217.25069824,0.02211605
3219.17950562,0.02199376
3221.10831299,0.02206628
3223.03712036,0.02194849
3224.96592773,0.02203185
3226.89473511,0.02195579
3228.82354248,0.02183510
3230.75234985,0.02187997
3232.68115723,0.02178870
3234.60996460,0.02184746
3236.53877197,0.02173533
3238.46757935,0.02160048
3240.39638672,0.02165182
3242.32519409,0.02167299
3244.25400146,0.02159946
3246.18280884,0.02162414
3248.11161621,0.02161189
3250.04042358,0.02151815
3251.96923096,0.02157480
3253.89803833,0.02142477
3255.82684570,0.02140464
3257.75565308,0.02139534
3259.68446045,0.02137927
3261.61326782,0.02148440
3263.54207520,0.02142883
3265.47088257,0.02151022
3267.39968994,0.02135252
3269.32849731,0.02131176
3271.25730469,0.02134093
3273.18611206,0.02123268
3275.11491943,0.02131737
3277.04372681,0.02119950
3278.97253418,0.02127429
3280.90134155,0.02132813
3282.83014893,0.02125911
3284.75895630,0.02127600
3286.68776367,0.02118697
3288.61657104,0.02118683
3290.54537842,0.02111592
3292.47418579,0.02103561
3294.40299316,0.02104392
3296.33180054,0.02112355
3298.26060791,0.02109656
3300.18941528,0.02104045
3302.11822266,0.02107617
3304.04703003,0.02103575
3305.97583740,0.02097181
3307.90464478,0.02088546
3309.83345215,0.02087774
3311.76225952,0.02080410
3313.69106689,0.02084720
3315.61987427,0.02085466
3317.54868164,0.02073685
3319.47748901,0.02078851
3321.40629639,0.02072191
3323.33510376,0.02074959
3325.26391113,0.02074668
3327.19271851,0.02075943
3329.12152588,0.02079572
3331.05033325,0.02069571
3332.97914062,0.02067824
3334.90794800,0.02054532
3336.83675537,0.02055369
3338.76556274,0.02059440
3340.69437012,0.02059777
3342.62317749,0.02055397
3344.55198486,0.02040059
3346.48079224,0.02042431
3348.40959961,0.02043626
3350.33840698,0.02048941
3352.26721436,0.02042064
3354.19602173,0.02031085
3356.12482910,0.02033063
3358.05363647,0.02023545
3359.98244385,0.02023870
3361.91125122,0.02025773
3363.84005859,0.02012190
3365.76886597,0.02019985
3367.69767334,0.02022957
3369.62648071,0.02004900
3371.55528809,0.02021457
3373.48409546,0.02015783
3375.41290283,0.01994245
3377.34171020,0.01987354
3379.27051758,0.01984122
3381.19932495,0.02005467
3383.12813232,0.01988584
3385.05693970,0.01979313
3386.98574707,0.01982440
3388.91455444,0.01980615
3390.84336182,0.01977087
3392.77216919,0.01954078
3394.70097656,0.01972810
3396.62978394,0.01967977
3398.55859131,0.01964590
3400.48739868,0.01963728
3402.41620605,0.01948236
3404.34501343,0.01965765
3406.27382080,0.01955771
3408.20262817,0.01955999
3410.13143555,0.01950385
3412.06024292,0.01943561
3413.98905029,0.01946191
3415.91785767,0.01940402
3417.84666504,0.01939815
3419.77547241,0.01913694
3421.70427979,0.01919193
3423.63308716,0.01927942
3425.56189453,0.01925493
3427.49070190,0.01924440
3429.41950928,0.01910093
3431.34831665,0.01906000
3433.27712402,0.01903027
3435.20593140,0.01912936
3437.13473877,0.01903853
3439.06354614,0.01896585
3440.99235352,0.01898136
3442.92116089,0.01892624
3444.84996826,0.01887038
3446.77877563,0.01867193
3448.70758301,0.01872608
3450.63639038,0.01888550
3452.56519775,0.01891733
3454.49400513,0.01883325
3456.42281250,0.01883959
3458.35161987,0.01886802
3460.28042725,0.01870377
3462.20923462,0.01862786
3464.13804199,0.01871448
3466.06684937,0.01873412
3467.99565674,0.01859879
3469.92446411,0.01865803
3471.85327148,0.01859575
3473.78207886,0.01852090
3475.71088623,0.01853328
3477.63969360,0.01862728
3479.56850098,0.01871300
3481.49730835,0.01831832
3483.42611572,0.01851143
3485.35492310,0.01862790
3487.28373047,0.01831744
3489.21253784,0.01840099
3491.14134521,0.01847301
3493.07015259,0.01862778
3494.99895996,0.01843775
3496.92776733,0.01834266
3498.85657471,0.01849059
3500.78538208,0.01835236
3502.71418945,0.01806945
3504.64299683,0.01814175
3506.57180420,0.01850824
3508.50061157,0.01825594
3510.42941895,0.01821883
3512.35822632,0.01839225
3514.28703369,0.01848212
3516.21584106,0.01850579
3518.14464844,0.01824168
3520.07345581,0.01838899
3522.00226318,0.01823063
3523.93107056,0.01799865
3525.85987793,0.01814044
3527.78868530,0.01806714
3529.71749268,0.01809121
3531.64630005,0.01829602
3533.57510742,0.01839516
3535.50391479,0.01824886
3537.43272217,0.01820363
3539.36152954,0.01838402
3541.29033691,0.01836565
3543.21914429,0.01817498
3545.14795166,0.01789320
3547.07675903,0.01753226
3549.00556641,0.01809185
3550.93437378,0.01835457
3552.86318115,0.01775534
3554.79198853,0.01817820
3556.72079590,0.01829044
3558.64960327,0.01814609
3560.57841064,0.01809274
3562.50721802,0.01789366
3564.43602539,0.01809174
3566.36483276,0.01700374
3568.29364014,0.01653617
3570.22244751,0.01783005
3572.15125488,0.01831344
3574.08006226,0.01813293
3576.00886963,0.01813742
3577.93767700,0.01811129
3579.86648437,0.01815325
3581.79529175,0.01812168
3583.72409912,0.01810133
3585.65290649,0.01766851
3587.58171387,0.01629716
3589.51052124,0.01683644
3591.43932861,0.01826825
3593.36813599,0.01771650
3595.29694336,0.01739215
3597.22575073,0.01777973
3599.15455811,0.01793219
3601.08336548,0.01772682
3603.01217285,0.01789040
3604.94098022,0.01820944
3606.86978760,0.01754894
3608.79859497,0.01655023
3610.72740234,0.01699640
3612.65620972,0.01735270
3614.58501709,0.01686018
3616.51382446,0.01801357
3618.44263184,0.01674265
3620.37143921,0.01622367
3622.30024658,0.01811613
3624.22905395,0.01772470
3626.15786133,0.01844643
3628.08666870,0.01565026
3630.01547607,0.01443497
3631.94428345,0.01801044
3633.87309082,0.01752635
3635.80189819,0.01771130
3637.73070557,0.01809428
3639.65951294,0.01788072
3641.58832031,0.01805155
3643.51712769,0.01788786
3645.44593506,0.01802161
3647.37474243,0.01617499
3649.30354980,0.01489433
3651.23235718,0.01511215
3653.16116455,0.01773811
3655.08997192,0.01761658
3657.01877930,0.01588190
3658.94758667,0.01803042
3660.87639404,0.01771372
3662.80520142,0.01793997
3664.73400879,0.01792203
3666.66281616,0.01769012
3668.59162354,0.01718448
3670.52043091,0.01428925
3672.44923828,0.01704862
3674.37804565,0.01631246
3676.30685303,0.01365744
3678.23566040,0.01695452
3680.16446777,0.01737623
3682.09327515,0.01738194
3684.02208252,0.01786483
3685.95088989,0.01751818
3687.87969727,0.01594195
3689.80850464,0.01470669
3691.73731201,0.01658344
3693.66611938,0.01710460
3695.59492676,0.01746737
3697.52373413,0.01744713
3699.45254150,0.01725721
3701.38134888,0.01691173
3703.31015625,0.01636881
3705.23896362,0.01786938
3707.16777100,0.01703716
3709.09657837,0.01659431
3711.02538574,0.01566212
3712.95419312,0.01468369
3714.88300049,0.01709984
3716.81180786,0.01690823
3718.74061523,0.01691146
3720.66942261,0.01662385
3722.59822998,0.01618265
3724.52703735,0.01668317
3726.45584473,0.01553568
3728.38465210,0.01682091
3730.31345947,0.01666179
3732.24226685,0.01536256
3734.17107422,0.01495049
3736.09988159,0.01428042
3738.02868896,0.01513330
3739.95749634,0.01627721
3741.88630371,0.01693387
3743.81511108,0.01327414
3745.74391846,0.01257591
3747.67272583,0.01616367
3749.60153320,0.01403957
3751.53034058,0.01295721
3753.45914795,0.01477220
3755.38795532,0.01590016
3757.31676270,0.01654943
3759.24557007,0.01537182
3761.17437744,0.01584008
3763.10318481,0.01682209
3765.03199219,0.01575267
3766.96079956,0.01600242
3768.88960693,0.01592677
3770.81841431,0.01527441
3772.74722168,0.01636619
3774.67602905,0.01634893
3776.60483643,0.01633029
3778.53364380,0.01592363
3780.46245117,0.01545152
3782.39125854,0.01645751
3784.32006592,0.01602207
3786.24887329,0.01593365
3788.17768066,0.01624371
3790.10648804,0.01615004
3792.03529541,0.01602264
3793.96410278,0.01625252
3795.89291016,0.01545072
3797.82171753,0.01525645
3799.75052490,0.01594241
3801.67933228,0.01277263
3803.60813965,0.01489250
3805.53694702,0.01610044
3807.46575439,0.01316908
3809.39456177,0.01590149
3811.32336914,0.01563647
3813.25217651,0.01612652
3815.18098389,0.01468606
3817.10979126,0.01292790
3819.03859863,0.01610855
3820.96740601,0.01316484
3822.89621338,0.01386254
3824.82502075,0.01607759
3826.75382812,0.01456672
3828.68263550,0.01567904
3830.61144287,0.01509575
3832.54025024,0.01451797
3834.46905762,0.01482956
3836.39786499,0.01418541
3838.32667236,0.01286711
3840.25547974,0.01394133
3842.18428711,0.01499149
3844.11309448,0.01427673
3846.04190186,0.01540713
3847.97070923,0.01521351
3849.89951660,0.01521780
3851.82832397,0.01368198
3853.75713135,0.01043503
3855.68593872,0.01228803
3857.61474609,0.01526595
3859.54355347,0.01490424
3861.47236084,0.01468545
3863.40116821,0.01437452
3865.32997559,0.01330871
3867.25878296,0.01489148
3869.18759033,0.01371853
3871.11639770,0.01260583
3873.04520508,0.01495050
3874.97401245,0.01379180
3876.90281982,0.01476702
3878.83162720,0.01503003
3880.76043457,0.01292009
3882.68924194,0.01476027
3884.61804932,0.01389439
3886.54685669,0.01286022
3888.47566406,0.01484953
3890.40447144,0.01414465
3892.33327881,0.01333755
3894.26208618,0.01447419
3896.19089355,0.01480171
3898.11970093,0.01409379
3900.04850830,0.01331218
3901.97731567,0.01326200
3903.90612305,0.01313926
3905.83493042,0.01332386
3907.76373779,0.01451616
3909.69254517,0.01445360
3911.62135254,0.01440138
3913.55015991,0.01456579
3915.47896728,0.01396117
3917.40777466,0.01375192
3919.33658203,0.01367475
3921.26538940,0.01407061
3923.19419678,0.01401185
3925.12300415,0.01381596
3927.05181152,0.01403844
3928.98061890,0.01415864
3930.90942627,0.01391743
3932.83823364,0.01333612
3934.76704102,0.01395062
3936.69584839,0.01413166
3938.62465576,0.01397463
3940.55346313,0.01419485
3942.48227051,0.01358326
3944.41107788,0.01367981
3946.33988525,0.01396715
3948.26869263,0.01362799
3950.19750000,0.01363246
3952.12630737,0.01382842
3954.05511475,0.01378584
3955.98392212,0.01378757
3957.91272949,0.01381526
3959.84153687,0.01372525
3961.77034424,0.01367138
3963.69915161,0.01360831
3965.62795898,0.01368947
3967.55676636,0.01363401
3969.48557373,0.01363805
3971.41438110,0.01360251
3973.34318848,0.01348098
3975.27199585,0.01350187
3977.20080322,0.01345236
3979.12961060,0.01352500
3981.05841797,0.01346339
3982.98722534,0.01352784
3984.91603271,0.01347305
3986.84484009,0.01337828
3988.77364746,0.01344164
3990.70245483,0.01326681
3992.63126221,0.01331725
3994.56006958,0.01327457
3996.48887695,0.01325202
3998.41768433,0.01322620
4000.34649170,0.01323577
4002.27529907,0.01330299
4004.20410645,0.01316760
4006.13291382,0.01318168
4008.06172119,0.01305849
4009.99052856,0.01312182
4011.91933594,0.01310605
4013.84814331,0.01301920
4015.77695068,0.01310390
4017.70575806,0.01294421
4019.63456543,0.01293730
4021.56337280,0.01300523
4023.49218018,0.01299201
4025.42098755,0.01286412
4027.34979492,0.01286289
4029.27860229,0.01280774
4031.20740967,0.01275682
4033.13621704,0.01282785
4035.06502441,0.01270532
4036.99383179,0.01280468
4038.92263916,0.01277156
4040.85144653,0.01270821
4042.78025391,0.01263158
4044.70906128,0.01260167
4046.63786865,0.01272400
4048.56667603,0.01257989
4050.49548340,0.01263055
4052.42429077,0.01255405
4054.35309814,0.01248868
4056.28190552,0.01254460
4058.21071289,0.01244463
4060.13952026,0.01243457
4062.06832764,0.01243817
4063.99713501,0.01243281
4065.92594238,0.01231172
4067.85474976,0.01239907
4069.78355713,0.01246635
4071.71236450,0.01234572
4073.64117187,0.01230921
4075.56997925,0.01233743
4077.49878662,0.01231193
4079.42759399,0.01218594
4081.35640137,0.01224927
4083.28520874,0.01222980
4085.21401611,0.01222682
4087.14282349,0.01215104
4089.07163086,0.01204082
4091.00043823,0.01212461
4092.92924561,0.01208502
4094.85805298,0.01210261
4096.78686035,0.01205028
4098.71566772,0.01200439
4100.64447510,0.01195199
4102.57328247,0.01198060
4104.50208984,0.01199568
4106.43089722,0.01188696
4108.35970459,0.01193666
4110.28851196,0.01181245
4112.21731934,0.01187114
4114.14612671,0.01191251
4116.07493408,0.01180867
4118.00374145,0.01178072
4119.93254883,0.01172254
4121.86135620,0.01178216
4123.79016357,0.01170947
4125.71897095,0.01166967
4127.64777832,0.01157353
4129.57658569,0.01160890
4131.50539307,0.01157359
4133.43420044,0.01143927
4135.36300781,0.01159816
4137.29181519,0.01148448
4139.22062256,0.01150195
4141.14942993,0.01154532
4143.07823730,0.01152258
4145.00704468,0.01150772
4146.93585205,0.01137232
4148.86465942,0.01145543
4150.79346680,0.01137820
4152.72227417,0.01139859
4154.65108154,0.01142102
4156.57988892,0.01128218
4158.50869629,0.01124079
4160.43750366,0.01121850
4162.36631103,0.01124340
4164.29511841,0.01117043
4166.22392578,0.01116197
4168.15273315,0.01115042
4170.08154053,0.01119335
4172.01034790,0.01116512
4173.93915527,0.01100904
4175.86796265,0.01108915
4177.79677002,0.01106845
4179.72557739,0.01096793
4181.65438477,0.01095255
4183.58319214,0.01089904
4185.51199951,0.01090959
4187.44080688,0.01100208
4189.36961426,0.01091640
4191.29842163,0.01077522
4193.22722900,0.01084177
4195.15603638,0.01087810
4197.08484375,0.01084525
4199.01365112,0.01083005
4200.94245850,0.01079396
4202.87126587,0.01073805
4204.80007324,0.01073610
4206.72888062,0.01071182
4208.65768799,0.01073013
4210.58649536,0.01071476
4212.51530273,0.01059903
4214.44411011,0.01062096
4216.37291748,0.01057267
4218.30172485,0.01058071
4220.23053223,0.01056692
4222.15933960,0.01052640
4224.08814697,0.01059192
4226.01695435,0.01052473
4227.94576172,0.01054869
4229.87456909,0.01048078
4231.80337646,0.01042868
4233.73218384,0.01043951
4235.66099121,0.01034234
4237.58979858,0.01036480
4239.51860596,0.01036708
4241.44741333,0.01033274
4243.37622070,0.01028491
4245.30502808,0.01022316
4247.23383545,0.01019330
4249.16264282,0.01029279
4251.09145020,0.01027042
4253.02025757,0.01022306
4254.94906494,0.01028880
4256.87787231,0.01017931
4258.80667969,0.01019100
4260.73548706,0.01013708
4262.66429443,0.01009178
4264.59310181,0.01007027
4266.52190918,0.01004513
4268.45071655,0.01010782
4270.37952393,0.00993214
4272.30833130,0.00998941
4274.23713867,0.00999702
4276.16594604,0.00990758
4278.09475342,0.00994335
4280.02356079,0.00988774
4281.95236816,0.00991676
4283.88117554,0.00982928
4285.80998291,0.00985460
4287.73879028,0.00990516
4289.66759766,0.00983343
4291.59640503,0.00984539
4293.52521240,0.00983783
4295.45401978,0.00974975
4297.38282715,0.00975656
4299.31163452,0.00977939
4301.24044189,0.00961552
4303.16924927,0.00968266
4305.09805664,0.00963623
4307.02686401,0.00961860
4308.95567139,0.00972318
4310.88447876,0.00956886
4312.81328613,0.00962703
4314.74209351,0.00951019
4316.67090088,0.00941936
4318.59970825,0.00954379
4320.52851562,0.00951358
4322.45732300,0.00944411
4324.38613037,0.00940938
4326.31493774,0.00946731
4328.24374512,0.00940086
4330.17255249,0.00939860
4332.10135986,0.00937534
4334.03016724,0.00939390
4335.95897461,0.00941312
4337.88778198,0.00930226
4339.81658936,0.00936677
4341.74539673,0.00928888
4343.67420410,0.00924497
4345.60301147,0.00920133
4347.53181885,0.00916169
4349.46062622,0.00919625
4351.38943359,0.00914422
4353.31824097,0.00920592
4355.24704834,0.00912718
4357.17585571,0.00913285
4359.10466309,0.00910495
4361.03347046,0.00901306
4362.96227783,0.00915066
4364.89108520,0.00907314
4366.81989258,0.00899046
4368.74869995,0.00904615
4370.67750732,0.00900291
4372.60631470,0.00900702
4374.53512207,0.00900927
4376.46392944,0.00890946
4378.39273682,0.00891049
4380.32154419,0.00885692
4382.25035156,0.00878929
4384.17915894,0.00885259
4386.10796631,0.00879933
4388.03677368,0.00883137
4389.96558105,0.00884730
4391.89438843,0.00877883
4393.82319580,0.00877471
4395.75200317,0.00873953
4397.68081055,0.00873810
4399.60961792,0.00870402
4401.53842529,0.00862884
4403.46723267,0.00865920
4405.39604004,0.00872117
4407.32484741,0.00858888
4409.25365478,0.00854189
4411.18246216,0.00857589
4413.11126953,0.00855537
4415.04007690,0.00861034
4416.96888428,0.00860759
4418.89769165,0.00858771
4420.82649902,0.00845661
4422.75530640,0.00852466
4424.68411377,0.00853605
4426.61292114,0.00835133
4428.54172852,0.00848253
4430.47053589,0.00841114
4432.39934326,0.00835809
4434.32815063,0.00841671
4436.25695801,0.00831327
4438.18576538,0.00827241
4440.11457275,0.00826593
4442.04338013,0.00836038
4443.97218750,0.00832613
4445.90099487,0.00820141
4447.82980225,0.00818815
4449.75860962,0.00821646
4451.68741699,0.00816012
4453.61622437,0.00811641
4455.54503174,0.00810474
4457.47383911,0.00805024
4459.40264648,0.00810570
4461.33145386,0.00809236
4463.26026123,0.00812610
4465.18906860,0.00810423
4467.11787598,0.00802824
4469.04668335,0.00804380
4470.97549072,0.00796507
4472.90429810,0.00797128
4474.83310547,0.00794067
4476.76191284,0.00796459
4478.69072021,0.00795199
4480.61952759,0.00790062
4482.54833496,0.00794811
4484.47714233,0.00785980
4486.40594971,0.00784949
4488.33475708,0.00780016
4490.26356445,0.00780864
4492.19237183,0.00784673
4494.12117920,0.00774052
4496.04998657,0.00778276
4497.97879395,0.00780526
4499.90760132,0.00770467
4501.83640869,0.00767611
4503.76521606,0.00773260
4505.69402344,0.00768213
4507.62283081,0.00770846
4509.55163818,0.00773585
4511.48044556,0.00760149
4513.40925293,0.00760184
4515.33806030,0.00760828
4517.26686768,0.00756003
4519.19567505,0.00751597
4521.12448242,0.00748580
4523.05328979,0.00749002
4524.98209717,0.00754809
4526.91090454,0.00754320
4528.83971191,0.00750615
4530.76851929,0.00754354
4532.69732666,0.00744711
4534.62613403,0.00743199
4536.55494141,0.00738970
4538.48374878,0.00735061
4540.41255615,0.00740166
4542.34136353,0.00729922
4544.27017090,0.00729764
4546.19897827,0.00726339
4548.12778564,0.00729948
4550.05659302,0.00737365
4551.98540039,0.00731268
4553.91420776,0.00731547
4555.84301514,0.00727220
4557.77182251,0.00725238
4559.70062988,0.00719626
4561.62943726,0.00725362
4563.55824463,0.00729926
4565.48705200,0.00713246
4567.41585937,0.00716201
4569.34466675,0.00718274
4571.27347412,0.00711643
4573.20228149,0.00712422
4575.13108887,0.00709319
4577.05989624,0.00705565
4578.98870361,0.00704416
4580.91751099,0.00705736
4582.84631836,0.00700508
4584.77512573,0.00695971
4586.70393311,0.00697521
4588.63274048,0.00690532
4590.56154785,0.00691283
4592.49035522,0.00696189
4594.41916260,0.00687733
4596.34796997,0.00688278
4598.27677734,0.00692995
4600.20558472,0.00692139
4602.13439209,0.00688329
4604.06319946,0.00679644
4605.99200684,0.00684302
4607.92081421,0.00692813
4609.84962158,0.00682929
4611.77842895,0.00676807
4613.70723633,0.00681409
4615.63604370,0.00675083
4617.56485107,0.00671597
4619.49365845,0.00665505
4621.42246582,0.00664034
4623.35127319,0.00672432
4625.28008057,0.00668078
4627.20888794,0.00670684
4629.13769531,0.00655914
4631.06650269,0.00652354
4632.99531006,0.00664059
4634.92411743,0.00653424
4636.85292480,0.00664109
4638.78173218,0.00655895
4640.71053955,0.00654115
4642.63934692,0.00666265
4644.56815430,0.00649222
4646.49696167,0.00653491
4648.42576904,0.00651144
4650.35457642,0.00643392
4652.28338379,0.00645275
4654.21219116,0.00642126
4656.14099853,0.00642149
4658.06980591,0.00639036
4659.99861328,0.00641336
4661.92742065,0.00640128
4663.85622803,0.00635735
4665.78503540,0.00637448
4667.71384277,0.00640130
4669.64265015,0.00634260
4671.57145752,0.00634095
4673.50026489,0.00630029
4675.42907227,0.00618671
4677.35787964,0.00630658
4679.28668701,0.00625040
4681.21549438,0.00617629
4683.14430176,0.00625201
4685.07310913,0.00617377
4687.00191650,0.00618722
4688.93072388,0.00619451
4690.85953125,0.00614302
4692.78833862,0.00608446
4694.71714600,0.00607559
4696.64595337,0.00617489
4698.57476074,0.00614879
4700.50356812,0.00607213
4702.43237549,0.00607125
4704.36118286,0.00605984
4706.28999023,0.00602494
4708.21879761,0.00598413
4710.14760498,0.00599921
4712.07641235,0.00605931
4714.00521973,0.00601994
4715.93402710,0.00596335
4717.86283447,0.00591803
4719.79164185,0.00592790
4721.72044922,0.00599282
4723.64925659,0.00594649
4725.57806396,0.00594094
4727.50687134,0.00591926
4729.43567871,0.00589857
4731.36448608,0.00587856
4733.29329346,0.00582544
4735.22210083,0.00591295
4737.15090820,0.00587340
4739.07971558,0.00581381
4741.00852295,0.00585777
4742.93733032,0.00580911
4744.86613770,0.00570834
4746.79494507,0.00563096
4748.72375244,0.00570201
4750.65255981,0.00576441
4752.58136719,0.00576962
4754.51017456,0.00580889
4756.43898193,0.00575977
4758.36778931,0.00571277
4760.29659668,0.00569870
4762.22540405,0.00561015
4764.15421143,0.00560141
4766.08301880,0.00563764
4768.01182617,0.00560785
4769.94063354,0.00563165
4771.86944092,0.00561961
4773.79824829,0.00554401
4775.72705566,0.00553315
4777.65586304,0.00558870
4779.58467041,0.00553317
4781.51347778,0.00548433
4783.44228516,0.00552980
4785.37109253,0.00546996
4787.29989990,0.00547401
4789.22870728,0.00545210
4791.15751465,0.00544750
4793.08632202,0.00550357
4795.01512939,0.00544008
4796.94393677,0.00539867
4798.87274414,0.00537569
4800.80155151,0.00542252
4802.73035889,0.00538836
4804.65916626,0.00538123
4806.58797363,0.00540130
4808.51678101,0.00534940
4810.44558838,0.00540698
4812.37439575,0.00529584
4814.30320312,0.00525850
4816.23201050,0.00528659
4818.16081787,0.00526390
4820.08962524,0.00527478
4822.01843262,0.00520451
4823.94723999,0.00525174
4825.87604736,0.00523363
4827.80485474,0.00526523
4829.73366211,0.00522733
4831.66246948,0.00506914
4833.59127686,0.00513835
4835.52008423,0.00516882
4837.44889160,0.00518367
4839.37769897,0.00514030
4841.30650635,0.00510258
4843.23531372,0.00518014
4845.16412109,0.00511479
4847.09292847,0.00502648
4849.02173584,0.00506438
4850.95054321,0.00507551
4852.87935059,0.00503864
4854.80815796,0.00505208
4856.73696533,0.00508016
4858.66577270,0.00507940
4860.59458008,0.00495202
4862.52338745,0.00496352
4864.45219482,0.00502831
4866.38100220,0.00495654
4868.30980957,0.00500534
4870.23861694,0.00493457
4872.16742432,0.00491091
4874.09623169,0.00495847
4876.02503906,0.00492838
4877.95384644,0.00493396
4879.88265381,0.00490208
4881.81146118,0.00489583
4883.74026855,0.00480680
4885.66907593,0.00482714
4887.59788330,0.00482900
4889.52669067,0.00477273
4891.45549805,0.00482019
4893.38430542,0.00478471
4895.31311279,0.00482659
4897.24192017,0.00478757
4899.17072754,0.00476706
4901.09953491,0.00478535
4903.02834228,0.00476046
4904.95714966,0.00475749
4906.88595703,0.00462704
4908.81476440,0.00464370
4910.74357178,0.00467006
4912.67237915,0.00468892
4914.60118652,0.00470656
4916.52999390,0.00460436
4918.45880127,0.00462495
4920.38760864,0.00462829
4922.31641602,0.00467637
4924.24522339,0.00470583
4926.17403076,0.00457590
4928.10283813,0.00454969
4930.03164551,0.00463610
4931.96045288,0.00459659
4933.88926025,0.00449319
4935.81806763,0.00457972
4937.74687500,0.00460054
4939.67568237,0.00450810
4941.60448975,0.00454352
4943.53329712,0.00449986
4945.46210449,0.00444306
4947.39091187,0.00451119
4949.31971924,0.00447342
4951.24852661,0.00444348
4953.17733398,0.00447130
4955.10614136,0.00446682
4957.03494873,0.00448184
4958.96375610,0.00442857
4960.89256348,0.00441626
4962.82137085,0.00438481
4964.75017822,0.00435695
4966.67898560,0.00441319
4968.60779297,0.00436067
4970.53660034,0.00432922
4972.46540771,0.00435074
4974.39421509,0.00434465
4976.32302246,0.00429636
4978.25182983,0.00429188
4980.18063721,0.00429864
4982.10944458,0.00426861
4984.03825195,0.00426251
4985.96705933,0.00422441
4987.89586670,0.00431415
4989.82467407,0.00431071
4991.75348145,0.00427292
4993.68228882,0.00428643
4995.61109619,0.00414122
4997.53990356,0.00418878
4999.46871094,0.00420208
5001.39751831,0.00414396
5003.32632568,0.00420520
5005.25513306,0.00416106
5007.18394043,0.00414225
5009.11274780,0.00415993
5011.04155518,0.00413017
5012.97036255,0.00409693
5014.89916992,0.00408774
5016.82797729,0.00406249
5018.75678467,0.00407285
5020.68559204,0.00404755
5022.61439941,0.00402944
5024.54320679,0.00408818
5026.47201416,0.00403079
5028.40082153,0.00405670
5030.32962891,0.00406087
5032.25843628,0.00400308
5034.18724365,0.00399241
5036.11605103,0.00396121
5038.04485840,0.00405506
5039.97366577,0.00401790
5041.90247314,0.00396536
5043.83128052,0.00398499
5045.76008789,0.00395027
5047.68889526,0.00398414
5049.61770264,0.00392519
5051.54651001,0.00391634
5053.47531738,0.00393330
5055.40412476,0.00394987
5057.33293213,0.00398384
5059.26173950,0.00386537
5061.19054687,0.00384521
5063.11935425,0.00382274
5065.04816162,0.00380579
5066.97696899,0.00386152
5068.90577637,0.00384786
5070.83458374,0.00388464
5072.76339111,0.00379379
5074.69219849,0.00376348
5076.62100586,0.00380492
5078.54981323,0.00372756
5080.47862061,0.00375740
5082.40742798,0.00371243
5084.33623535,0.00372351
5086.26504272,0.00376483
5088.19385010,0.00373688
5090.12265747,0.00376560
5092.05146484,0.00368321
5093.98027222,0.00368790
5095.90907959,0.00365539
5097.83788696,0.00365469
5099.76669434,0.00370767
5101.69550171,0.00362203
5103.62430908,0.00368538
5105.55311645,0.00364185
5107.48192383,0.00361731
5109.41073120,0.00367013
5111.33953857,0.00360825
5113.26834595,0.00365907
5115.19715332,0.00361607
5117.12596069,0.00357616
5119.05476807,0.00361027
5120.98357544,0.00353631
5122.91238281,0.00352049
5124.84119019,0.00356781
5126.76999756,0.00354716
5128.69880493,0.00357275
5130.62761230,0.00358870
5132.55641968,0.00350251
5134.48522705,0.00349332
5136.41403442,0.00348234
5138.34284180,0.00348061
5140.27164917,0.00345596
5142.20045654,0.00343936
5144.12926392,0.00347896
5146.05807129,0.00342692
5147.98687866,0.00346965
5149.91568603,0.00349574
5151.84449341,0.00343030
5153.77330078,0.00338753
5155.70210815,0.00342469
5157.63091553,0.00341963
5159.55972290,0.00334801
5161.48853027,0.00343781
5163.41733765,0.00338728
5165.34614502,0.00337155
5167.27495239,0.00345096
5169.20375977,0.00338922
5171.13256714,0.00332962
5173.06137451,0.00325505
5174.99018188,0.00328332
5176.91898926,0.00326968
5178.84779663,0.00328786
5180.77660400,0.00331779
5182.70541138,0.00328016
5184.63421875,0.00330319
5186.56302612,0.00323529
5188.49183350,0.00330481
5190.42064087,0.00329862
5192.34944824,0.00319793
5194.27825562,0.00326866
5196.20706299,0.00325003
5198.13587036,0.00325178
5200.06467773,0.00327836
5201.99348511,0.00321521
5203.92229248,0.00317974
5205.85109985,0.00316374
5207.77990723,0.00312529
5209.70871460,0.00314252
5211.63752197,0.00312765
5213.56632935,0.00308500
5215.49513672,0.00307964
5217.42394409,0.00307158
5219.35275146,0.00312262
5221.28155884,0.00312507
5223.21036621,0.00315366
5225.13917358,0.00308988
5227.06798096,0.00306313
5228.99678833,0.00320282
5230.92559570,0.00309535
5232.85440308,0.00304123
5234.78321045,0.00310959
5236.71201782,0.00311800
5238.64082520,0.00304825
5240.56963257,0.00302908
5242.49843994,0.00310395
5244.42724731,0.00298835
5246.35605469,0.00298249
5248.28486206,0.00293754
5250.21366943,0.00291664
5252.14247681,0.00305984
5254.07128418,0.00295333
5256.00009155,0.00291322
5257.92889893,0.00297512
5259.85770630,0.00300106
5261.78651367,0.00296599
5263.71532104,0.00288324
5265.64412842,0.00289329
5267.57293579,0.00292333
5269.50174316,0.00293408
5271.43055054,0.00291334
5273.35935791,0.00295252
5275.28816528,0.00289584
5277.21697266,0.00288581
5279.14578003,0.00295434
5281.07458740,0.00291604
5283.00339478,0.00297148
5284.93220215,0.00285989
5286.86100952,0.00283019
5288.78981689,0.00288146
5290.71862427,0.00270956
5292.64743164,0.00279964
5294.57623901,0.00289210
5296.50504639,0.00283768
5298.43385376,0.00283034
5300.36266113,0.00281872
5302.29146851,0.00284784
5304.22027588,0.00278161
5306.14908325,0.00276118
5308.07789062,0.00278123
5310.00669800,0.00277392
5311.93550537,0.00279675
5313.86431274,0.00280556
5315.79312012,0.00285428
5317.72192749,0.00279429
5319.65073486,0.00274724
5321.57954224,0.00276434
5323.50834961,0.00273590
5325.43715698,0.00271317
5327.36596436,0.00262233
5329.29477173,0.00266068
5331.22357910,0.00276030
5333.15238647,0.00272856
5335.08119385,0.00272341
5337.01000122,0.00271003
5338.93880859,0.00259388
5340.86761597,0.00267519
5342.79642334,0.00282240
5344.72523071,0.00255475
5346.65403809,0.00246467
5348.58284546,0.00264216
5350.51165283,0.00266095
5352.44046020,0.00261237
5354.36926758,0.00246412
5356.29807495,0.00251403
5358.22688232,0.00263949
5360.15568970,0.00266099
5362.08449707,0.00263399
5364.01330444,0.00258387
5365.94211182,0.00259862
5367.87091919,0.00255026
5369.79972656,0.00260281
5371.72853394,0.00255614
5373.65734131,0.00251012
5375.58614868,0.00255088
5377.51495605,0.00247651
5379.44376343,0.00253759
5381.37257080,0.00254215
5383.30137817,0.00255202
5385.23018555,0.00249536
5387.15899292,0.00241510
5389.08780029,0.00254864
5391.01660767,0.00255760
5392.94541504,0.00245860
5394.87422241,0.00245269
5396.80302978,0.00252546
5398.73183716,0.00245876
5400.66064453,0.00252938
5402.58945190,0.00256514
5404.51825928,0.00235538
5406.44706665,0.00241319
5408.37587402,0.00242866
5410.30468140,0.00239616
5412.23348877,0.00237526
5414.16229614,0.00233429
5416.09110352,0.00241978
5418.01991089,0.00242430
5419.94871826,0.00240340
5421.87752563,0.00239138
5423.80633301,0.00245354
5425.73514038,0.00240837
5427.66394775,0.00235032
5429.59275513,0.00236724
5431.52156250,0.00233833
5433.45036987,0.00241461
5435.37917725,0.00233244
5437.30798462,0.00235436
5439.23679199,0.00241709
5441.16559936,0.00225909
5443.09440674,0.00226033
5445.02321411,0.00226137
5446.95202148,0.00227874
5448.88082886,0.00231514
5450.80963623,0.00226072
5452.73844360,0.00231535
5454.66725098,0.00231835
5456.59605835,0.00228259
5458.52486572,0.00229835
5460.45367310,0.00222084
5462.38248047,0.00226759
5464.31128784,0.00228401
5466.24009521,0.00224502
5468.16890259,0.00228499
5470.09770996,0.00214094
5472.02651733,0.00223640
5473.95532471,0.00229927
5475.88413208,0.00215558
5477.81293945,0.00219336
5479.74174683,0.00215113
5481.67055420,0.00221494
5483.59936157,0.00218273
5485.52816895,0.00211944
5487.45697632,0.00218042
5489.38578369,0.00216704
5491.31459106,0.00220446
5493.24339844,0.00212536
5495.17220581,0.00217604
5497.10101318,0.00221993
5499.02982056,0.00214288
5500.95862793,0.00211701
5502.88743530,0.00209947
5504.81624268,0.00215521
5506.74505005,0.00213226
5508.67385742,0.00219384
5510.60266479,0.00214880
5512.53147217,0.00209331
5514.46027954,0.00215099
5516.38908691,0.00204469
5518.31789429,0.00208114
5520.24670166,0.00213228
5522.17550903,0.00206769
5524.10431641,0.00199251
5526.03312378,0.00200953
5527.96193115,0.00203604
5529.89073853,0.00199285
5531.81954590,0.00204222
5533.74835327,0.00200353
5535.67716064,0.00194108
5537.60596802,0.00194079
5539.53477539,0.00199285
5541.46358276,0.00201411
5543.39239014,0.00204392
5545.32119751,0.00207220
5547.25000488,0.00195625
5549.17881226,0.00201792
5551.10761963,0.00206316
5553.03642700,0.00201045
5554.96523437,0.00201681
5556.89404175,0.00204368
5558.82284912,0.00206174
5560.75165649,0.00191546
5562.68046387,0.00194351
5564.60927124,0.00201914
5566.53807861,0.00195543
5568.46688599,0.00198027
5570.39569336,0.00195383
5572.32450073,0.00193946
5574.25330811,0.00195262
5576.18211548,0.00189588
5578.11092285,0.00192357
5580.03973022,0.00198136
5581.96853760,0.00188746
5583.89734497,0.00187339
5585.82615234,0.00189459
5587.75495972,0.00184896
5589.68376709,0.00189030
5591.61257446,0.00183713
5593.54138184,0.00183537
5595.47018921,0.00184907
5597.39899658,0.00181709
5599.32780395,0.00190062
5601.25661133,0.00187116
5603.18541870,0.00183162
5605.11422607,0.00180578
5607.04303345,0.00180859
5608.97184082,0.00187555
5610.90064819,0.00181582
5612.82945557,0.00182639
5614.75826294,0.00185649
5616.68707031,0.00182250
5618.61587769,0.00183134
5620.54468506,0.00179823
5622.47349243,0.00182721
5624.40229980,0.00184005
5626.33110718,0.00181799
5628.25991455,0.00186208
5630.18872192,0.00178626
5632.11752930,0.00175997
5634.04633667,0.00181348
5635.97514404,0.00176488
5637.90395142,0.00177025
5639.83275879,0.00179095
5641.76156616,0.00177393
5643.69037353,0.00175024
5645.61918091,0.00170446
5647.54798828,0.00172902
5649.47679565,0.00178193
5651.40560303,0.00175086
5653.33441040,0.00172265
5655.26321777,0.00174126
5657.19202515,0.00176997
5659.12083252,0.00175510
5661.04963989,0.00169129
5662.97844727,0.00174809
5664.90725464,0.00172862
5666.83606201,0.00168105
5668.76486938,0.00173658
5670.69367676,0.00167239
5672.62248413,0.00173291
5674.55129150,0.00171912
5676.48009888,0.00164072
5678.40890625,0.00168977
5680.33771362,0.00161114
5682.26652100,0.00166564
5684.19532837,0.00163272
5686.12413574,0.00155582
5688.05294311,0.00166484
5689.98175049,0.00161068
5691.91055786,0.00160479
5693.83936523,0.00163130
5695.76817261,0.00160417
5697.69697998,0.00166509
5699.62578735,0.00164882
5701.55459473,0.00156720
5703.48340210,0.00156796
5705.41220947,0.00162478
5707.34101685,0.00161681
5709.26982422,0.00159622
5711.19863159,0.00162007
5713.12743896,0.00156138
5715.05624634,0.00150553
5716.98505371,0.00159017
5718.91386108,0.00161357
5720.84266846,0.00160410
5722.77147583,0.00160686
5724.70028320,0.00149561
5726.62909058,0.00150678
5728.55789795,0.00157270
5730.48670532,0.00157322
5732.41551270,0.00158133
5734.34432007,0.00150498
5736.27312744,0.00146725
5738.20193481,0.00143297
5740.13074219,0.00144300
5742.05954956,0.00152242
5743.98835693,0.00145223
5745.91716431,0.00148851
5747.84597168,0.00155070
5749.77477905,0.00146848
5751.70358643,0.00148432
5753.63239380,0.00145495
5755.56120117,0.00144248
5757.49000854,0.00146992
5759.41881592,0.00150200
5761.34762329,0.00157033
5763.27643066,0.00144543
5765.20523804,0.00143854
5767.13404541,0.00152464
5769.06285278,0.00146217
5770.99166016,0.00141333
5772.92046753,0.00140050
5774.84927490,0.00144610
5776.77808228,0.00143455
5778.70688965,0.00147031
5780.63569702,0.00149335
5782.56450439,0.00145220
5784.49331177,0.00143987
5786.42211914,0.00140176
5788.35092651,0.00142425
5790.27973389,0.00139881
5792.20854126,0.00146504
5794.13734863,0.00138684
5796.06615601,0.00126073
5797.99496338,0.00139144
5799.92377075,0.00135662
5801.85257812,0.00140433
5803.78138550,0.00137778
5805.71019287,0.00129806
5807.63900024,0.00140396
5809.56780762,0.00137091
5811.49661499,0.00135307
5813.42542236,0.00130789
5815.35422974,0.00136235
5817.28303711,0.00138701
5819.21184448,0.00129107
5821.14065186,0.00136394
5823.06945923,0.00135996
5824.99826660,0.00132898
5826.92707397,0.00133517
5828.85588135,0.00134598
5830.78468872,0.00135139
5832.71349609,0.00130533
5834.64230347,0.00130073
5836.57111084,0.00129218
5838.49991821,0.00128293
5840.42872559,0.00131526
5842.35753296,0.00132572
5844.28634033,0.00129864
5846.21514770,0.00133690
5848.14395508,0.00129586
5850.07276245,0.00126928
5852.00156982,0.00133588
5853.93037720,0.00123547
5855.85918457,0.00121063
5857.78799194,0.00129986
5859.71679932,0.00130096
5861.64560669,0.00122984
5863.57441406,0.00121448
5865.50322144,0.00126323
5867.43202881,0.00122462
5869.36083618,0.00126677
5871.28964355,0.00131175
5873.21845093,0.00121077
5875.14725830,0.00117996
5877.07606567,0.00124931
5879.00487305,0.00122969
5880.93368042,0.00117577
5882.86248779,0.00121286
5884.79129517,0.00120328
5886.72010254,0.00119001
5888.64890991,0.00124373
5890.57771728,0.00124504
5892.50652466,0.00118028
5894.43533203,0.00117397
5896.36413940,0.00120016
5898.29294678,0.00118128
5900.22175415,0.00118423
5902.15056152,0.00119419
5904.07936890,0.00118681
5906.00817627,0.00114453
5907.93698364,0.00118375
5909.86579102,0.00121537
5911.79459839,0.00116684
5913.72340576,0.00122218
5915.65221313,0.00119778
5917.58102051,0.00116388
5919.50982788,0.00122343
5921.43863525,0.00119632
5923.36744263,0.00114077
5925.29625000,0.00112868
5927.22505737,0.00111618
5929.15386475,0.00112945
5931.08267212,0.00117162
5933.01147949,0.00113930
5934.94028686,0.00115103
5936.86909424,0.00106831
5938.79790161,0.00102829
5940.72670898,0.00121875
5942.65551636,0.00114911
5944.58432373,0.00109711
5946.51313110,0.00113676
5948.44193848,0.00106390
5950.37074585,0.00112547
5952.29955322,0.00104990
5954.22836060,0.00101717
5956.15716797,0.00113447
5958.08597534,0.00107768
5960.01478271,0.00108667
5961.94359009,0.00107995
5963.87239746,0.00104796
5965.80120483,0.00112155
5967.73001221,0.00102978
5969.65881958,0.00103387
5971.58762695,0.00109431
5973.51643433,0.00103912
5975.44524170,0.00105877
5977.37404907,0.00101924
5979.30285645,0.00106076
5981.23166382,0.00103096
5983.16047119,0.00100068
5985.08927856,0.00109687
5987.01808594,0.00101624
5988.94689331,0.00105672
5990.87570068,0.00109667
5992.80450806,0.00105885
5994.73331543,0.00101209
5996.66212280,0.00096274
5998.59093018,0.00105994
6000.51973755,0.00101096
