399.26312622,0.00008503
401.19193359,0.00007880
403.12074097,0.00018781
405.04954834,-0.00007526
406.97835571,0.00012513
408.90716309,-0.00002952
410.83597046,0.00018788
412.76477783,0.00043358
414.69358521,-0.00003023
416.62239258,0.00016871
418.55119995,0.00013947
420.48000732,0.00005598
422.40881470,0.00023163
424.33762207,0.00028039
426.26642944,0.00004906
428.19523682,-0.00018765
430.12404419,0.00005696
432.05285156,0.00020635
433.98165894,0.00021865
435.91046631,0.00028576
437.83927368,0.00032076
439.76808105,0.00018723
441.69688843,0.00026113
443.62569580,0.00026627
445.55450317,-0.00000922
447.48331055,0.00016214
449.41211792,0.00008713
451.34092529,-0.00002110
453.26973267,0.00026624
455.19854004,0.00032542
457.12734741,0.00022489
459.05615479,0.00010874
460.98496216,0.00022484
462.91376953,0.00024524
464.84257690,0.00011904
466.77138428,0.00009169
468.70019165,0.00014583
470.62899902,0.00020161
472.55780640,-0.00008721
474.48661377,0.00000481
476.41542114,0.00019170
478.34422852,-0.00000733
480.27303589,0.00011457
482.20184326,0.00016571
484.13065063,0.00005954
486.05945801,-0.00003498
487.98826538,-0.00007608
489.91707275,0.00003024
491.84588013,0.00003802
493.77468750,0.00007344
495.70349487,0.00023811
497.63230225,0.00018219
499.56110962,-0.00006218
501.48991699,-0.00003739
503.41872437,0.00003271
505.34753174,0.00023658
507.27633911,0.00031505
509.20514648,0.00015715
511.13395386,0.00017555
513.06276123,0.00020490
514.99156860,0.00028259
516.92037598,0.00022212
518.84918335,0.00016932
520.77799072,0.00010186
522.70679810,0.00013744
524.63560547,0.00030161
526.56441284,0.00020658
528.49322021,0.00016398
530.42202759,0.00011992
532.35083496,0.00005896
534.27964233,-0.00009929
536.20844971,-0.00015364
538.13725708,0.00006220
540.06606445,0.00016057
541.99487183,0.00016889
543.92367920,-0.00004605
545.85248657,0.00008745
547.78129395,0.00021802
549.71010132,0.00005321
551.63890869,0.00027720
553.56771606,0.00026605
555.49652344,0.00013039
557.42533081,0.00018774
559.35413818,0.00017258
561.28294556,0.00013178
563.21175293,0.00013225
565.14056030,0.00002833
567.06936768,-0.00009332
568.99817505,0.00005531
570.92698242,0.00014470
572.85578979,0.00018250
574.78459717,0.00004545
576.71340454,0.00002049
578.64221191,0.00021335
580.57101929,0.00008427
582.49982666,0.00004760
584.42863403,-0.00003050
586.35744141,0.00009800
588.28624878,0.00020279
590.21505615,0.00001160
592.14386353,0.00020110
594.07267090,0.00009316
596.00147827,0.00013837
597.93028564,0.00032917
599.85909302,0.00003061
601.78790039,0.00010471
603.71670776,0.00010254
605.64551514,0.00003246
607.57432251,0.00018490
609.50312988,0.00014750
611.43193726,0.00028445
613.36074463,0.00027063
615.28955200,0.00012508
617.21835938,0.00013597
619.14716675,0.00006807
621.07597412,0.00010676
623.00478149,0.00014722
624.93358887,0.00017081
626.86239624,0.00015839
628.79120361,0.00005583
630.72001099,0.00014779
632.64881836,0.00030539
634.57762573,0.00016399
636.50643311,0.00011433
638.43524048,0.00028799
640.36404785,0.00014819
642.29285522,0.00003146
644.22166260,0.00002691
646.15046997,0.00012315
648.07927734,0.00037559
650.00808472,-0.00002988
651.93689209,-0.00010026
653.86569946,0.00029550
655.79450684,0.00000685
657.72331421,0.00013020
659.65212158,0.00028001
661.58092896,-0.00005292
663.50973633,-0.00004753
665.43854370,0.00003428
667.36735107,0.00005436
669.29615845,0.00010110
671.22496582,0.00035897
673.15377319,0.00024851
675.08258057,-0.00006698
677.01138794,0.00016878
678.94019531,0.00027946
680.86900269,0.00016706
682.79781006,0.00007436
684.72661743,0.00010023
686.65542480,0.00014905
688.58423218,0.00010265
690.51303955,0.00011733
692.44184692,0.00013362
694.37065430,0.00011208
696.29946167,-0.00004084
698.22826904,-0.00005037
700.15707642,0.00014683
702.08588379,0.00009858
704.01469116,0.00000396
705.94349854,0.00018290
707.87230591,0.00009964
709.80111328,-0.00012253
711.72992065,-0.00001150
713.65872803,0.00005342
715.58753540,0.00016335
717.51634277,0.00027999
719.44515015,0.00018380
721.37395752,0.00019670
723.30276489,0.00004963
725.23157227,0.00002981
727.16037964,0.00022316
729.08918701,0.00008987
731.01799438,0.00006397
732.94680176,0.00023480
734.87560913,0.00029250
736.80441650,0.00014792
738.73322388,0.00016229
740.66203125,0.00030651
742.59083862,0.00010045
744.51964600,0.00003107
746.44845337,0.00019782
748.37726074,0.00007761
750.30606812,-0.00001439
752.23487549,0.00015294
754.16368286,0.00027043
756.09249023,0.00031048
758.02129761,0.00012916
759.95010498,0.00009855
761.87891235,0.00026391
763.80771973,0.00011567
765.73652710,0.00006490
767.66533447,0.00010528
769.59414185,0.00016726
771.52294922,0.00019201
773.45175659,0.00015645
775.38056396,0.00030543
777.30937134,0.00018062
779.23817871,0.00003346
781.16698608,0.00016960
783.09579346,0.00018302
785.02460083,0.00013436
786.95340820,0.00013665
788.88221558,0.00025622
790.81102295,0.00035561
792.73983032,0.00021933
794.66863770,0.00008752
796.59744507,0.00013480
798.52625244,0.00018256
800.45505981,0.00019523
802.38386719,0.00018464
804.31267456,0.00007994
806.24148193,0.00020752
808.17028931,0.00029089
810.09909668,0.00001570
812.02790405,0.00003769
813.95671143,0.00026603
815.88551880,0.00021168
817.81432617,0.00014269
819.74313354,0.00003085
821.67194092,-0.00006461
823.60074829,0.00015962
825.52955566,0.00022071
827.45836304,0.00019511
829.38717041,0.00021943
831.31597778,0.00006919
833.24478516,0.00009848
835.17359253,0.00011475
837.10239990,0.00007700
839.03120728,0.00020096
840.96001465,0.00029989
842.88882202,0.00029562
844.81762939,0.00006882
846.74643677,0.00013365
848.67524414,0.00039216
850.60405151,0.00020058
852.53285889,0.00012909
854.46166626,0.00020318
856.39047363,0.00035459
858.31928101,0.00048358
860.24808838,0.00016145
862.17689575,0.00012374
864.10570313,0.00018757
866.03451050,0.00011996
867.96331787,0.00029641
869.89212524,0.00016941
871.82093262,0.00009236
873.74973999,0.00026772
875.67854736,0.00023098
877.60735474,0.00030310
879.53616211,0.00029516
881.46496948,0.00007551
883.39377686,0.00013070
885.32258423,0.00031002
887.25139160,0.00018389
889.18019897,0.00004694
891.10900635,0.00031621
893.03781372,0.00036336
894.96662109,0.00022407
896.89542847,0.00032170
898.82423584,0.00022590
900.75304321,0.00028971
902.68185059,0.00029398
904.61065796,0.00013397
906.53946533,0.00032021
908.46827271,0.00016330
910.39708008,0.00014689
912.32588745,0.00045520
914.25469482,0.00024780
916.18350220,0.00022131
918.11230957,0.00039832
920.04111694,0.00023835
921.96992432,0.00019502
923.89873169,0.00036082
925.82753906,0.00037704
927.75634644,0.00032880
929.68515381,0.00032444
931.61396118,0.00022320
933.54276855,0.00019159
935.47157593,0.00016129
937.40038330,0.00014853
939.32919067,0.00024882
941.25799805,0.00021670
943.18680542,0.00026376
945.11561279,0.00033114
947.04442017,0.00036358
948.97322754,0.00033279
950.90203491,0.00010216
952.83084229,0.00024108
954.75964966,0.00042948
956.68845703,0.00027671
958.61726440,0.00015106
960.54607178,0.00010531
962.47487915,0.00027302
964.40368652,0.00035865
966.33249390,0.00019311
968.26130127,0.00031089
970.19010864,0.00049517
972.11891602,0.00031833
974.04772339,0.00025237
975.97653076,0.00026646
977.90533813,0.00023821
979.83414551,0.00036089
981.76295288,0.00040673
983.69176025,0.00041901
985.62056763,0.00026055
987.54937500,0.00034079
989.47818237,0.00045615
991.40698975,0.00023610
993.33579712,0.00042859
995.26460449,0.00026018
997.19341187,0.00022171
999.12221924,0.00060429
1001.05102661,0.00033178
1002.97983398,0.00047295
1004.90864136,0.00058124
1006.83744873,0.00025429
1008.76625610,0.00044116
1010.69506348,0.00056424
1012.62387085,0.00054562
1014.55267822,0.00058922
1016.48148560,0.00060225
1018.41029297,0.00064222
1020.33910034,0.00061156
1022.26790771,0.00068547
1024.19671509,0.00072573
1026.12552246,0.00061399
1028.05432983,0.00050293
1029.98313721,0.00048137
1031.91194458,0.00072105
1033.84075195,0.00066969
1035.76955933,0.00056816
1037.69836670,0.00083941
1039.62717407,0.00070278
1041.55598145,0.00059606
1043.48478882,0.00063453
1045.41359619,0.00053672
1047.34240356,0.00066662
1049.27121094,0.00064213
1051.20001831,0.00057923
1053.12882568,0.00068551
1055.05763306,0.00079361
1056.98644043,0.00078354
1058.91524780,0.00072868
1060.84405518,0.00073671
1062.77286255,0.00069594
1064.70166992,0.00074482
1066.63047729,0.00069945
1068.55928467,0.00075124
1070.48809204,0.00073741
1072.41689941,0.00066489
1074.34570679,0.00080811
1076.27451416,0.00047869
1078.20332153,0.00045668
1080.13212891,0.00065592
1082.06093628,0.00049997
1083.98974365,0.00063571
1085.91855103,0.00057636
1087.84735840,0.00044834
1089.77616577,0.00053099
1091.70497314,0.00056389
1093.63378052,0.00055133
1095.56258789,0.00053414
1097.49139526,0.00058276
1099.42020264,0.00064144
1101.34901001,0.00059006
1103.27781738,0.00029274
1105.20662476,0.00021136
1107.13543213,0.00039512
1109.06423950,0.00052496
1110.99304687,0.00058922
1112.92185425,0.00047561
1114.85066162,0.00043483
1116.77946899,0.00056739
1118.70827637,0.00064610
1120.63708374,0.00062637
1122.56589111,0.00056904
1124.49469849,0.00054377
1126.42350586,0.00066442
1128.35231323,0.00064850
1130.28112061,0.00052910
1132.20992798,0.00062386
1134.13873535,0.00066318
1136.06754272,0.00066910
1137.99635010,0.00066560
1139.92515747,0.00073536
1141.85396484,0.00077518
1143.78277222,0.00069558
1145.71157959,0.00082540
1147.64038696,0.00069945
1149.56919434,0.00048824
1151.49800171,0.00059392
1153.42680908,0.00065202
1155.35561646,0.00080424
1157.28442383,0.00088955
1159.21323120,0.00077018
1161.14203857,0.00085432
1163.07084595,0.00092150
1164.99965332,0.00095152
1166.92846069,0.00105904
1168.85726807,0.00086909
1170.78607544,0.00084318
1172.71488281,0.00100665
1174.64369019,0.00091121
1176.57249756,0.00095281
1178.50130493,0.00105946
1180.43011230,0.00109278
1182.35891968,0.00118545
1184.28772705,0.00117050
1186.21653442,0.00108141
1188.14534180,0.00110890
1190.07414917,0.00108466
1192.00295654,0.00113116
1193.93176392,0.00130598
1195.86057129,0.00122356
1197.78937866,0.00125722
1199.71818604,0.00144305
1201.64699341,0.00151967
1203.57580078,0.00157774
1205.50460815,0.00160069
1207.43341553,0.00160589
1209.36222290,0.00157199
1211.29103027,0.00167137
1213.21983765,0.00167911
1215.14864502,0.00174544
1217.07745239,0.00182232
1219.00625977,0.00169305
1220.93506714,0.00190582
1222.86387451,0.00187620
1224.79268188,0.00180259
1226.72148926,0.00197368
1228.65029663,0.00174699
1230.57910400,0.00192010
1232.50791138,0.00221079
1234.43671875,0.00199449
1236.36552612,0.00197225
1238.29433350,0.00192954
1240.22314087,0.00184874
1242.15194824,0.00200239
1244.08075562,0.00186865
1246.00956299,0.00183112
1247.93837036,0.00204756
1249.86717773,0.00191806
1251.79598511,0.00191339
1253.72479248,0.00205766
1255.65359985,0.00195834
1257.58240723,0.00184236
1259.51121460,0.00186769
1261.44002197,0.00195299
1263.36882935,0.00181005
1265.29763672,0.00179851
1267.22644409,0.00193194
1269.15525146,0.00167721
1271.08405884,0.00165822
1273.01286621,0.00189965
1274.94167358,0.00178834
1276.87048096,0.00169756
1278.79928833,0.00168119
1280.72809570,0.00170197
1282.65690308,0.00174768
1284.58571045,0.00162050
1286.51451782,0.00167120
1288.44332520,0.00172421
1290.37213257,0.00166596
1292.30093994,0.00175392
1294.22974731,0.00165238
1296.15855469,0.00145786
1298.08736206,0.00160401
1300.01616943,0.00176497
1301.94497681,0.00161097
1303.87378418,0.00160888
1305.80259155,0.00176037
1307.73139893,0.00169481
1309.66020630,0.00166795
1311.58901367,0.00189943
1313.51782104,0.00194586
1315.44662842,0.00171144
1317.37543579,0.00184377
1319.30424316,0.00191337
1321.23305054,0.00191628
1323.16185791,0.00211563
1325.09066528,0.00199860
1327.01947266,0.00208785
1328.94828003,0.00213434
1330.87708740,0.00209199
1332.80589478,0.00223273
1334.73470215,0.00212372
1336.66350952,0.00222500
1338.59231689,0.00224686
1340.52112427,0.00214166
1342.44993164,0.00234814
1344.37873901,0.00251057
1346.30754639,0.00248120
1348.23635376,0.00234938
1350.16516113,0.00237105
1352.09396851,0.00237575
1354.02277588,0.00220365
1355.95158325,0.00220777
1357.88039062,0.00232451
1359.80919800,0.00229158
1361.73800537,0.00239223
1363.66681274,0.00239924
1365.59562012,0.00223160
1367.52442749,0.00232858
1369.45323486,0.00224032
1371.38204224,0.00222000
1373.31084961,0.00230125
1375.23965698,0.00224212
1377.16846436,0.00236179
1379.09727173,0.00231920
1381.02607910,0.00233020
1382.95488647,0.00237815
1384.88369385,0.00236935
1386.81250122,0.00233395
1388.74130859,0.00223904
1390.67011597,0.00246963
1392.59892334,0.00244413
1394.52773071,0.00230657
1396.45653809,0.00248953
1398.38534546,0.00241701
1400.31415283,0.00239961
1402.24296021,0.00252507
1404.17176758,0.00236202
1406.10057495,0.00237170
1408.02938232,0.00244939
1409.95818970,0.00235867
1411.88699707,0.00245701
1413.81580444,0.00255564
1415.74461182,0.00257955
1417.67341919,0.00219705
1419.60222656,0.00202204
1421.53103394,0.00244627
1423.45984131,0.00230460
1425.38864868,0.00224814
1427.31745605,0.00243249
1429.24626343,0.00225568
1431.17507080,0.00222156
1433.10387817,0.00224479
1435.03268555,0.00207406
1436.96149292,0.00178632
1438.89030029,0.00178349
1440.81910767,0.00194436
1442.74791504,0.00205486
1444.67672241,0.00215581
1446.60552979,0.00208752
1448.53433716,0.00200050
1450.46314453,0.00200118
1452.39195190,0.00206852
1454.32075928,0.00203276
1456.24956665,0.00189330
1458.17837402,0.00185563
1460.10718140,0.00209130
1462.03598877,0.00236449
1463.96479614,0.00241609
1465.89360352,0.00251078
1467.82241089,0.00275714
1469.75121826,0.00277729
1471.68002563,0.00251641
1473.60883301,0.00272999
1475.53764038,0.00297835
1477.46644775,0.00315025
1479.39525513,0.00349593
1481.32406250,0.00346163
1483.25286987,0.00359509
1485.18167725,0.00362463
1487.11048462,0.00369719
1489.03929199,0.00371425
1490.96809937,0.00354591
1492.89690674,0.00421782
1494.82571411,0.00421546
1496.75452148,0.00391233
1498.68332886,0.00432203
1500.61213623,0.00430648
1502.54094360,0.00462821
1504.46975098,0.00434493
1506.39855835,0.00329930
1508.32736572,0.00392638
1510.25617310,0.00443132
1512.18498047,0.00429721
1514.11378784,0.00467165
1516.04259521,0.00428389
1517.97140259,0.00453622
1519.90020996,0.00448770
1521.82901733,0.00396159
1523.75782471,0.00465929
1525.68663208,0.00449800
1527.61543945,0.00458883
1529.54424683,0.00498993
1531.47305420,0.00478916
1533.40186157,0.00460813
1535.33066895,0.00480566
1537.25947632,0.00507514
1539.18828369,0.00384465
1541.11709106,0.00414273
1543.04589844,0.00471335
1544.97470581,0.00438457
1546.90351318,0.00517974
1548.83232056,0.00474390
1550.76112793,0.00489599
1552.68993530,0.00493776
1554.61874268,0.00460980
1556.54755005,0.00482911
1558.47635742,0.00359852
1560.40516479,0.00410377
1562.33397217,0.00524545
1564.26277954,0.00496946
1566.19158691,0.00515184
1568.12039429,0.00508355
1570.04920166,0.00467389
1571.97800903,0.00520207
1573.90681641,0.00538341
1575.83562378,0.00437768
1577.76443115,0.00492252
1579.69323853,0.00560220
1581.62204590,0.00518707
1583.55085327,0.00527869
1585.47966064,0.00520321
1587.40846802,0.00528949
1589.33727539,0.00536588
1591.26608276,0.00530597
1593.19489014,0.00533696
1595.12369751,0.00528748
1597.05250488,0.00527365
1598.98131226,0.00531001
1600.91011963,0.00527010
1602.83892700,0.00518124
1604.76773437,0.00537936
1606.69654175,0.00528571
1608.62534912,0.00538886
1610.55415649,0.00526495
1612.48296387,0.00529182
1614.41177124,0.00545122
1616.34057861,0.00455975
1618.26938599,0.00508758
1620.19819336,0.00556305
1622.12700073,0.00507077
1624.05580811,0.00518408
1625.98461548,0.00514901
1627.91342285,0.00528464
1629.84223022,0.00525097
1631.77103760,0.00562853
1633.69984497,0.00527810
1635.62865234,0.00449631
1637.55745972,0.00513822
1639.48626709,0.00534344
1641.41507446,0.00538457
1643.34388184,0.00556338
1645.27268921,0.00507151
1647.20149658,0.00461801
1649.13030396,0.00542115
1651.05911133,0.00532676
1652.98791870,0.00386367
1654.91672607,0.00479793
1656.84553345,0.00563325
1658.77434082,0.00540321
1660.70314819,0.00568408
1662.63195557,0.00521014
1664.56076294,0.00544318
1666.48957031,0.00585093
1668.41837769,0.00519825
1670.34718506,0.00511991
1672.27599243,0.00566764
1674.20479980,0.00537299
1676.13360718,0.00526652
1678.06241455,0.00578375
1679.99122192,0.00570274
1681.92002930,0.00555296
1683.84883667,0.00461606
1685.77764404,0.00478384
1687.70645142,0.00596632
1689.63525879,0.00532613
1691.56406616,0.00591633
1693.49287354,0.00593663
1695.42168091,0.00469136
1697.35048828,0.00545937
1699.27929565,0.00487367
1701.20810303,0.00455918
1703.13691040,0.00578254
1705.06571777,0.00533192
1706.99452515,0.00549219
1708.92333252,0.00598191
1710.85213989,0.00569053
1712.78094727,0.00577064
1714.70975464,0.00547848
1716.63856201,0.00490535
1718.56736938,0.00479317
1720.49617676,0.00574447
1722.42498413,0.00597561
1724.35379150,0.00555547
1726.28259888,0.00598709
1728.21140625,0.00551988
1730.14021362,0.00564133
1732.06902100,0.00552611
1733.99782837,0.00434341
1735.92663574,0.00527453
1737.85544312,0.00571870
1739.78425049,0.00528353
1741.71305786,0.00570731
1743.64186523,0.00573309
1745.57067261,0.00570134
1747.49947998,0.00557134
1749.42828735,0.00545844
1751.35709473,0.00529783
1753.28590210,0.00579618
1755.21470947,0.00621778
1757.14351685,0.00557366
1759.07232422,0.00591750
1761.00113159,0.00573839
1762.92993896,0.00557751
1764.85874634,0.00629767
1766.78755371,0.00582053
1768.71636108,0.00585135
1770.64516846,0.00577244
1772.57397583,0.00538469
1774.50278320,0.00589658
1776.43159058,0.00604074
1778.36039795,0.00608321
1780.28920532,0.00602795
1782.21801270,0.00603965
1784.14682007,0.00607716
1786.07562744,0.00587502
1788.00443481,0.00610385
1789.93324219,0.00606532
1791.86204956,0.00569176
1793.79085693,0.00588992
1795.71966431,0.00623455
1797.64847168,0.00612072
1799.57727905,0.00596402
1801.50608643,0.00593942
1803.43489380,0.00607391
1805.36370117,0.00621376
1807.29250854,0.00628771
1809.22131592,0.00626415
1811.15012329,0.00600535
1813.07893066,0.00617590
1815.00773804,0.00624279
1816.93654541,0.00617134
1818.86535278,0.00619981
1820.79416016,0.00624855
1822.72296753,0.00635072
1824.65177490,0.00590762
1826.58058228,0.00627512
1828.50938965,0.00626106
1830.43819702,0.00575814
1832.36700439,0.00642751
1834.29581177,0.00640377
1836.22461914,0.00629001
1838.15342651,0.00629026
1840.08223389,0.00642520
1842.01104126,0.00639224
1843.93984863,0.00568159
1845.86865601,0.00613013
1847.79746338,0.00625596
1849.72627075,0.00625171
1851.65507812,0.00659264
1853.58388550,0.00628849
1855.51269287,0.00634137
1857.44150024,0.00630577
1859.37030762,0.00635328
1861.29911499,0.00633041
1863.22792236,0.00620908
1865.15672974,0.00643560
1867.08553711,0.00623116
1869.01434448,0.00592331
1870.94315186,0.00620665
1872.87195923,0.00649013
1874.80076660,0.00622827
1876.72957397,0.00641022
1878.65838135,0.00646855
1880.58718872,0.00624209
1882.51599609,0.00640552
1884.44480347,0.00624599
1886.37361084,0.00630667
1888.30241821,0.00620148
1890.23122559,0.00608290
1892.16003296,0.00638719
1894.08884033,0.00628734
1896.01764771,0.00624316
1897.94645508,0.00625007
1899.87526245,0.00630386
1901.80406982,0.00631779
1903.73287720,0.00617838
1905.66168457,0.00627419
1907.59049194,0.00630490
1909.51929932,0.00626179
1911.44810669,0.00624156
1913.37691406,0.00629893
1915.30572144,0.00636002
1917.23452881,0.00608071
1919.16333618,0.00603255
1921.09214355,0.00638569
1923.02095093,0.00625036
1924.94975830,0.00616750
1926.87856567,0.00629551
1928.80737305,0.00619068
1930.73618042,0.00634813
1932.66498779,0.00629463
1934.59379517,0.00628595
1936.52260254,0.00639483
1938.45140991,0.00636506
1940.38021729,0.00639424
1942.30902466,0.00610583
1944.23783203,0.00626211
1946.16663940,0.00634698
1948.09544678,0.00617071
1950.02425415,0.00641699
1951.95306152,0.00634892
1953.88186890,0.00630404
1955.81067627,0.00627654
1957.73948364,0.00625956
1959.66829102,0.00641249
1961.59709839,0.00628672
1963.52590576,0.00619018
1965.45471313,0.00624822
1967.38352051,0.00638654
1969.31232788,0.00641924
1971.24113525,0.00638014
1973.16994263,0.00642899
1975.09875000,0.00638027
1977.02755737,0.00632852
1978.95636475,0.00634302
1980.88517212,0.00629516
1982.81397949,0.00637400
1984.74278687,0.00649064
1986.67159424,0.00636557
1988.60040161,0.00636996
1990.52920898,0.00636349
1992.45801636,0.00637918
1994.38682373,0.00644599
1996.31563110,0.00626887
1998.24443848,0.00635020
2000.17324585,0.00636934
2002.10205322,0.00630842
2004.03086060,0.00636712
2005.95966797,0.00625188
2007.88847534,0.00633826
2009.81728271,0.00640088
2011.74609009,0.00629012
2013.67489746,0.00631098
2015.60370483,0.00639456
2017.53251221,0.00628837
2019.46131958,0.00617356
2021.39012695,0.00626523
2023.31893433,0.00631188
2025.24774170,0.00636242
2027.17654907,0.00633780
2029.10535645,0.00624789
2031.03416382,0.00617836
2032.96297119,0.00616235
2034.89177856,0.00623990
2036.82058594,0.00629185
2038.74939331,0.00630540
2040.67820068,0.00617252
2042.60700806,0.00620572
2044.53581543,0.00627763
2046.46462280,0.00618885
2048.39343018,0.00627165
2050.32223755,0.00633456
2052.25104492,0.00628232
2054.17985229,0.00622538
2056.10865967,0.00621973
2058.03746704,0.00613805
2059.96627441,0.00616670
2061.89508179,0.00617381
2063.82388916,0.00602715
2065.75269653,0.00616490
2067.68150391,0.00612998
2069.61031128,0.00618286
2071.53911865,0.00633933
2073.46792603,0.00613471
2075.39673340,0.00616686
2077.32554077,0.00618532
2079.25434814,0.00609806
2081.18315552,0.00621183
2083.11196289,0.00627355
2085.04077026,0.00613814
2086.96957764,0.00605644
2088.89838501,0.00608023
2090.82719238,0.00601072
2092.75599976,0.00611091
2094.68480713,0.00612026
2096.61361450,0.00601056
2098.54242187,0.00612689
2100.47122925,0.00616760
2102.40003662,0.00605330
2104.32884399,0.00602009
2106.25765137,0.00611338
2108.18645874,0.00604885
2110.11526611,0.00602645
2112.04407349,0.00613517
2113.97288086,0.00603285
2115.90168823,0.00592739
2117.83049561,0.00597275
2119.75930298,0.00601814
2121.68811035,0.00603101
2123.61691772,0.00615443
2125.54572510,0.00620667
2127.47453247,0.00609476
2129.40333984,0.00604413
2131.33214722,0.00611898
2133.26095459,0.00613074
2135.18976196,0.00595311
2137.11856934,0.00598156
2139.04737671,0.00601884
2140.97618408,0.00599007
2142.90499146,0.00615719
2144.83379883,0.00615453
2146.76260620,0.00606084
2148.69141357,0.00605671
2150.62022095,0.00614042
2152.54902832,0.00610662
2154.47783569,0.00600186
2156.40664307,0.00608591
2158.33545044,0.00612526
2160.26425781,0.00614630
2162.19306519,0.00608167
2164.12187256,0.00599018
2166.05067993,0.00598878
2167.97948730,0.00596279
2169.90829468,0.00594039
2171.83710205,0.00589331
2173.76590942,0.00601968
2175.69471680,0.00609074
2177.62352417,0.00601687
2179.55233154,0.00609043
2181.48113892,0.00606036
2183.40994629,0.00598123
2185.33875366,0.00597714
2187.26756104,0.00593681
2189.19636841,0.00598426
2191.12517578,0.00604755
2193.05398315,0.00604957
2194.98279053,0.00609514
2196.91159790,0.00605991
2198.84040527,0.00600710
2200.76921265,0.00599520
2202.69802002,0.00593540
2204.62682739,0.00601828
2206.55563477,0.00607938
2208.48444214,0.00604080
2210.41324951,0.00607362
2212.34205688,0.00606124
2214.27086426,0.00606626
2216.19967163,0.00606440
2218.12847900,0.00598435
2220.05728638,0.00598811
2221.98609375,0.00603422
2223.91490112,0.00603374
2225.84370850,0.00595736
2227.77251587,0.00589885
2229.70132324,0.00604038
2231.63013062,0.00600918
2233.55893799,0.00591049
2235.48774536,0.00602379
2237.41655273,0.00592880
2239.34536011,0.00593136
2241.27416748,0.00597542
2243.20297485,0.00592079
2245.13178223,0.00601579
2247.06058960,0.00597587
2248.98939697,0.00599760
2250.91820435,0.00596529
2252.84701172,0.00599622
2254.77581909,0.00610982
2256.70462646,0.00595637
2258.63343384,0.00599611
2260.56224121,0.00594701
2262.49104858,0.00586058
2264.41985596,0.00595658
2266.34866333,0.00595514
2268.27747070,0.00602290
2270.20627808,0.00593679
2272.13508545,0.00592929
2274.06389282,0.00606739
2275.99270020,0.00593609
2277.92150757,0.00588537
2279.85031494,0.00593903
2281.77912231,0.00583828
2283.70792969,0.00582376
2285.63673706,0.00590205
2287.56554443,0.00591123
2289.49435181,0.00585140
2291.42315918,0.00578601
2293.35196655,0.00586886
2295.28077393,0.00581764
2297.20958130,0.00577431
2299.13838867,0.00589148
2301.06719604,0.00579111
2302.99600342,0.00578109
2304.92481079,0.00574140
2306.85361816,0.00570051
2308.78242554,0.00586734
2310.71123291,0.00577676
2312.64004028,0.00562733
2314.56884766,0.00559256
2316.49765503,0.00554621
2318.42646240,0.00551954
2320.35526978,0.00546473
2322.28407715,0.00533880
2324.21288452,0.00535622
2326.14169189,0.00542754
2328.07049927,0.00529675
2329.99930664,0.00530898
2331.92811401,0.00521941
2333.85692139,0.00505751
2335.78572876,0.00519052
2337.71453613,0.00526181
2339.64334351,0.00521622
2341.57215088,0.00516155
2343.50095825,0.00528668
2345.42976562,0.00540813
2347.35857300,0.00549965
2349.28738037,0.00562396
2351.21618774,0.00537183
2353.14499512,0.00521141
2355.07380249,0.00522178
2357.00260986,0.00505739
2358.93141724,0.00495497
2360.86022461,0.00494857
2362.78903198,0.00491004
2364.71783936,0.00482990
2366.64664673,0.00496028
2368.57545410,0.00510804
2370.50426147,0.00512604
2372.43306885,0.00528467
2374.36187622,0.00547924
2376.29068359,0.00556723
2378.21949097,0.00557469
2380.14829834,0.00570058
2382.07710571,0.00580665
2384.00591309,0.00580171
2385.93472046,0.00583714
2387.86352783,0.00582355
2389.79233521,0.00581636
2391.72114258,0.00565264
2393.64994995,0.00568586
2395.57875732,0.00593823
2397.50756470,0.00577450
2399.43637207,0.00576441
2401.36517944,0.00585242
2403.29398682,0.00574542
2405.22279419,0.00577907
2407.15160156,0.00569684
2409.08040894,0.00573160
2411.00921631,0.00586797
2412.93802368,0.00578240
2414.86683105,0.00572341
2416.79563843,0.00572536
2418.72444580,0.00574182
2420.65325317,0.00577104
2422.58206055,0.00578770
2424.51086792,0.00576565
2426.43967529,0.00572634
2428.36848267,0.00571235
2430.29729004,0.00574055
2432.22609741,0.00569616
2434.15490479,0.00562282
2436.08371216,0.00572471
2438.01251953,0.00570768
2439.94132690,0.00561550
2441.87013428,0.00562737
2443.79894165,0.00569526
2445.72774902,0.00579111
2447.65655640,0.00565016
2449.58536377,0.00556310
2451.51417114,0.00562130
2453.44297852,0.00568370
2455.37178589,0.00577748
2457.30059326,0.00577979
2459.22940063,0.00586633
2461.15820801,0.00572876
2463.08701538,0.00551545
2465.01582275,0.00567158
2466.94463013,0.00574143
2468.87343750,0.00572153
2470.80224487,0.00570018
2472.73105225,0.00568495
2474.65985962,0.00574381
2476.58866699,0.00559966
2478.51747437,0.00552914
2480.44628174,0.00568225
2482.37508911,0.00569894
2484.30389648,0.00569431
2486.23270386,0.00567889
2488.16151123,0.00562137
2490.09031860,0.00566848
2492.01912598,0.00559744
2493.94793335,0.00556749
2495.87674072,0.00570168
2497.80554810,0.00569801
2499.73435547,0.00566051
2501.66316284,0.00563913
2503.59197021,0.00562409
2505.52077759,0.00564314
2507.44958496,0.00553887
2509.37839233,0.00549902
2511.30719971,0.00562389
2513.23600708,0.00552632
2515.16481445,0.00548732
2517.09362183,0.00569911
2519.02242920,0.00553140
2520.95123657,0.00540655
2522.88004395,0.00556753
2524.80885132,0.00553692
2526.73765869,0.00555556
2528.66646606,0.00545408
2530.59527344,0.00539069
2532.52408081,0.00558057
2534.45288818,0.00554505
2536.38169556,0.00554373
2538.31050293,0.00561162
2540.23931030,0.00558096
2542.16811768,0.00558478
2544.09692505,0.00550909
2546.02573242,0.00549950
2547.95453979,0.00550789
2549.88334717,0.00542739
2551.81215454,0.00549263
2553.74096191,0.00556485
2555.66976929,0.00546023
2557.59857666,0.00543761
2559.52738403,0.00557520
2561.45619141,0.00560604
2563.38499878,0.00553373
2565.31380615,0.00549032
2567.24261353,0.00552738
2569.17142090,0.00557885
2571.10022827,0.00548320
2573.02903564,0.00545024
2574.95784302,0.00553182
2576.88665039,0.00550628
2578.81545776,0.00548958
2580.74426514,0.00548905
2582.67307251,0.00543005
2584.60187988,0.00545893
2586.53068726,0.00546452
2588.45949463,0.00539858
2590.38830200,0.00550532
2592.31710937,0.00551581
2594.24591675,0.00538394
2596.17472412,0.00540488
2598.10353149,0.00534464
2600.03233887,0.00533929
2601.96114624,0.00540594
2603.88995361,0.00539099
2605.81876099,0.00549755
2607.74756836,0.00545405
2609.67637573,0.00536757
2611.60518311,0.00544445
2613.53399048,0.00546713
2615.46279785,0.00546677
2617.39160522,0.00542478
2619.32041260,0.00537787
2621.24921997,0.00535344
2623.17802734,0.00539394
2625.10683472,0.00539047
2627.03564209,0.00532510
2628.96444946,0.00540475
2630.89325684,0.00537824
2632.82206421,0.00536962
2634.75087158,0.00544219
2636.67967895,0.00538797
2638.60848633,0.00539549
2640.53729370,0.00538571
2642.46610107,0.00535515
2644.39490845,0.00532054
2646.32371582,0.00535902
2648.25252319,0.00542680
2650.18133057,0.00529001
2652.11013794,0.00529807
2654.03894531,0.00538407
2655.96775269,0.00535594
2657.89656006,0.00539983
2659.82536743,0.00538024
2661.75417480,0.00526271
2663.68298218,0.00525440
2665.61178955,0.00531621
2667.54059692,0.00520754
2669.46940430,0.00522875
2671.39821167,0.00543580
2673.32701904,0.00543933
2675.25582642,0.00535541
2677.18463379,0.00529917
2679.11344116,0.00531806
2681.04224854,0.00534636
2682.97105591,0.00525675
2684.89986328,0.00513856
2686.82867065,0.00522474
2688.75747803,0.00534869
2690.68628540,0.00521615
2692.61509277,0.00522543
2694.54390015,0.00525692
2696.47270752,0.00522500
2698.40151489,0.00533093
2700.33032227,0.00528161
2702.25912964,0.00520825
2704.18793701,0.00520558
2706.11674438,0.00527892
2708.04555176,0.00527275
2709.97435913,0.00519640
2711.90316650,0.00530099
2713.83197388,0.00527096
2715.76078125,0.00514548
2717.68958862,0.00510058
2719.61839600,0.00515670
2721.54720337,0.00515705
2723.47601074,0.00514846
2725.40481812,0.00530847
2727.33362549,0.00522955
2729.26243286,0.00518490
2731.19124023,0.00524626
2733.12004761,0.00516683
2735.04885498,0.00517554
2736.97766235,0.00517972
2738.90646973,0.00526527
2740.83527710,0.00523439
2742.76408447,0.00511570
2744.69289185,0.00524106
2746.62169922,0.00520598
2748.55050659,0.00507603
2750.47931396,0.00511629
2752.40812134,0.00511739
2754.33692871,0.00505821
2756.26573608,0.00509388
2758.19454346,0.00519875
2760.12335083,0.00514134
2762.05215820,0.00507694
2763.98096558,0.00512840
2765.90977295,0.00509996
2767.83858032,0.00512605
2769.76738770,0.00513302
2771.69619507,0.00510974
2773.62500244,0.00512480
2775.55380981,0.00500844
2777.48261719,0.00502704
2779.41142456,0.00506997
2781.34023193,0.00504726
2783.26903931,0.00511451
2785.19784668,0.00502730
2787.12665405,0.00505004
2789.05546143,0.00519908
2790.98426880,0.00503715
2792.91307617,0.00486516
2794.84188354,0.00500879
2796.77069092,0.00503288
2798.69949829,0.00496597
2800.62830566,0.00505540
2802.55711304,0.00496274
2804.48592041,0.00492991
2806.41472778,0.00495311
2808.34353516,0.00493044
2810.27234253,0.00503904
2812.20114990,0.00494480
2814.12995728,0.00493322
2816.05876465,0.00502053
2817.98757202,0.00488525
2819.91637939,0.00487448
2821.84518677,0.00493876
2823.77399414,0.00489522
2825.70280151,0.00489859
2827.63160889,0.00495618
2829.56041626,0.00499406
2831.48922363,0.00489030
2833.41803101,0.00473783
2835.34683838,0.00486250
2837.27564575,0.00488205
2839.20445312,0.00477174
2841.13326050,0.00484941
2843.06206787,0.00478934
2844.99087524,0.00478735
2846.91968262,0.00485046
2848.84848999,0.00483659
2850.77729736,0.00479539
2852.70610474,0.00473105
2854.63491211,0.00479583
2856.56371948,0.00474632
2858.49252686,0.00475103
2860.42133423,0.00478808
2862.35014160,0.00469170
2864.27894897,0.00471837
2866.20775635,0.00475162
2868.13656372,0.00473212
2870.06537109,0.00467524
2871.99417847,0.00473499
2873.92298584,0.00477615
2875.85179321,0.00473038
2877.78060059,0.00477858
2879.70940796,0.00475214
2881.63821533,0.00475285
2883.56702270,0.00470075
2885.49583008,0.00465022
2887.42463745,0.00469848
2889.35344482,0.00464433
2891.28225220,0.00467435
2893.21105957,0.00469314
2895.13986694,0.00457929
2897.06867432,0.00460287
2898.99748169,0.00466868
2900.92628906,0.00460954
2902.85509644,0.00462111
2904.78390381,0.00458460
2906.71271118,0.00451740
2908.64151855,0.00461379
2910.57032593,0.00458536
2912.49913330,0.00454194
2914.42794067,0.00456796
2916.35674805,0.00452414
2918.28555542,0.00454282
2920.21436279,0.00450979
2922.14317017,0.00445356
2924.07197754,0.00453812
2926.00078491,0.00451778
2927.92959229,0.00439745
2929.85839966,0.00444299
2931.78720703,0.00449498
2933.71601440,0.00454020
2935.64482178,0.00456278
2937.57362915,0.00449279
2939.50243652,0.00447025
2941.43124390,0.00444223
2943.36005127,0.00448386
2945.28885864,0.00451312
2947.21766602,0.00453716
2949.14647339,0.00457201
2951.07528076,0.00453256
2953.00408813,0.00456581
2954.93289551,0.00454010
2956.86170288,0.00457117
2958.79051025,0.00451777
2960.71931763,0.00438147
2962.64812500,0.00450404
2964.57693237,0.00448161
2966.50573975,0.00437574
2968.43454712,0.00442913
2970.36335449,0.00444003
2972.29216187,0.00436223
2974.22096924,0.00439052
2976.14977661,0.00451719
2978.07858398,0.00448651
2980.00739136,0.00441337
2981.93619873,0.00436453
2983.86500610,0.00438432
2985.79381348,0.00438342
2987.72262085,0.00437480
2989.65142822,0.00448665
2991.58023560,0.00438737
2993.50904297,0.00435258
2995.43785034,0.00445529
2997.36665771,0.00440285
2999.29546509,0.00446817
3001.22427246,0.00446670
3003.15307983,0.00441393
3005.08188721,0.00444485
3007.01069458,0.00432636
3008.93950195,0.00437001
3010.86830933,0.00447521
3012.79711670,0.00442528
3014.72592407,0.00445957
3016.65473145,0.00439555
3018.58353882,0.00435373
3020.51234619,0.00440576
3022.44115356,0.00432436
3024.36996094,0.00429976
3026.29876831,0.00439378
3028.22757568,0.00439388
3030.15638306,0.00430667
3032.08519043,0.00443691
3034.01399780,0.00442940
3035.94280518,0.00424231
3037.87161255,0.00434278
3039.80041992,0.00431454
3041.72922729,0.00426823
3043.65803467,0.00429067
3045.58684204,0.00423376
3047.51564941,0.00433195
3049.44445679,0.00431468
3051.37326416,0.00430668
3053.30207153,0.00430846
3055.23087891,0.00421617
3057.15968628,0.00425927
3059.08849365,0.00424078
3061.01730103,0.00420518
3062.94610840,0.00417228
3064.87491577,0.00412913
3066.80372314,0.00415817
3068.73253052,0.00410118
3070.66133789,0.00413172
3072.59014526,0.00425505
3074.51895264,0.00425335
3076.44776001,0.00420954
3078.37656738,0.00414756
3080.30537476,0.00413664
3082.23418213,0.00413816
3084.16298950,0.00410658
3086.09179687,0.00412843
3088.02060425,0.00409687
3089.94941162,0.00410608
3091.87821899,0.00410658
3093.80702637,0.00404071
3095.73583374,0.00405416
3097.66464111,0.00409444
3099.59344849,0.00417719
3101.52225586,0.00413292
3103.45106323,0.00407745
3105.37987061,0.00410442
3107.30867798,0.00405823
3109.23748535,0.00406934
3111.16629272,0.00399842
3113.09510010,0.00398317
3115.02390747,0.00408421
3116.95271484,0.00410785
3118.88152222,0.00412655
3120.81032959,0.00409355
3122.73913696,0.00403633
3124.66794434,0.00397689
3126.59675171,0.00397332
3128.52555908,0.00397221
3130.45436645,0.00397862
3132.38317383,0.00400864
3134.31198120,0.00401441
3136.24078857,0.00408245
3138.16959595,0.00399335
3140.09840332,0.00389954
3142.02721069,0.00389448
3143.95601807,0.00385031
3145.88482544,0.00387129
3147.81363281,0.00389464
3149.74244019,0.00394487
3151.67124756,0.00391017
3153.60005493,0.00387643
3155.52886230,0.00385223
3157.45766968,0.00380244
3159.38647705,0.00383112
3161.31528442,0.00377629
3163.24409180,0.00386485
3165.17289917,0.00394548
3167.10170654,0.00381540
3169.03051392,0.00377597
3170.95932129,0.00382423
3172.88812866,0.00380687
3174.81693604,0.00376220
3176.74574341,0.00382847
3178.67455078,0.00376349
3180.60335815,0.00374303
3182.53216553,0.00386081
3184.46097290,0.00378699
3186.38978027,0.00374250
3188.31858765,0.00369212
3190.24739502,0.00373432
3192.17620239,0.00384171
3194.10500977,0.00372384
3196.03381714,0.00370580
3197.96262451,0.00376145
3199.89143188,0.00376429
3201.82023926,0.00376969
3203.74904663,0.00370368
3205.67785400,0.00368410
3207.60666138,0.00369092
3209.53546875,0.00366839
3211.46427612,0.00363031
3213.39308350,0.00358736
3215.32189087,0.00366939
3217.25069824,0.00371869
3219.17950562,0.00367070
3221.10831299,0.00369698
3223.03712036,0.00367399
3224.96592773,0.00365897
3226.89473511,0.00366943
3228.82354248,0.00362372
3230.75234985,0.00363556
3232.68115723,0.00361370
3234.60996460,0.00358138
3236.53877197,0.00360102
3238.46757935,0.00360164
3240.39638672,0.00356461
3242.32519409,0.00357221
3244.25400146,0.00360624
3246.18280884,0.00351279
3248.11161621,0.00354531
3250.04042358,0.00362470
3251.96923096,0.00353521
3253.89803833,0.00362290
3255.82684570,0.00364380
3257.75565308,0.00348921
3259.68446045,0.00358897
3261.61326782,0.00362601
3263.54207520,0.00354709
3265.47088257,0.00362181
3267.39968994,0.00357009
3269.32849731,0.00353488
3271.25730469,0.00359114
3273.18611206,0.00351961
3275.11491943,0.00350467
3277.04372681,0.00353199
3278.97253418,0.00355988
3280.90134155,0.00361101
3282.83014893,0.00356185
3284.75895630,0.00353482
3286.68776367,0.00353895
3288.61657104,0.00344651
3290.54537842,0.00349664
3292.47418579,0.00355655
3294.40299316,0.00345597
3296.33180054,0.00353588
3298.26060791,0.00351437
3300.18941528,0.00339662
3302.11822266,0.00350197
3304.04703003,0.00354086
3305.97583740,0.00349671
3307.90464478,0.00342444
3309.83345215,0.00345111
3311.76225952,0.00353390
3313.69106689,0.00347235
3315.61987427,0.00345399
3317.54868164,0.00347128
3319.47748901,0.00347044
3321.40629639,0.00348272
3323.33510376,0.00348580
3325.26391113,0.00348603
3327.19271851,0.00348476
3329.12152588,0.00349033
3331.05033325,0.00350138
3332.97914062,0.00341866
3334.90794800,0.00336920
3336.83675537,0.00347359
3338.76556274,0.00343569
3340.69437012,0.00341218
3342.62317749,0.00344856
3344.55198486,0.00346488
3346.48079224,0.00348254
3348.40959961,0.00337932
3350.33840698,0.00343994
3352.26721436,0.00339219
3354.19602173,0.00331979
3356.12482910,0.00342741
3358.05363647,0.00338061
3359.98244385,0.00337877
3361.91125122,0.00333555
3363.84005859,0.00335606
3365.76886597,0.00336369
3367.69767334,0.00328157
3369.62648071,0.00332933
3371.55528809,0.00331952
3373.48409546,0.00339035
3375.41290283,0.00337100
3377.34171020,0.00333552
3379.27051758,0.00339457
3381.19932495,0.00334522
3383.12813232,0.00329341
3385.05693970,0.00319263
3386.98574707,0.00324703
3388.91455444,0.00331206
3390.84336182,0.00327765
3392.77216919,0.00329502
3394.70097656,0.00330482
3396.62978394,0.00333694
3398.55859131,0.00328730
3400.48739868,0.00327276
3402.41620605,0.00329041
3404.34501343,0.00327459
3406.27382080,0.00318733
3408.20262817,0.00313572
3410.13143555,0.00327226
3412.06024292,0.00331783
3413.98905029,0.00333000
3415.91785767,0.00328893
3417.84666504,0.00321886
3419.77547241,0.00323339
3421.70427979,0.00328686
3423.63308716,0.00337162
3425.56189453,0.00321786
3427.49070190,0.00313971
3429.41950928,0.00320113
3431.34831665,0.00314892
3433.27712402,0.00320968
3435.20593140,0.00320212
3437.13473877,0.00315349
3439.06354614,0.00317526
3440.99235352,0.00315165
3442.92116089,0.00319955
3444.84996826,0.00321232
3446.77877563,0.00315516
3448.70758301,0.00315504
3450.63639038,0.00309300
3452.56519775,0.00308705
3454.49400513,0.00320964
3456.42281250,0.00318564
3458.35161987,0.00315838
3460.28042725,0.00316130
3462.20923462,0.00312049
3464.13804199,0.00315077
3466.06684937,0.00308787
3467.99565674,0.00310390
3469.92446411,0.00319091
3471.85327148,0.00316477
3473.78207886,0.00313395
3475.71088623,0.00306826
3477.63969360,0.00310649
3479.56850098,0.00312644
3481.49730835,0.00310357
3483.42611572,0.00313299
3485.35492310,0.00306878
3487.28373047,0.00307195
3489.21253784,0.00312363
3491.14134521,0.00314860
3493.07015259,0.00311274
3494.99895996,0.00316255
3496.92776733,0.00317049
3498.85657471,0.00299267
3500.78538208,0.00314324
3502.71418945,0.00313558
3504.64299683,0.00300808
3506.57180420,0.00317706
3508.50061157,0.00303386
3510.42941895,0.00300434
3512.35822632,0.00316290
3514.28703369,0.00305663
3516.21584106,0.00302420
3518.14464844,0.00313851
3520.07345581,0.00311089
3522.00226318,0.00299568
3523.93107056,0.00308452
3525.85987793,0.00315183
3527.78868530,0.00311518
3529.71749268,0.00307939
3531.64630005,0.00309929
3533.57510742,0.00316307
3535.50391479,0.00304825
3537.43272217,0.00299682
3539.36152954,0.00306783
3541.29033691,0.00312200
3543.21914429,0.00309755
3545.14795166,0.00299498
3547.07675903,0.00294598
3549.00556641,0.00297485
3550.93437378,0.00306312
3552.86318115,0.00297063
3554.79198853,0.00296840
3556.72079590,0.00312410
3558.64960327,0.00310175
3560.57841064,0.00303552
3562.50721802,0.00301175
3564.43602539,0.00310791
3566.36483276,0.00294763
3568.29364014,0.00277297
3570.22244751,0.00302746
3572.15125488,0.00305089
3574.08006226,0.00302180
3576.00886963,0.00310591
3577.93767700,0.00300291
3579.86648437,0.00302718
3581.79529175,0.00305327
3583.72409912,0.00302935
3585.65290649,0.00297884
3587.58171387,0.00277500
3589.51052124,0.00286383
3591.43932861,0.00304997
3593.36813599,0.00299851
3595.29694336,0.00296801
3597.22575073,0.00297612
3599.15455811,0.00301991
3601.08336548,0.00299736
3603.01217285,0.00305041
3604.94098022,0.00313753
3606.86978760,0.00291064
3608.79859497,0.00273257
3610.72740234,0.00289605
3612.65620972,0.00293324
3614.58501709,0.00286415
3616.51382446,0.00303377
3618.44263184,0.00282979
3620.37143921,0.00273876
3622.30024658,0.00300333
3624.22905395,0.00299896
3626.15786133,0.00311754
3628.08666870,0.00271251
3630.01547607,0.00254476
3631.94428345,0.00306900
3633.87309082,0.00296410
3635.80189819,0.00292560
3637.73070557,0.00306695
3639.65951294,0.00304531
3641.58832031,0.00302009
3643.51712769,0.00309785
3645.44593506,0.00304654
3647.37474243,0.00273983
3649.30354980,0.00266287
3651.23235718,0.00268202
3653.16116455,0.00305726
3655.08997192,0.00297605
3657.01877930,0.00273210
3658.94758667,0.00310127
3660.87639404,0.00306936
3662.80520142,0.00315500
3664.73400879,0.00304371
3666.66281616,0.00294827
3668.59162354,0.00285161
3670.52043091,0.00250282
3672.44923828,0.00294808
3674.37804565,0.00268631
3676.30685303,0.00242315
3678.23566040,0.00295898
3680.16446777,0.00299722
3682.09327515,0.00301079
3684.02208252,0.00300871
3685.95088989,0.00298044
3687.87969727,0.00268906
3689.80850464,0.00255719
3691.73731201,0.00283881
3693.66611938,0.00293510
3695.59492676,0.00305112
3697.52373413,0.00294246
3699.45254150,0.00296630
3701.38134888,0.00287858
3703.31015625,0.00277938
3705.23896362,0.00302086
3707.16777100,0.00283667
3709.09657837,0.00280689
3711.02538574,0.00269639
3712.95419312,0.00261105
3714.88300049,0.00291737
3716.81180786,0.00287156
3718.74061523,0.00288136
3720.66942261,0.00284200
3722.59822998,0.00279039
3724.52703735,0.00276249
3726.45584473,0.00270565
3728.38465210,0.00292564
3730.31345947,0.00281370
3732.24226685,0.00263001
3734.17107422,0.00249706
3736.09988159,0.00243598
3738.02868896,0.00256393
3739.95749634,0.00267926
3741.88630371,0.00287922
3743.81511108,0.00234443
3745.74391846,0.00219625
3747.67272583,0.00280769
3749.60153320,0.00244021
3751.53034058,0.00223874
3753.45914795,0.00254703
3755.38795532,0.00270083
3757.31676270,0.00285525
3759.24557007,0.00265117
3761.17437744,0.00270617
3763.10318481,0.00284080
3765.03199219,0.00268591
3766.96079956,0.00275916
3768.88960693,0.00267902
3770.81841431,0.00264814
3772.74722168,0.00284347
3774.67602905,0.00285864
3776.60483643,0.00282743
3778.53364380,0.00273370
3780.46245117,0.00271875
3782.39125854,0.00272304
3784.32006592,0.00269173
3786.24887329,0.00276289
3788.17768066,0.00275711
3790.10648804,0.00275718
3792.03529541,0.00273961
3793.96410278,0.00277242
3795.89291016,0.00260337
3797.82171753,0.00257293
3799.75052490,0.00263860
3801.67933228,0.00220999
3803.60813965,0.00258436
3805.53694702,0.00270426
3807.46575439,0.00223575
3809.39456177,0.00256910
3811.32336914,0.00264231
3813.25217651,0.00268707
3815.18098389,0.00240644
3817.10979126,0.00231266
3819.03859863,0.00270313
3820.96740601,0.00230263
3822.89621338,0.00243606
3824.82502075,0.00266416
3826.75382812,0.00263240
3828.68263550,0.00272459
3830.61144287,0.00246314
3832.54025024,0.00256446
3834.46905762,0.00262449
3836.39786499,0.00242302
3838.32667236,0.00229498
3840.25547974,0.00243936
3842.18428711,0.00242684
3844.11309448,0.00231942
3846.04190186,0.00264235
3847.97070923,0.00259150
3849.89951660,0.00264216
3851.82832397,0.00245824
3853.75713135,0.00189796
3855.68593872,0.00220148
3857.61474609,0.00257344
3859.54355347,0.00250003
3861.47236084,0.00246727
3863.40116821,0.00246914
3865.32997559,0.00236035
3867.25878296,0.00248491
3869.18759033,0.00242754
3871.11639770,0.00222475
3873.04520508,0.00244453
3874.97401245,0.00235395
3876.90281982,0.00251356
3878.83162720,0.00257680
3880.76043457,0.00225031
3882.68924194,0.00257351
3884.61804932,0.00241563
3886.54685669,0.00216881
3888.47566406,0.00255130
3890.40447144,0.00244047
3892.33327881,0.00229124
3894.26208618,0.00249224
3896.19089355,0.00253527
3898.11970093,0.00246922
3900.04850830,0.00233817
3901.97731567,0.00224532
3903.90612305,0.00224605
3905.83493042,0.00230913
3907.76373779,0.00249838
3909.69254517,0.00240864
3911.62135254,0.00233838
3913.55015991,0.00250431
3915.47896728,0.00242689
3917.40777466,0.00239298
3919.33658203,0.00234264
3921.26538940,0.00234187
3923.19419678,0.00245591
3925.12300415,0.00237921
3927.05181152,0.00242283
3928.98061890,0.00247393
3930.90942627,0.00237211
3932.83823364,0.00237111
3934.76704102,0.00247804
3936.69584839,0.00240939
3938.62465576,0.00237243
3940.55346313,0.00246198
3942.48227051,0.00228926
3944.41107788,0.00230962
3946.33988525,0.00241889
3948.26869263,0.00231378
3950.19750000,0.00237770
3952.12630737,0.00239607
3954.05511475,0.00234929
3955.98392212,0.00238717
3957.91272949,0.00238600
3959.84153687,0.00238968
3961.77034424,0.00242485
3963.69915161,0.00235876
3965.62795898,0.00231399
3967.55676636,0.00240763
3969.48557373,0.00234981
3971.41438110,0.00228002
3973.34318848,0.00235806
3975.27199585,0.00235001
3977.20080322,0.00232695
3979.12961060,0.00236561
3981.05841797,0.00231728
3982.98722534,0.00227658
3984.91603271,0.00233678
3986.84484009,0.00229342
3988.77364746,0.00225203
3990.70245483,0.00227992
3992.63126221,0.00229341
3994.56006958,0.00234514
3996.48887695,0.00227862
3998.41768433,0.00223369
4000.34649170,0.00228418
4002.27529907,0.00225526
4004.20410645,0.00229350
4006.13291382,0.00234083
4008.06172119,0.00223836
4009.99052856,0.00216249
4011.91933594,0.00224808
4013.84814331,0.00227598
4015.77695068,0.00220269
4017.70575806,0.00222844
4019.63456543,0.00227602
4021.56337280,0.00227024
4023.49218018,0.00224390
4025.42098755,0.00225833
4027.34979492,0.00226330
4029.27860229,0.00221647
4031.20740967,0.00223120
4033.13621704,0.00216305
4035.06502441,0.00213519
4036.99383179,0.00227002
4038.92263916,0.00219079
4040.85144653,0.00210543
4042.78025391,0.00220112
4044.70906128,0.00216335
4046.63786865,0.00218206
4048.56667603,0.00223355
4050.49548340,0.00212693
4052.42429077,0.00214627
4054.35309814,0.00216093
4056.28190552,0.00210392
4058.21071289,0.00212909
4060.13952026,0.00211946
4062.06832764,0.00214868
4063.99713501,0.00213608
4065.92594238,0.00210396
4067.85474976,0.00212993
4069.78355713,0.00208598
4071.71236450,0.00208158
4073.64117187,0.00211059
4075.56997925,0.00218089
4077.49878662,0.00215066
4079.42759399,0.00206650
4081.35640137,0.00213267
4083.28520874,0.00209506
4085.21401611,0.00211341
4087.14282349,0.00211787
4089.07163086,0.00203569
4091.00043823,0.00209343
4092.92924561,0.00201050
4094.85805298,0.00201629
4096.78686035,0.00212372
4098.71566772,0.00204650
4100.64447510,0.00205968
4102.57328247,0.00209711
4104.50208984,0.00206143
4106.43089722,0.00206335
4108.35970459,0.00204641
4110.28851196,0.00202841
4112.21731934,0.00204406
4114.14612671,0.00197614
4116.07493408,0.00200333
4118.00374145,0.00209199
4119.93254883,0.00199902
4121.86135620,0.00204929
4123.79016357,0.00199146
4125.71897095,0.00187423
4127.64777832,0.00207636
4129.57658569,0.00207325
4131.50539307,0.00202218
4133.43420044,0.00203262
4135.36300781,0.00196476
4137.29181519,0.00198591
4139.22062256,0.00194507
4141.14942993,0.00194552
4143.07823730,0.00196271
4145.00704468,0.00200231
4146.93585205,0.00196847
4148.86465942,0.00189590
4150.79346680,0.00202847
4152.72227417,0.00200200
4154.65108154,0.00199616
4156.57988892,0.00197315
4158.50869629,0.00181616
4160.43750366,0.00191909
4162.36631103,0.00194280
4164.29511841,0.00185270
4166.22392578,0.00185116
4168.15273315,0.00192044
4170.08154053,0.00192690
4172.01034790,0.00184309
4173.93915527,0.00192869
4175.86796265,0.00190405
4177.79677002,0.00184464
4179.72557739,0.00187951
4181.65438477,0.00182794
4183.58319214,0.00187270
4185.51199951,0.00189951
4187.44080688,0.00186967
4189.36961426,0.00185030
4191.29842163,0.00184848
4193.22722900,0.00187312
4195.15603638,0.00189301
4197.08484375,0.00191911
4199.01365112,0.00178072
4200.94245850,0.00174124
4202.87126587,0.00186270
4204.80007324,0.00183138
4206.72888062,0.00183936
4208.65768799,0.00187577
4210.58649536,0.00185164
4212.51530273,0.00180915
4214.44411011,0.00175726
4216.37291748,0.00182746
4218.30172485,0.00186446
4220.23053223,0.00177379
4222.15933960,0.00177362
4224.08814697,0.00179912
4226.01695435,0.00174732
4227.94576172,0.00179111
4229.87456909,0.00179802
4231.80337646,0.00174893
4233.73218384,0.00184976
4235.66099121,0.00180501
4237.58979858,0.00173148
4239.51860596,0.00183448
4241.44741333,0.00181251
4243.37622070,0.00178038
4245.30502808,0.00174164
4247.23383545,0.00167533
4249.16264282,0.00173188
4251.09145020,0.00177720
4253.02025757,0.00180227
4254.94906494,0.00174750
4256.87787231,0.00171355
4258.80667969,0.00179344
4260.73548706,0.00174597
4262.66429443,0.00170619
4264.59310181,0.00172300
4266.52190918,0.00165938
4268.45071655,0.00166569
4270.37952393,0.00170499
4272.30833130,0.00170550
4274.23713867,0.00172058
4276.16594604,0.00171644
4278.09475342,0.00168774
4280.02356079,0.00164961
4281.95236816,0.00167283
4283.88117554,0.00166675
4285.80998291,0.00166464
4287.73879028,0.00176448
4289.66759766,0.00167350
4291.59640503,0.00159854
4293.52521240,0.00166606
4295.45401978,0.00169156
4297.38282715,0.00176124
4299.31163452,0.00166993
4301.24044189,0.00162835
4303.16924927,0.00166729
4305.09805664,0.00157571
4307.02686401,0.00161553
4308.95567139,0.00164016
4310.88447876,0.00159955
4312.81328613,0.00155935
4314.74209351,0.00161770
4316.67090088,0.00169564
4318.59970825,0.00156882
4320.52851562,0.00159350
4322.45732300,0.00168131
4324.38613037,0.00165728
4326.31493774,0.00159034
4328.24374512,0.00153013
4330.17255249,0.00164773
4332.10135986,0.00164535
4334.03016724,0.00156759
4335.95897461,0.00161315
4337.88778198,0.00162011
4339.81658936,0.00163146
4341.74539673,0.00163085
4343.67420410,0.00166074
4345.60301147,0.00170749
4347.53181885,0.00162187
4349.46062622,0.00153194
4351.38943359,0.00154966
4353.31824097,0.00154473
4355.24704834,0.00151339
4357.17585571,0.00155552
4359.10466309,0.00155522
4361.03347046,0.00151356
4362.96227783,0.00155019
4364.89108520,0.00157766
4366.81989258,0.00157483
4368.74869995,0.00153188
4370.67750732,0.00146760
4372.60631470,0.00155240
4374.53512207,0.00160986
4376.46392944,0.00154638
4378.39273682,0.00157092
4380.32154419,0.00156461
4382.25035156,0.00153530
4384.17915894,0.00153536
4386.10796631,0.00148983
4388.03677368,0.00152670
4389.96558105,0.00150142
4391.89438843,0.00140988
4393.82319580,0.00149419
4395.75200317,0.00155234
4397.68081055,0.00148742
4399.60961792,0.00144990
4401.53842529,0.00144271
4403.46723267,0.00143772
4405.39604004,0.00141762
4407.32484741,0.00146615
4409.25365478,0.00149606
4411.18246216,0.00146294
4413.11126953,0.00152333
4415.04007690,0.00144857
4416.96888428,0.00140713
4418.89769165,0.00152170
4420.82649902,0.00140815
4422.75530640,0.00141766
4424.68411377,0.00154295
4426.61292114,0.00143977
4428.54172852,0.00139839
4430.47053589,0.00150260
4432.39934326,0.00155395
4434.32815063,0.00141517
4436.25695801,0.00140676
4438.18576538,0.00151099
4440.11457275,0.00142354
4442.04338013,0.00142328
4443.97218750,0.00141248
4445.90099487,0.00139736
4447.82980225,0.00141332
4449.75860962,0.00133550
4451.68741699,0.00143508
4453.61622437,0.00144337
4455.54503174,0.00136366
4457.47383911,0.00143152
4459.40264648,0.00138829
4461.33145386,0.00134043
4463.26026123,0.00135919
4465.18906860,0.00132528
4467.11787598,0.00132330
4469.04668335,0.00136343
4470.97549072,0.00132857
4472.90429810,0.00135811
4474.83310547,0.00136413
4476.76191284,0.00128538
4478.69072021,0.00140918
4480.61952759,0.00140262
4482.54833496,0.00134246
4484.47714233,0.00139215
4486.40594971,0.00131402
4488.33475708,0.00133015
4490.26356445,0.00132884
4492.19237183,0.00133270
4494.12117920,0.00134701
4496.04998657,0.00131222
4497.97879395,0.00134133
4499.90760132,0.00131285
4501.83640869,0.00136762
4503.76521606,0.00133485
4505.69402344,0.00129393
4507.62283081,0.00136581
4509.55163818,0.00127619
4511.48044556,0.00126444
4513.40925293,0.00129181
4515.33806030,0.00128249
4517.26686768,0.00127999
4519.19567505,0.00121459
4521.12448242,0.00127778
4523.05328979,0.00136842
4524.98209717,0.00130520
4526.91090454,0.00129175
4528.83971191,0.00130962
4530.76851929,0.00125191
4532.69732666,0.00127937
4534.62613403,0.00122646
4536.55494141,0.00123512
4538.48374878,0.00134946
4540.41255615,0.00120917
4542.34136353,0.00120972
4544.27017090,0.00132440
4546.19897827,0.00125775
4548.12778564,0.00120569
4550.05659302,0.00121273
4551.98540039,0.00128587
4553.91420776,0.00130170
4555.84301514,0.00128349
4557.77182251,0.00130453
4559.70062988,0.00120568
4561.62943726,0.00117037
4563.55824463,0.00131230
4565.48705200,0.00128209
4567.41585937,0.00121567
4569.34466675,0.00125586
4571.27347412,0.00122983
4573.20228149,0.00123889
4575.13108887,0.00117649
4577.05989624,0.00115064
4578.98870361,0.00120859
4580.91751099,0.00118438
4582.84631836,0.00115811
4584.77512573,0.00114220
4586.70393311,0.00118979
4588.63274048,0.00118407
4590.56154785,0.00120746
4592.49035522,0.00124960
4594.41916260,0.00119105
4596.34796997,0.00115803
4598.27677734,0.00116100
4600.20558472,0.00125643
4602.13439209,0.00122182
4604.06319946,0.00115388
4605.99200684,0.00115111
4607.92081421,0.00111034
4609.84962158,0.00115635
4611.77842895,0.00115236
4613.70723633,0.00116274
4615.63604370,0.00116943
4617.56485107,0.00118964
4619.49365845,0.00118723
4621.42246582,0.00112892
4623.35127319,0.00115245
4625.28008057,0.00116378
4627.20888794,0.00120895
4629.13769531,0.00113769
4631.06650269,0.00112588
4632.99531006,0.00116461
4634.92411743,0.00112938
4636.85292480,0.00117834
4638.78173218,0.00109711
4640.71053955,0.00111280
4642.63934692,0.00112784
4644.56815430,0.00108788
4646.49696167,0.00109201
4648.42576904,0.00107094
4650.35457642,0.00112971
4652.28338379,0.00109677
4654.21219116,0.00114910
4656.14099853,0.00108710
4658.06980591,0.00105257
4659.99861328,0.00113573
4661.92742065,0.00101395
4663.85622803,0.00113210
4665.78503540,0.00116115
4667.71384277,0.00107484
4669.64265015,0.00111752
4671.57145752,0.00110514
4673.50026489,0.00111638
4675.42907227,0.00107234
4677.35787964,0.00114236
4679.28668701,0.00111652
4681.21549438,0.00100678
4683.14430176,0.00106050
4685.07310913,0.00102767
4687.00191650,0.00102803
4688.93072388,0.00109341
4690.85953125,0.00105997
4692.78833862,0.00103659
4694.71714600,0.00110852
4696.64595337,0.00113632
4698.57476074,0.00109976
4700.50356812,0.00106314
4702.43237549,0.00107649
4704.36118286,0.00106477
4706.28999023,0.00100122
4708.21879761,0.00104716
4710.14760498,0.00098330
4712.07641235,0.00096225
4714.00521973,0.00109143
4715.93402710,0.00104504
4717.86283447,0.00097451
4719.79164185,0.00093484
4721.72044922,0.00092705
4723.64925659,0.00102916
4725.57806396,0.00106878
4727.50687134,0.00098122
4729.43567871,0.00097708
4731.36448608,0.00099603
4733.29329346,0.00097027
4735.22210083,0.00100608
4737.15090820,0.00097297
4739.07971558,0.00095776
4741.00852295,0.00096788
4742.93733032,0.00097776
4744.86613770,0.00093233
4746.79494507,0.00091742
4748.72375244,0.00105991
4750.65255981,0.00097543
4752.58136719,0.00092325
4754.51017456,0.00101525
4756.43898193,0.00098934
4758.36778931,0.00098045
4760.29659668,0.00097113
4762.22540405,0.00096320
4764.15421143,0.00091425
4766.08301880,0.00089817
4768.01182617,0.00092984
4769.94063354,0.00097566
4771.86944092,0.00099280
4773.79824829,0.00097954
4775.72705566,0.00100030
4777.65586304,0.00094011
4779.58467041,0.00091781
4781.51347778,0.00089295
4783.44228516,0.00090367
4785.37109253,0.00091845
4787.29989990,0.00090498
4789.22870728,0.00095443
4791.15751465,0.00092057
4793.08632202,0.00096557
4795.01512939,0.00091817
4796.94393677,0.00084347
4798.87274414,0.00085415
4800.80155151,0.00088836
4802.73035889,0.00096121
4804.65916626,0.00086586
4806.58797363,0.00097277
4808.51678101,0.00097576
4810.44558838,0.00085154
4812.37439575,0.00093149
4814.30320312,0.00089874
4816.23201050,0.00094186
4818.16081787,0.00093502
4820.08962524,0.00089195
4822.01843262,0.00088395
4823.94723999,0.00090780
4825.87604736,0.00091567
4827.80485474,0.00086534
4829.73366211,0.00098300
4831.66246948,0.00093811
4833.59127686,0.00095939
4835.52008423,0.00092650
4837.44889160,0.00076090
4839.37769897,0.00091330
4841.30650635,0.00093232
4843.23531372,0.00091065
4845.16412109,0.00091113
4847.09292847,0.00086579
4849.02173584,0.00092636
4850.95054321,0.00087113
4852.87935059,0.00081474
4854.80815796,0.00086127
4856.73696533,0.00086413
4858.66577270,0.00084617
4860.59458008,0.00089324
4862.52338745,0.00086031
4864.45219482,0.00084289
4866.38100220,0.00086851
4868.30980957,0.00086846
4870.23861694,0.00086658
4872.16742432,0.00081671
4874.09623169,0.00088510
4876.02503906,0.00082107
4877.95384644,0.00079701
4879.88265381,0.00090881
4881.81146118,0.00080476
4883.74026855,0.00082714
4885.66907593,0.00089558
4887.59788330,0.00082617
4889.52669067,0.00076253
4891.45549805,0.00080094
4893.38430542,0.00082242
4895.31311279,0.00078251
4897.24192017,0.00084176
4899.17072754,0.00079697
4901.09953491,0.00080021
4903.02834228,0.00084871
4904.95714966,0.00082163
4906.88595703,0.00087441
4908.81476440,0.00083316
4910.74357178,0.00077838
4912.67237915,0.00077804
4914.60118652,0.00078818
4916.52999390,0.00083741
4918.45880127,0.00078481
4920.38760864,0.00076116
4922.31641602,0.00082128
4924.24522339,0.00073886
4926.17403076,0.00073449
4928.10283813,0.00085987
4930.03164551,0.00085501
4931.96045288,0.00082039
4933.88926025,0.00080111
4935.81806763,0.00078012
4937.74687500,0.00073239
4939.67568237,0.00076648
4941.60448975,0.00081574
4943.53329712,0.00073510
4945.46210449,0.00071117
4947.39091187,0.00072399
4949.31971924,0.00076671
4951.24852661,0.00077576
4953.17733398,0.00081119
4955.10614136,0.00081103
4957.03494873,0.00077320
4958.96375610,0.00081476
4960.89256348,0.00071936
4962.82137085,0.00075426
4964.75017822,0.00073188
4966.67898560,0.00068545
4968.60779297,0.00079938
4970.53660034,0.00079427
4972.46540771,0.00083016
4974.39421509,0.00072536
4976.32302246,0.00072008
4978.25182983,0.00073732
4980.18063721,0.00068669
4982.10944458,0.00078060
4984.03825195,0.00070899
4985.96705933,0.00073456
4987.89586670,0.00071007
4989.82467407,0.00069894
4991.75348145,0.00077435
4993.68228882,0.00072730
4995.61109619,0.00074972
4997.53990356,0.00073720
4999.46871094,0.00074638
5001.39751831,0.00068706
5003.32632568,0.00070650
5005.25513306,0.00071963
5007.18394043,0.00065372
5009.11274780,0.00071341
5011.04155518,0.00068044
5012.97036255,0.00072503
5014.89916992,0.00069365
5016.82797729,0.00064581
5018.75678467,0.00071951
5020.68559204,0.00072603
5022.61439941,0.00071436
5024.54320679,0.00067325
5026.47201416,0.00070724
5028.40082153,0.00071018
5030.32962891,0.00071078
5032.25843628,0.00066601
5034.18724365,0.00066471
5036.11605103,0.00070696
5038.04485840,0.00063732
5039.97366577,0.00067932
5041.90247314,0.00063376
5043.83128052,0.00063107
5045.76008789,0.00068706
5047.68889526,0.00070307
5049.61770264,0.00072931
5051.54651001,0.00064578
5053.47531738,0.00064436
5055.40412476,0.00063062
5057.33293213,0.00063474
5059.26173950,0.00063649
5061.19054687,0.00063014
5063.11935425,0.00064410
5065.04816162,0.00068373
5066.97696899,0.00071557
5068.90577637,0.00057803
5070.83458374,0.00064251
5072.76339111,0.00062521
5074.69219849,0.00059328
5076.62100586,0.00073895
5078.54981323,0.00068492
5080.47862061,0.00067049
5082.40742798,0.00060214
5084.33623535,0.00061652
5086.26504272,0.00068061
5088.19385010,0.00063545
5090.12265747,0.00063881
5092.05146484,0.00060341
5093.98027222,0.00062593
5095.90907959,0.00062376
5097.83788696,0.00063375
5099.76669434,0.00064965
5101.69550171,0.00067243
5103.62430908,0.00065766
5105.55311645,0.00060522
5107.48192383,0.00062294
5109.41073120,0.00058677
5111.33953857,0.00068445
5113.26834595,0.00065555
5115.19715332,0.00057698
5117.12596069,0.00065069
5119.05476807,0.00059847
5120.98357544,0.00057859
5122.91238281,0.00056887
5124.84119019,0.00062505
5126.76999756,0.00061481
5128.69880493,0.00059307
5130.62761230,0.00066326
5132.55641968,0.00058505
5134.48522705,0.00061010
5136.41403442,0.00064225
5138.34284180,0.00057730
5140.27164917,0.00054025
5142.20045654,0.00060663
5144.12926392,0.00064097
5146.05807129,0.00057275
5147.98687866,0.00068676
5149.91568603,0.00063587
5151.84449341,0.00055230
5153.77330078,0.00061344
5155.70210815,0.00052892
5157.63091553,0.00058479
5159.55972290,0.00059969
5161.48853027,0.00056419
5163.41733765,0.00057550
5165.34614502,0.00050655
5167.27495239,0.00062570
5169.20375977,0.00061325
5171.13256714,0.00052423
5173.06137451,0.00059021
5174.99018188,0.00055122
5176.91898926,0.00058464
5178.84779663,0.00056975
5180.77660400,0.00054496
5182.70541138,0.00060916
5184.63421875,0.00055212
5186.56302612,0.00053567
5188.49183350,0.00054612
5190.42064087,0.00053539
5192.34944824,0.00052804
5194.27825562,0.00054586
5196.20706299,0.00051551
5198.13587036,0.00049491
5200.06467773,0.00057540
5201.99348511,0.00054179
5203.92229248,0.00055413
5205.85109985,0.00054439
5207.77990723,0.00051616
5209.70871460,0.00059504
5211.63752197,0.00055650
5213.56632935,0.00054183
5215.49513672,0.00057127
5217.42394409,0.00056079
5219.35275146,0.00052130
5221.28155884,0.00056628
5223.21036621,0.00061896
5225.13917358,0.00054454
5227.06798096,0.00050888
5228.99678833,0.00049282
5230.92559570,0.00054561
5232.85440308,0.00055087
5234.78321045,0.00052540
5236.71201782,0.00055897
5238.64082520,0.00054201
5240.56963257,0.00052405
5242.49843994,0.00046917
5244.42724731,0.00046367
5246.35605469,0.00050752
5248.28486206,0.00055276
5250.21366943,0.00047811
5252.14247681,0.00045143
5254.07128418,0.00054432
5256.00009155,0.00048144
5257.92889893,0.00051397
5259.85770630,0.00049864
5261.78651367,0.00046893
5263.71532104,0.00050933
5265.64412842,0.00043466
5267.57293579,0.00044898
5269.50174316,0.00050059
5271.43055054,0.00058649
5273.35935791,0.00052999
5275.28816528,0.00046385
5277.21697266,0.00050350
5279.14578003,0.00048228
5281.07458740,0.00054594
5283.00339478,0.00046864
5284.93220215,0.00042862
5286.86100952,0.00052173
5288.78981689,0.00051069
5290.71862427,0.00048736
5292.64743164,0.00050280
5294.57623901,0.00050896
5296.50504639,0.00043984
5298.43385376,0.00048752
5300.36266113,0.00052528
5302.29146851,0.00048213
5304.22027588,0.00049303
5306.14908325,0.00046735
5308.07789062,0.00046469
5310.00669800,0.00046444
5311.93550537,0.00044895
5313.86431274,0.00042932
5315.79312012,0.00044297
5317.72192749,0.00044574
5319.65073486,0.00046621
5321.57954224,0.00052319
5323.50834961,0.00047398
5325.43715698,0.00045751
5327.36596436,0.00044661
5329.29477173,0.00045588
5331.22357910,0.00051783
5333.15238647,0.00046716
5335.08119385,0.00042656
5337.01000122,0.00045875
5338.93880859,0.00043703
5340.86761597,0.00040900
5342.79642334,0.00040263
5344.72523071,0.00037897
5346.65403809,0.00043237
5348.58284546,0.00037662
5350.51165283,0.00036073
5352.44046020,0.00048559
5354.36926758,0.00041674
5356.29807495,0.00041278
5358.22688232,0.00042966
5360.15568970,0.00045218
5362.08449707,0.00051444
5364.01330444,0.00040698
5365.94211182,0.00042746
5367.87091919,0.00043288
5369.79972656,0.00038828
5371.72853394,0.00044775
5373.65734131,0.00042215
5375.58614868,0.00043978
5377.51495605,0.00043015
5379.44376343,0.00035107
5381.37257080,0.00041126
5383.30137817,0.00046748
5385.23018555,0.00044346
5387.15899292,0.00041001
5389.08780029,0.00037772
5391.01660767,0.00040564
5392.94541504,0.00041702
5394.87422241,0.00043655
5396.80302978,0.00040709
5398.73183716,0.00034633
5400.66064453,0.00040592
5402.58945190,0.00039887
5404.51825928,0.00044314
5406.44706665,0.00045606
5408.37587402,0.00041450
5410.30468140,0.00047553
5412.23348877,0.00038039
5414.16229614,0.00037434
5416.09110352,0.00040198
5418.01991089,0.00040516
5419.94871826,0.00046704
5421.87752563,0.00034047
5423.80633301,0.00033554
5425.73514038,0.00037797
5427.66394775,0.00033974
5429.59275513,0.00037864
5431.52156250,0.00038872
5433.45036987,0.00037385
5435.37917725,0.00035736
5437.30798462,0.00039642
5439.23679199,0.00039258
5441.16559936,0.00036098
5443.09440674,0.00039922
5445.02321411,0.00040402
5446.95202148,0.00034201
5448.88082886,0.00030299
5450.80963623,0.00035350
5452.73844360,0.00038454
5454.66725098,0.00040034
5456.59605835,0.00037427
5458.52486572,0.00037444
5460.45367310,0.00038591
5462.38248047,0.00030079
5464.31128784,0.00037416
5466.24009521,0.00039733
5468.16890259,0.00036346
5470.09770996,0.00042754
5472.02651733,0.00038415
5473.95532471,0.00043136
5475.88413208,0.00037710
5477.81293945,0.00032349
5479.74174683,0.00046059
5481.67055420,0.00037461
5483.59936157,0.00036632
5485.52816895,0.00038004
5487.45697632,0.00025511
5489.38578369,0.00032758
5491.31459106,0.00035349
5493.24339844,0.00033500
5495.17220581,0.00037366
5497.10101318,0.00032640
5499.02982056,0.00032906
5500.95862793,0.00036434
5502.88743530,0.00030632
5504.81624268,0.00031978
5506.74505005,0.00038752
5508.67385742,0.00033197
5510.60266479,0.00032842
5512.53147217,0.00030921
5514.46027954,0.00030219
5516.38908691,0.00042316
5518.31789429,0.00037670
5520.24670166,0.00035896
5522.17550903,0.00040921
5524.10431641,0.00035557
5526.03312378,0.00038366
5527.96193115,0.00038274
5529.89073853,0.00034214
5531.81954590,0.00033171
5533.74835327,0.00031583
5535.67716064,0.00036831
5537.60596802,0.00035014
5539.53477539,0.00027859
5541.46358276,0.00031845
5543.39239014,0.00030843
5545.32119751,0.00028749
5547.25000488,0.00031969
5549.17881226,0.00029093
5551.10761963,0.00028920
5553.03642700,0.00030516
5554.96523437,0.00033652
5556.89404175,0.00029751
5558.82284912,0.00022904
5560.75165649,0.00031465
5562.68046387,0.00035363
5564.60927124,0.00034425
5566.53807861,0.00031944
5568.46688599,0.00026104
5570.39569336,0.00027705
5572.32450073,0.00027533
5574.25330811,0.00024720
5576.18211548,0.00027339
5578.11092285,0.00033562
5580.03973022,0.00037985
5581.96853760,0.00039260
5583.89734497,0.00030211
5585.82615234,0.00027642
5587.75495972,0.00035512
5589.68376709,0.00032577
5591.61257446,0.00030680
5593.54138184,0.00027398
5595.47018921,0.00033376
5597.39899658,0.00036022
5599.32780395,0.00029071
5601.25661133,0.00037718
5603.18541870,0.00028534
5605.11422607,0.00026719
5607.04303345,0.00034404
5608.97184082,0.00028740
5610.90064819,0.00035106
5612.82945557,0.00024383
5614.75826294,0.00022372
5616.68707031,0.00038148
5618.61587769,0.00036190
5620.54468506,0.00034834
5622.47349243,0.00031022
5624.40229980,0.00032236
5626.33110718,0.00037404
5628.25991455,0.00032832
5630.18872192,0.00025415
5632.11752930,0.00018232
5634.04633667,0.00025962
5635.97514404,0.00032209
5637.90395142,0.00027012
5639.83275879,0.00030193
5641.76156616,0.00027165
5643.69037353,0.00020010
5645.61918091,0.00025230
5647.54798828,0.00031280
5649.47679565,0.00030375
5651.40560303,0.00029477
5653.33441040,0.00033563
5655.26321777,0.00025748
5657.19202515,0.00020300
5659.12083252,0.00030264
5661.04963989,0.00021841
5662.97844727,0.00018852
5664.90725464,0.00029853
5666.83606201,0.00027433
5668.76486938,0.00027594
5670.69367676,0.00026606
5672.62248413,0.00028021
5674.55129150,0.00027257
5676.48009888,0.00026066
5678.40890625,0.00031817
5680.33771362,0.00023801
5682.26652100,0.00029027
5684.19532837,0.00027977
5686.12413574,0.00020453
5688.05294311,0.00031977
5689.98175049,0.00022419
5691.91055786,0.00022340
5693.83936523,0.00026939
5695.76817261,0.00023674
5697.69697998,0.00032342
5699.62578735,0.00026456
5701.55459473,0.00021538
5703.48340210,0.00022924
5705.41220947,0.00030428
5707.34101685,0.00027319
5709.26982422,0.00018909
5711.19863159,0.00022340
5713.12743896,0.00018830
5715.05624634,0.00033358
5716.98505371,0.00030398
5718.91386108,0.00017829
5720.84266846,0.00024814
5722.77147583,0.00020040
5724.70028320,0.00025256
5726.62909058,0.00026566
5728.55789795,0.00026947
5730.48670532,0.00027120
5732.41551270,0.00024717
5734.34432007,0.00027639
5736.27312744,0.00020620
5738.20193481,0.00028009
5740.13074219,0.00026323
5742.05954956,0.00022910
5743.98835693,0.00029266
5745.91716431,0.00028866
5747.84597168,0.00033371
5749.77477905,0.00023045
5751.70358643,0.00022074
5753.63239380,0.00028492
5755.56120117,0.00023314
5757.49000854,0.00021278
5759.41881592,0.00021160
5761.34762329,0.00024920
5763.27643066,0.00025930
5765.20523804,0.00023514
5767.13404541,0.00016614
5769.06285278,0.00018444
5770.99166016,0.00020654
5772.92046753,0.00019503
5774.84927490,0.00026003
5776.77808228,0.00021860
5778.70688965,0.00019138
5780.63569702,0.00020814
5782.56450439,0.00026863
5784.49331177,0.00029085
5786.42211914,0.00020467
5788.35092651,0.00017056
5790.27973389,0.00017157
5792.20854126,0.00019568
5794.13734863,0.00016069
5796.06615601,0.00016924
5797.99496338,0.00020698
5799.92377075,0.00022091
5801.85257812,0.00021990
5803.78138550,0.00018889
5805.71019287,0.00023921
5807.63900024,0.00020111
5809.56780762,0.00018952
5811.49661499,0.00018406
5813.42542236,0.00017070
5815.35422974,0.00026692
5817.28303711,0.00021701
5819.21184448,0.00016322
5821.14065186,0.00016173
5823.06945923,0.00018307
5824.99826660,0.00019581
5826.92707397,0.00019688
5828.85588135,0.00024629
5830.78468872,0.00018644
5832.71349609,0.00022038
5834.64230347,0.00023098
5836.57111084,0.00010927
5838.49991821,0.00014490
5840.42872559,0.00018798
5842.35753296,0.00013637
5844.28634033,0.00014729
5846.21514770,0.00017532
5848.14395508,0.00015670
5850.07276245,0.00016834
5852.00156982,0.00015076
5853.93037720,0.00018127
5855.85918457,0.00020261
5857.78799194,0.00016897
5859.71679932,0.00020925
5861.64560669,0.00017392
5863.57441406,0.00019377
5865.50322144,0.00024066
5867.43202881,0.00021252
5869.36083618,0.00024417
5871.28964355,0.00021865
5873.21845093,0.00015918
5875.14725830,0.00015339
5877.07606567,0.00020388
5879.00487305,0.00021778
5880.93368042,0.00014226
5882.86248779,0.00011325
5884.79129517,0.00017723
5886.72010254,0.00023265
5888.64890991,0.00021127
5890.57771728,0.00018534
5892.50652466,0.00020082
5894.43533203,0.00022138
5896.36413940,0.00017956
5898.29294678,0.00017069
5900.22175415,0.00020303
5902.15056152,0.00016829
5904.07936890,0.00019180
5906.00817627,0.00020677
5907.93698364,0.00017295
5909.86579102,0.00018344
5911.79459839,0.00017770
5913.72340576,0.00018163
5915.65221313,0.00016988
5917.58102051,0.00014456
5919.50982788,0.00019708
5921.43863525,0.00024112
5923.36744263,0.00022668
5925.29625000,0.00022346
5927.22505737,0.00021755
5929.15386475,0.00019276
5931.08267212,0.00015058
5933.01147949,0.00015360
5934.94028686,0.00015682
5936.86909424,0.00014224
5938.79790161,0.00019880
5940.72670898,0.00016044
5942.65551636,0.00015413
5944.58432373,0.00022220
5946.51313110,0.00017976
5948.44193848,0.00016601
5950.37074585,0.00015654
5952.29955322,0.00014017
5954.22836060,0.00017531
5956.15716797,0.00021513
5958.08597534,0.00015121
5960.01478271,0.00013573
5961.94359009,0.00020387
5963.87239746,0.00013738
5965.80120483,0.00015617
5967.73001221,0.00016568
5969.65881958,0.00014535
5971.58762695,0.00019102
5973.51643433,0.00017828
5975.44524170,0.00015452
5977.37404907,0.00005775
5979.30285645,0.00013987
5981.23166382,0.00021569
5983.16047119,0.00015380
5985.08927856,0.00016944
5987.01808594,0.00008827
5988.94689331,0.00014373
5990.87570068,0.00020410
5992.80450806,0.00016517
5994.73331543,0.00015137
5996.66212280,0.00009842
5998.59093018,0.00017711
6000.51973755,0.00016891
