399.26312622,0.00043544
401.19193359,0.00047036
403.12074097,0.00025061
405.04954834,0.00012333
406.97835571,0.00038463
408.90716309,0.00019040
410.83597046,0.00005744
412.76477783,0.00042625
414.69358521,0.00022672
416.62239258,0.00047095
418.55119995,0.00002974
420.48000732,-0.00006642
422.40881470,0.00033515
424.33762207,-0.00015153
426.26642944,0.00034106
428.19523682,0.00018275
430.12404419,0.00003680
432.05285156,0.00043777
433.98165894,0.00030469
435.91046631,0.00011955
437.83927368,0.00003405
439.76808105,0.00066380
441.69688843,0.00031898
443.62569580,-0.00015646
445.55450317,0.00020971
447.48331055,0.00006106
449.41211792,-0.00001372
451.34092529,0.00016921
453.26973267,0.00019665
455.19854004,0.00022416
457.12734741,0.00031271
459.05615479,0.00011881
460.98496216,0.00038861
462.91376953,0.00030211
464.84257690,0.00000432
466.77138428,0.00041951
468.70019165,0.00018736
470.62899902,-0.00001456
472.55780640,0.00007337
474.48661377,-0.00011625
476.41542114,0.00030374
478.34422852,0.00031248
480.27303589,-0.00001732
482.20184326,0.00017562
484.13065063,0.00018880
486.05945801,0.00018572
487.98826538,0.00020176
489.91707275,0.00007826
491.84588013,0.00009767
493.77468750,0.00023788
495.70349487,0.00016734
497.63230225,0.00019289
499.56110962,0.00030529
501.48991699,0.00036226
503.41872437,0.00042951
505.34753174,0.00008095
507.27633911,0.00028089
509.20514648,0.00050921
511.13395386,0.00002891
513.06276123,0.00021125
514.99156860,0.00029293
516.92037598,0.00000691
518.84918335,0.00002874
520.77799072,0.00024505
522.70679810,0.00030822
524.63560547,0.00021611
526.56441284,0.00030280
528.49322021,0.00006436
530.42202759,0.00029236
532.35083496,0.00050316
534.27964233,0.00000283
536.20844971,0.00004267
538.13725708,0.00013005
540.06606445,0.00022437
541.99487183,0.00041089
543.92367920,0.00030928
545.85248657,0.00014574
547.78129395,0.00014207
549.71010132,0.00042563
551.63890869,0.00043060
553.56771606,0.00007204
555.49652344,0.00016732
557.42533081,0.00032911
559.35413818,-0.00017938
561.28294556,-0.00007759
563.21175293,0.00009870
565.14056030,-0.00004511
567.06936768,0.00008871
568.99817505,-0.00007356
570.92698242,0.00013394
572.85578979,0.00006339
574.78459717,0.00006826
576.71340454,0.00026708
578.64221191,0.00020459
580.57101929,0.00028783
582.49982666,0.00013182
584.42863403,0.00029690
586.35744141,0.00009080
588.28624878,0.00006152
590.21505615,0.00026376
592.14386353,0.00017899
594.07267090,0.00015974
596.00147827,0.00004931
597.93028564,0.00021782
599.85909302,-0.00011304
601.78790039,0.00011992
603.71670776,0.00051607
605.64551514,0.00026725
607.57432251,0.00005665
609.50312988,-0.00019950
611.43193726,0.00004803
613.36074463,0.00010808
615.28955200,0.00047652
617.21835938,0.00035811
619.14716675,-0.00005517
621.07597412,0.00033520
623.00478149,0.00006269
624.93358887,0.00001798
626.86239624,0.00008995
628.79120361,-0.00002560
630.72001099,0.00003008
632.64881836,0.00005866
634.57762573,0.00026748
636.50643311,0.00045760
638.43524048,0.00022860
640.36404785,-0.00004257
642.29285522,0.00027724
644.22166260,0.00023492
646.15046997,0.00043503
648.07927734,0.00065522
650.00808472,0.00038648
651.93689209,0.00032632
653.86569946,0.00027359
655.79450684,0.00044590
657.72331421,0.00034026
659.65212158,0.00040272
661.58092896,0.00068205
663.50973633,0.00051115
665.43854370,0.00021257
667.36735107,0.00028299
669.29615845,0.00064897
671.22496582,0.00044037
673.15377319,0.00040034
675.08258057,0.00059622
677.01138794,0.00063026
678.94019531,0.00065112
680.86900269,0.00038706
682.79781006,0.00041559
684.72661743,0.00049063
686.65542480,0.00034477
688.58423218,0.00041352
690.51303955,0.00053275
692.44184692,0.00037478
694.37065430,0.00065512
696.29946167,0.00078580
698.22826904,0.00030557
700.15707642,0.00064157
702.08588379,0.00083035
704.01469116,0.00079856
705.94349854,0.00061803
707.87230591,0.00031053
709.80111328,0.00067618
711.72992065,0.00039752
713.65872803,0.00020708
715.58753540,0.00011705
717.51634277,0.00004336
719.44515015,0.00019629
721.37395752,-0.00012705
723.30276489,0.00017342
725.23157227,0.00020606
727.16037964,0.00014128
729.08918701,0.00016712
731.01799438,-0.00006977
732.94680176,0.00022951
734.87560913,0.00000648
736.80441650,0.00008061
738.73322388,0.00046741
740.66203125,0.00000722
742.59083862,0.00002776
744.51964600,0.00033160
746.44845337,0.00020571
748.37726074,0.00034826
750.30606812,0.00030268
752.23487549,0.00000950
754.16368286,0.00005688
756.09249023,0.00019521
758.02129761,0.00013940
759.95010498,0.00010124
761.87891235,0.00027899
763.80771973,0.00006159
765.73652710,0.00007450
767.66533447,0.00016180
769.59414185,-0.00002669
771.52294922,0.00032106
773.45175659,0.00041014
775.38056396,0.00040827
777.30937134,0.00016874
779.23817871,-0.00003535
781.16698608,0.00004638
783.09579346,-0.00003837
785.02460083,0.00021720
786.95340820,0.00025614
788.88221558,0.00025505
790.81102295,0.00002265
792.73983032,0.00007967
794.66863770,0.00044063
796.59744507,0.00009627
798.52625244,0.00013247
800.45505981,0.00019356
802.38386719,0.00009745
804.31267456,0.00008580
806.24148193,0.00022166
808.17028931,0.00042944
810.09909668,0.00004142
812.02790405,-0.00000179
813.95671143,0.00028462
815.88551880,0.00015012
817.81432617,0.00015921
819.74313354,0.00049077
821.67194092,0.00030291
823.60074829,0.00019678
825.52955566,0.00055027
827.45836304,0.00027556
829.38717041,0.00011815
831.31597778,0.00031609
833.24478516,0.00019112
835.17359253,-0.00004545
837.10239990,0.00013232
839.03120728,0.00020615
840.96001465,0.00016421
842.88882202,0.00056399
844.81762939,0.00042666
846.74643677,0.00036497
848.67524414,0.00039381
850.60405151,0.00038738
852.53285889,0.00050237
854.46166626,0.00018191
856.39047363,0.00035090
858.31928101,0.00027227
860.24808838,0.00025990
862.17689575,0.00040137
864.10570313,0.00014346
866.03451050,0.00037226
867.96331787,0.00034920
869.89212524,0.00039868
871.82093262,0.00012627
873.74973999,0.00012269
875.67854736,0.00063126
877.60735474,0.00013451
879.53616211,0.00019953
881.46496948,0.00040071
883.39377686,0.00014892
885.32258423,0.00031513
887.25139160,0.00028470
889.18019897,0.00011129
891.10900635,0.00014691
893.03781372,0.00030197
894.96662109,0.00028940
896.89542847,0.00015335
898.82423584,0.00012516
900.75304321,0.00016647
902.68185059,0.00023034
904.61065796,0.00047101
906.53946533,0.00033592
908.46827271,0.00030390
910.39708008,0.00056862
912.32588745,0.00009437
914.25469482,0.00018067
916.18350220,0.00052833
918.11230957,0.00034571
920.04111694,0.00038877
921.96992432,0.00043690
923.89873169,0.00056118
925.82753906,0.00056955
927.75634644,0.00056880
929.68515381,0.00059093
931.61396118,0.00051603
933.54276855,0.00050721
935.47157593,0.00047202
937.40038330,0.00044396
939.32919067,0.00036330
941.25799805,0.00039160
943.18680542,0.00036631
945.11561279,0.00038697
947.04442017,0.00051961
948.97322754,0.00051047
950.90203491,0.00063408
952.83084229,0.00069711
954.75964966,0.00061230
956.68845703,0.00052524
958.61726440,0.00041496
960.54607178,0.00052067
962.47487915,0.00058212
964.40368652,0.00044799
966.33249390,0.00042521
968.26130127,0.00056722
970.19010864,0.00084132
972.11891602,0.00058596
974.04772339,0.00022761
975.97653076,0.00057529
977.90533813,0.00065230
979.83414551,0.00051006
981.76295288,0.00066366
983.69176025,0.00069125
985.62056763,0.00059015
987.54937500,0.00087130
989.47818237,0.00103287
991.40698975,0.00085864
993.33579712,0.00115867
995.26460449,0.00117537
997.19341187,0.00118599
999.12221924,0.00146052
1001.05102661,0.00137480
1002.97983398,0.00146960
1004.90864136,0.00143359
1006.83744873,0.00148344
1008.76625610,0.00183472
1010.69506348,0.00192825
1012.62387085,0.00186104
1014.55267822,0.00202345
1016.48148560,0.00227550
1018.41029297,0.00218562
1020.33910034,0.00223686
1022.26790771,0.00248253
1024.19671509,0.00256737
1026.12552246,0.00271862
1028.05432983,0.00300213
1029.98313721,0.00293012
1031.91194458,0.00281735
1033.84075195,0.00304583
1035.76955933,0.00299585
1037.69836670,0.00293034
1039.62717407,0.00293529
1041.55598145,0.00298325
1043.48478882,0.00314614
1045.41359619,0.00306115
1047.34240356,0.00280723
1049.27121094,0.00273234
1051.20001831,0.00285565
1053.12882568,0.00270576
1055.05763306,0.00255042
1056.98644043,0.00249691
1058.91524780,0.00268024
1060.84405518,0.00272768
1062.77286255,0.00247646
1064.70166992,0.00264471
1066.63047729,0.00239979
1068.55928467,0.00217668
1070.48809204,0.00217087
1072.41689941,0.00215844
1074.34570679,0.00227505
1076.27451416,0.00185523
1078.20332153,0.00178117
1080.13212891,0.00178127
1082.06093628,0.00168467
1083.98974365,0.00183681
1085.91855103,0.00175355
1087.84735840,0.00146794
1089.77616577,0.00134524
1091.70497314,0.00157761
1093.63378052,0.00142557
1095.56258789,0.00147182
1097.49139526,0.00148621
1099.42020264,0.00126661
1101.34901001,0.00133401
1103.27781738,0.00114391
1105.20662476,0.00131233
1107.13543213,0.00132774
1109.06423950,0.00122768
1110.99304687,0.00134764
1112.92185425,0.00124060
1114.85066162,0.00125201
1116.77946899,0.00135703
1118.70827637,0.00149128
1120.63708374,0.00131874
1122.56589111,0.00133353
1124.49469849,0.00134342
1126.42350586,0.00124171
1128.35231323,0.00131377
1130.28112061,0.00135369
1132.20992798,0.00157912
1134.13873535,0.00135457
1136.06754272,0.00135678
1137.99635010,0.00152681
1139.92515747,0.00154839
1141.85396484,0.00171136
1143.78277222,0.00166332
1145.71157959,0.00187179
1147.64038696,0.00183970
1149.56919434,0.00195498
1151.49800171,0.00219045
1153.42680908,0.00225480
1155.35561646,0.00245345
1157.28442383,0.00240647
1159.21323120,0.00272446
1161.14203857,0.00263808
1163.07084595,0.00234160
1164.99965332,0.00281225
1166.92846069,0.00301622
1168.85726807,0.00300599
1170.78607544,0.00311732
1172.71488281,0.00311900
1174.64369019,0.00323438
1176.57249756,0.00334056
1178.50130493,0.00349150
1180.43011230,0.00375810
1182.35891968,0.00376468
1184.28772705,0.00394263
1186.21653442,0.00413594
1188.14534180,0.00425829
1190.07414917,0.00438123
1192.00295654,0.00447377
1193.93176392,0.00499126
1195.86057129,0.00505760
1197.78937866,0.00522493
1199.71818604,0.00557345
1201.64699341,0.00563049
1203.57580078,0.00610961
1205.50460815,0.00629093
1207.43341553,0.00642954
1209.36222290,0.00663521
1211.29103027,0.00681618
1213.21983765,0.00695473
1215.14864502,0.00710949
1217.07745239,0.00748705
1219.00625977,0.00734031
1220.93506714,0.00739090
1222.86387451,0.00756531
1224.79268188,0.00763179
1226.72148926,0.00780815
1228.65029663,0.00780705
1230.57910400,0.00785506
1232.50791138,0.00792924
1234.43671875,0.00808355
1236.36552612,0.00786025
1238.29433350,0.00782057
1240.22314087,0.00792911
1242.15194824,0.00780727
1244.08075562,0.00785200
1246.00956299,0.00777004
1247.93837036,0.00798370
1249.86717773,0.00794880
1251.79598511,0.00775420
1253.72479248,0.00771456
1255.65359985,0.00752013
1257.58240723,0.00750000
1259.51121460,0.00729857
1261.44002197,0.00717018
1263.36882935,0.00712909
1265.29763672,0.00693610
1267.22644409,0.00681065
1269.15525146,0.00697860
1271.08405884,0.00690606
1273.01286621,0.00645377
1274.94167358,0.00643349
1276.87048096,0.00655115
1278.79928833,0.00655250
1280.72809570,0.00633403
1282.65690308,0.00621719
1284.58571045,0.00609502
1286.51451782,0.00599001
1288.44332520,0.00600386
1290.37213257,0.00569086
1292.30093994,0.00573880
1294.22974731,0.00565902
1296.15855469,0.00574389
1298.08736206,0.00592256
1300.01616943,0.00572412
1301.94497681,0.00595258
1303.87378418,0.00582288
1305.80259155,0.00579455
1307.73139893,0.00602471
1309.66020630,0.00597435
1311.58901367,0.00594933
1313.51782104,0.00619908
1315.44662842,0.00658647
1317.37543579,0.00657808
1319.30424316,0.00674614
1321.23305054,0.00702123
1323.16185791,0.00735596
1325.09066528,0.00750516
1327.01947266,0.00763559
1328.94828003,0.00794741
1330.87708740,0.00784977
1332.80589478,0.00801972
1334.73470215,0.00808158
1336.66350952,0.00832816
1338.59231689,0.00838721
1340.52112427,0.00821179
1342.44993164,0.00883549
1344.37873901,0.00888849
1346.30754639,0.00886448
1348.23635376,0.00887453
1350.16516113,0.00876123
1352.09396851,0.00877319
1354.02277588,0.00851219
1355.95158325,0.00875361
1357.88039062,0.00855212
1359.80919800,0.00816652
1361.73800537,0.00803859
1363.66681274,0.00792372
1365.59562012,0.00828435
1367.52442749,0.00812361
1369.45323486,0.00810167
1371.38204224,0.00824098
1373.31084961,0.00790735
1375.23965698,0.00800447
1377.16846436,0.00811454
1379.09727173,0.00799934
1381.02607910,0.00791362
1382.95488647,0.00799541
1384.88369385,0.00813270
1386.81250122,0.00790039
1388.74130859,0.00792167
1390.67011597,0.00844982
1392.59892334,0.00819143
1394.52773071,0.00766806
1396.45653809,0.00823254
1398.38534546,0.00807568
1400.31415283,0.00801511
1402.24296021,0.00875917
1404.17176758,0.00832763
1406.10057495,0.00857615
1408.02938232,0.00867902
1409.95818970,0.00834435
1411.88699707,0.00863564
1413.81580444,0.00819412
1415.74461182,0.00841415
1417.67341919,0.00763906
1419.60222656,0.00692584
1421.53103394,0.00785971
1423.45984131,0.00755165
1425.38864868,0.00749035
1427.31745605,0.00749571
1429.24626343,0.00698528
1431.17507080,0.00675351
1433.10387817,0.00681853
1435.03268555,0.00638956
1436.96149292,0.00544935
1438.89030029,0.00622515
1440.81910767,0.00625923
1442.74791504,0.00576377
1444.67672241,0.00611317
1446.60552979,0.00569454
1448.53433716,0.00575762
1450.46314453,0.00585061
1452.39195190,0.00623644
1454.32075928,0.00631577
1456.24956665,0.00514716
1458.17837402,0.00559628
1460.10718140,0.00724915
1462.03598877,0.00769198
1463.96479614,0.00752597
1465.89360352,0.00794679
1467.82241089,0.00909304
1469.75121826,0.00948195
1471.68002563,0.00860232
1473.60883301,0.00920915
1475.53764038,0.01026230
1477.46644775,0.01090368
1479.39525513,0.01214057
1481.32406250,0.01219100
1483.25286987,0.01269655
1485.18167725,0.01335087
1487.11048462,0.01315641
1489.03929199,0.01300479
1490.96809937,0.01334881
1492.89690674,0.01538184
1494.82571411,0.01478372
1496.75452148,0.01336347
1498.68332886,0.01515137
1500.61213623,0.01561448
1502.54094360,0.01669271
1504.46975098,0.01597239
1506.39855835,0.01196214
1508.32736572,0.01431200
1510.25617310,0.01663998
1512.18498047,0.01612799
1514.11378784,0.01740718
1516.04259521,0.01583558
1517.97140259,0.01650784
1519.90020996,0.01593454
1521.82901733,0.01407761
1523.75782471,0.01693084
1525.68663208,0.01645756
1527.61543945,0.01665543
1529.54424683,0.01819177
1531.47305420,0.01753563
1533.40186157,0.01634598
1535.33066895,0.01727063
1537.25947632,0.01840261
1539.18828369,0.01324021
1541.11709106,0.01395479
1543.04589844,0.01647196
1544.97470581,0.01579067
1546.90351318,0.01866242
1548.83232056,0.01746519
1550.76112793,0.01815102
1552.68993530,0.01787592
1554.61874268,0.01651962
1556.54755005,0.01743606
1558.47635742,0.01249744
1560.40516479,0.01389055
1562.33397217,0.01874061
1564.26277954,0.01779553
1566.19158691,0.01843967
1568.12039429,0.01808834
1570.04920166,0.01637372
1571.97800903,0.01874456
1573.90681641,0.01880217
1575.83562378,0.01522671
1577.76443115,0.01729493
1579.69323853,0.01905195
1581.62204590,0.01825981
1583.55085327,0.01889460
1585.47966064,0.01847968
1587.40846802,0.01874834
1589.33727539,0.01849856
1591.26608276,0.01857848
1593.19489014,0.01889184
1595.12369751,0.01839221
1597.05250488,0.01860275
1598.98131226,0.01870475
1600.91011963,0.01869037
1602.83892700,0.01859847
1604.76773437,0.01893452
1606.69654175,0.01847033
1608.62534912,0.01875371
1610.55415649,0.01862955
1612.48296387,0.01853540
1614.41177124,0.01876858
1616.34057861,0.01566010
1618.26938599,0.01712426
1620.19819336,0.01941023
1622.12700073,0.01742512
1624.05580811,0.01762044
1625.98461548,0.01836649
1627.91342285,0.01840894
1629.84223022,0.01821603
1631.77103760,0.01942436
1633.69984497,0.01790067
1635.62865234,0.01507978
1637.55745972,0.01761362
1639.48626709,0.01901026
1641.41507446,0.01858661
1643.34388184,0.01915984
1645.27268921,0.01730189
1647.20149658,0.01556770
1649.13030396,0.01896050
1651.05911133,0.01758444
1652.98791870,0.01202852
1654.91672607,0.01618953
1656.84553345,0.01958382
1658.77434082,0.01870554
1660.70314819,0.01916170
1662.63195557,0.01765339
1664.56076294,0.01856678
1666.48957031,0.01980578
1668.41837769,0.01756048
1670.34718506,0.01711769
1672.27599243,0.01924967
1674.20479980,0.01783704
1676.13360718,0.01725755
1678.06241455,0.01968726
1679.99122192,0.01911015
1681.92002930,0.01879567
1683.84883667,0.01526083
1685.77764404,0.01556423
1687.70645142,0.02067728
1689.63525879,0.01790527
1691.56406616,0.01980622
1693.49287354,0.01988534
1695.42168091,0.01500979
1697.35048828,0.01825741
1699.27929565,0.01606209
1701.20810303,0.01499724
1703.13691040,0.01968259
1705.06571777,0.01801533
1706.99452515,0.01834084
1708.92333252,0.01983280
1710.85213989,0.01904881
1712.78094727,0.01927905
1714.70975464,0.01820945
1716.63856201,0.01640386
1718.56736938,0.01610546
1720.49617676,0.01895054
1722.42498413,0.01942862
1724.35379150,0.01836320
1726.28259888,0.01978092
1728.21140625,0.01830498
1730.14021362,0.01868513
1732.06902100,0.01793063
1733.99782837,0.01408909
1735.92663574,0.01742294
1737.85544312,0.01897327
1739.78425049,0.01711124
1741.71305786,0.01840689
1743.64186523,0.01870280
1745.57067261,0.01876129
1747.49947998,0.01879578
1749.42828735,0.01807683
1751.35709473,0.01741305
1753.28590210,0.01928462
1755.21470947,0.01997716
1757.14351685,0.01841357
1759.07232422,0.02016812
1761.00113159,0.01880259
1762.92993896,0.01849817
1764.85874634,0.02092013
1766.78755371,0.01879884
1768.71636108,0.01911602
1770.64516846,0.01891038
1772.57397583,0.01729498
1774.50278320,0.01912869
1776.43159058,0.02005381
1778.36039795,0.01989459
1780.28920532,0.01950546
1782.21801270,0.01984655
1784.14682007,0.01987493
1786.07562744,0.01929501
1788.00443481,0.02046793
1789.93324219,0.01992655
1791.86204956,0.01804997
1793.79085693,0.01893664
1795.71966431,0.02012257
1797.64847168,0.02007736
1799.57727905,0.01979770
1801.50608643,0.01927772
1803.43489380,0.02000689
1805.36370117,0.02038439
1807.29250854,0.02025304
1809.22131592,0.02019180
1811.15012329,0.01957959
1813.07893066,0.02037188
1815.00773804,0.02030009
1816.93654541,0.02006998
1818.86535278,0.02033301
1820.79416016,0.02040568
1822.72296753,0.02057298
1824.65177490,0.01921160
1826.58058228,0.02001327
1828.50938965,0.01994059
1830.43819702,0.01902642
1832.36700439,0.02055035
1834.29581177,0.02034168
1836.22461914,0.02036059
1838.15342651,0.02015527
1840.08223389,0.02057961
1842.01104126,0.02044128
1843.93984863,0.01826666
1845.86865601,0.01965066
1847.79746338,0.02050453
1849.72627075,0.02015083
1851.65507812,0.02062140
1853.58388550,0.02023020
1855.51269287,0.02052376
1857.44150024,0.02036208
1859.37030762,0.02020182
1861.29911499,0.02029266
1863.22792236,0.02017580
1865.15672974,0.02034606
1867.08553711,0.01968893
1869.01434448,0.01906806
1870.94315186,0.01980374
1872.87195923,0.02048332
1874.80076660,0.02015341
1876.72957397,0.02023026
1878.65838135,0.02023560
1880.58718872,0.02011983
1882.51599609,0.02024641
1884.44480347,0.02003617
1886.37361084,0.02025895
1888.30241821,0.01980159
1890.23122559,0.01944608
1892.16003296,0.02015846
1894.08884033,0.01998279
1896.01764771,0.01983462
1897.94645508,0.02012956
1899.87526245,0.02007223
1901.80406982,0.02000303
1903.73287720,0.01990399
1905.66168457,0.02008060
1907.59049194,0.01999855
1909.51929932,0.01976199
1911.44810669,0.01987656
1913.37691406,0.02003041
1915.30572144,0.02010185
1917.23452881,0.01929712
1919.16333618,0.01942282
1921.09214355,0.02005822
1923.02095093,0.01942141
1924.94975830,0.01983281
1926.87856567,0.01999336
1928.80737305,0.01985623
1930.73618042,0.02018470
1932.66498779,0.01975012
1934.59379517,0.01993647
1936.52260254,0.01992229
1938.45140991,0.01990727
1940.38021729,0.01979022
1942.30902466,0.01921236
1944.23783203,0.01970904
1946.16663940,0.01988474
1948.09544678,0.01982992
1950.02425415,0.01990249
1951.95306152,0.01976864
1953.88186890,0.01990842
1955.81067627,0.01983728
1957.73948364,0.01980159
1959.66829102,0.01989244
1961.59709839,0.01987973
1963.52590576,0.01978927
1965.45471313,0.01972451
1967.38352051,0.01963405
1969.31232788,0.01974972
1971.24113525,0.01989390
1973.16994263,0.01976124
1975.09875000,0.01993181
1977.02755737,0.01992496
1978.95636475,0.01984456
1980.88517212,0.01989450
1982.81397949,0.01985318
1984.74278687,0.01990294
1986.67159424,0.01971656
1988.60040161,0.01976474
1990.52920898,0.01964784
1992.45801636,0.01939413
1994.38682373,0.01976331
1996.31563110,0.01977966
1998.24443848,0.01968487
2000.17324585,0.01974101
2002.10205322,0.01952926
2004.03086060,0.01962966
2005.95966797,0.01957742
2007.88847534,0.01945853
2009.81728271,0.01965788
2011.74609009,0.01953598
2013.67489746,0.01943585
2015.60370483,0.01919878
2017.53251221,0.01916491
2019.46131958,0.01952656
2021.39012695,0.01927356
2023.31893433,0.01922975
2025.24774170,0.01935450
2027.17654907,0.01917199
2029.10535645,0.01919199
2031.03416382,0.01921386
2032.96297119,0.01919250
2034.89177856,0.01915214
2036.82058594,0.01923741
2038.74939331,0.01910780
2040.67820068,0.01894365
2042.60700806,0.01908261
2044.53581543,0.01897014
2046.46462280,0.01887008
2048.39343018,0.01898623
2050.32223755,0.01909822
2052.25104492,0.01884812
2054.17985229,0.01867760
2056.10865967,0.01889995
2058.03746704,0.01872728
2059.96627441,0.01869190
2061.89508179,0.01892732
2063.82388916,0.01874010
2065.75269653,0.01859517
2067.68150391,0.01877236
2069.61031128,0.01879621
2071.53911865,0.01858820
2073.46792603,0.01853194
2075.39673340,0.01861580
2077.32554077,0.01861583
2079.25434814,0.01858038
2081.18315552,0.01858745
2083.11196289,0.01850417
2085.04077026,0.01853726
2086.96957764,0.01866925
2088.89838501,0.01855633
2090.82719238,0.01845854
2092.75599976,0.01834980
2094.68480713,0.01824977
2096.61361450,0.01833535
2098.54242187,0.01838735
2100.47122925,0.01839130
2102.40003662,0.01834613
2104.32884399,0.01830739
2106.25765137,0.01831541
2108.18645874,0.01827292
2110.11526611,0.01817249
2112.04407349,0.01814892
2113.97288086,0.01824372
2115.90168823,0.01819284
2117.83049561,0.01816219
2119.75930298,0.01826878
2121.68811035,0.01815200
2123.61691772,0.01814110
2125.54572510,0.01828161
2127.47453247,0.01812465
2129.40333984,0.01806451
2131.33214722,0.01815408
2133.26095459,0.01811967
2135.18976196,0.01805660
2137.11856934,0.01799345
2139.04737671,0.01795800
2140.97618408,0.01794557
2142.90499146,0.01803264
2144.83379883,0.01805785
2146.76260620,0.01804691
2148.69141357,0.01804850
2150.62022095,0.01797057
2152.54902832,0.01797614
2154.47783569,0.01790717
2156.40664307,0.01797897
2158.33545044,0.01807236
2160.26425781,0.01792141
2162.19306519,0.01790044
2164.12187256,0.01789945
2166.05067993,0.01785388
2167.97948730,0.01785049
2169.90829468,0.01791262
2171.83710205,0.01786973
2173.76590942,0.01780630
2175.69471680,0.01783761
2177.62352417,0.01776585
2179.55233154,0.01782089
2181.48113892,0.01779977
2183.40994629,0.01779114
2185.33875366,0.01786869
2187.26756104,0.01779812
2189.19636841,0.01777758
2191.12517578,0.01767562
2193.05398315,0.01768537
2194.98279053,0.01779278
2196.91159790,0.01782379
2198.84040527,0.01775667
2200.76921265,0.01770009
2202.69802002,0.01776982
2204.62682739,0.01760878
2206.55563477,0.01763161
2208.48444214,0.01780126
2210.41324951,0.01775150
2212.34205688,0.01769319
2214.27086426,0.01763729
2216.19967163,0.01762405
2218.12847900,0.01759055
2220.05728638,0.01763257
2221.98609375,0.01754527
2223.91490112,0.01750672
2225.84370850,0.01760299
2227.77251587,0.01749048
2229.70132324,0.01755179
2231.63013062,0.01762816
2233.55893799,0.01749830
2235.48774536,0.01732151
2237.41655273,0.01745703
2239.34536011,0.01755593
2241.27416748,0.01728600
2243.20297485,0.01733506
2245.13178223,0.01737333
2247.06058960,0.01745927
2248.98939697,0.01750600
2250.91820435,0.01727664
2252.84701172,0.01732060
2254.77581909,0.01736977
2256.70462646,0.01742161
2258.63343384,0.01742056
2260.56224121,0.01739194
2262.49104858,0.01734321
2264.41985596,0.01728275
2266.34866333,0.01734305
2268.27747070,0.01723849
2270.20627808,0.01726117
2272.13508545,0.01717868
2274.06389282,0.01709162
2275.99270020,0.01710322
2277.92150757,0.01712802
2279.85031494,0.01730881
2281.77912231,0.01710763
2283.70792969,0.01713845
2285.63673706,0.01719655
2287.56554443,0.01703691
2289.49435181,0.01719305
2291.42315918,0.01711801
2293.35196655,0.01698149
2295.28077393,0.01695586
2297.20958130,0.01698382
2299.13838867,0.01694025
2301.06719604,0.01689414
2302.99600342,0.01680451
2304.92481079,0.01661405
2306.85361816,0.01674833
2308.78242554,0.01660449
2310.71123291,0.01637603
2312.64004028,0.01631095
2314.56884766,0.01615984
2316.49765503,0.01602093
2318.42646240,0.01572759
2320.35526978,0.01560260
2322.28407715,0.01534727
2324.21288452,0.01518063
2326.14169189,0.01529682
2328.07049927,0.01500014
2329.99930664,0.01464722
2331.92811401,0.01463720
2333.85692139,0.01466294
2335.78572876,0.01451130
2337.71453613,0.01447270
2339.64334351,0.01444887
2341.57215088,0.01465074
2343.50095825,0.01498184
2345.42976562,0.01511275
2347.35857300,0.01576656
2349.28738037,0.01612176
2351.21618774,0.01560449
2353.14499512,0.01496778
2355.07380249,0.01435877
2357.00260986,0.01390118
2358.93141724,0.01367113
2360.86022461,0.01362828
2362.78903198,0.01362031
2364.71783936,0.01374475
2366.64664673,0.01393205
2368.57545410,0.01418226
2370.50426147,0.01454734
2372.43306885,0.01485849
2374.36187622,0.01524183
2376.29068359,0.01554959
2378.21949097,0.01591412
2380.14829834,0.01625215
2382.07710571,0.01641019
2384.00591309,0.01651116
2385.93472046,0.01653936
2387.86352783,0.01661251
2389.79233521,0.01649320
2391.72114258,0.01640318
2393.64994995,0.01645130
2395.57875732,0.01644101
2397.50756470,0.01644291
2399.43637207,0.01649937
2401.36517944,0.01657151
2403.29398682,0.01645369
2405.22279419,0.01644499
2407.15160156,0.01637966
2409.08040894,0.01635426
2411.00921631,0.01655541
2412.93802368,0.01640245
2414.86683105,0.01626927
2416.79563843,0.01629925
2418.72444580,0.01631441
2420.65325317,0.01632722
2422.58206055,0.01625120
2424.51086792,0.01628844
2426.43967529,0.01632340
2428.36848267,0.01618942
2430.29729004,0.01615812
2432.22609741,0.01629962
2434.15490479,0.01622008
2436.08371216,0.01618873
2438.01251953,0.01631353
2439.94132690,0.01627651
2441.87013428,0.01621351
2443.79894165,0.01614388
2445.72774902,0.01616557
2447.65655640,0.01613300
2449.58536377,0.01609602
2451.51417114,0.01611516
2453.44297852,0.01609448
2455.37178589,0.01608216
2457.30059326,0.01598875
2459.22940063,0.01613345
2461.15820801,0.01615220
2463.08701538,0.01603414
2465.01582275,0.01603126
2466.94463013,0.01590629
2468.87343750,0.01608367
2470.80224487,0.01612328
2472.73105225,0.01600198
2474.65985962,0.01602516
2476.58866699,0.01586760
2478.51747437,0.01587743
2480.44628174,0.01588322
2482.37508911,0.01589361
2484.30389648,0.01598571
2486.23270386,0.01581681
2488.16151123,0.01581788
2490.09031860,0.01592540
2492.01912598,0.01578667
2493.94793335,0.01576637
2495.87674072,0.01587179
2497.80554810,0.01580876
2499.73435547,0.01573097
2501.66316284,0.01577086
2503.59197021,0.01576829
2505.52077759,0.01572048
2507.44958496,0.01574764
2509.37839233,0.01575363
2511.30719971,0.01567745
2513.23600708,0.01569759
2515.16481445,0.01575511
2517.09362183,0.01567850
2519.02242920,0.01571580
2520.95123657,0.01570664
2522.88004395,0.01555378
2524.80885132,0.01568254
2526.73765869,0.01561906
2528.66646606,0.01556009
2530.59527344,0.01568229
2532.52408081,0.01541944
2534.45288818,0.01549037
2536.38169556,0.01557850
2538.31050293,0.01552969
2540.23931030,0.01573318
2542.16811768,0.01556523
2544.09692505,0.01551888
2546.02573242,0.01554741
2547.95453979,0.01546052
2549.88334717,0.01553277
2551.81215454,0.01555633
2553.74096191,0.01558658
2555.66976929,0.01553922
2557.59857666,0.01557383
2559.52738403,0.01545451
2561.45619141,0.01537830
2563.38499878,0.01554379
2565.31380615,0.01545128
2567.24261353,0.01537834
2569.17142090,0.01525478
2571.10022827,0.01524366
2573.02903564,0.01535227
2574.95784302,0.01538515
2576.88665039,0.01541875
2578.81545776,0.01518254
2580.74426514,0.01524219
2582.67307251,0.01537132
2584.60187988,0.01524266
2586.53068726,0.01526339
2588.45949463,0.01520721
2590.38830200,0.01520045
2592.31710937,0.01518857
2594.24591675,0.01520566
2596.17472412,0.01528637
2598.10353149,0.01516298
2600.03233887,0.01513543
2601.96114624,0.01517415
2603.88995361,0.01508988
2605.81876099,0.01500132
2607.74756836,0.01507094
2609.67637573,0.01516123
2611.60518311,0.01505971
2613.53399048,0.01508936
2615.46279785,0.01517741
2617.39160522,0.01510147
2619.32041260,0.01500463
2621.24921997,0.01492583
2623.17802734,0.01494554
2625.10683472,0.01492152
2627.03564209,0.01492721
2628.96444946,0.01497679
2630.89325684,0.01491261
2632.82206421,0.01496695
2634.75087158,0.01490571
2636.67967895,0.01487407
2638.60848633,0.01492923
2640.53729370,0.01478997
2642.46610107,0.01486159
2644.39490845,0.01484582
2646.32371582,0.01479060
2648.25252319,0.01493658
2650.18133057,0.01482528
2652.11013794,0.01472024
2654.03894531,0.01480578
2655.96775269,0.01484106
2657.89656006,0.01480320
2659.82536743,0.01475041
2661.75417480,0.01467186
2663.68298218,0.01475076
2665.61178955,0.01474865
2667.54059692,0.01457367
2669.46940430,0.01466898
2671.39821167,0.01461897
2673.32701904,0.01456221
2675.25582642,0.01462853
2677.18463379,0.01455329
2679.11344116,0.01457444
2681.04224854,0.01450841
2682.97105591,0.01451231
2684.89986328,0.01452020
2686.82867065,0.01451486
2688.75747803,0.01455831
2690.68628540,0.01447612
2692.61509277,0.01452236
2694.54390015,0.01445934
2696.47270752,0.01439535
2698.40151489,0.01445474
2700.33032227,0.01441734
2702.25912964,0.01433426
2704.18793701,0.01430592
2706.11674438,0.01433863
2708.04555176,0.01429042
2709.97435913,0.01435705
2711.90316650,0.01430694
2713.83197388,0.01427383
2715.76078125,0.01437588
2717.68958862,0.01424352
2719.61839600,0.01423720
2721.54720337,0.01420946
2723.47601074,0.01416195
2725.40481812,0.01417975
2727.33362549,0.01410506
2729.26243286,0.01419468
2731.19124023,0.01421779
2733.12004761,0.01409956
2735.04885498,0.01408893
2736.97766235,0.01412048
2738.90646973,0.01409469
2740.83527710,0.01412579
2742.76408447,0.01409941
2744.69289185,0.01404257
2746.62169922,0.01405015
2748.55050659,0.01398008
2750.47931396,0.01403805
2752.40812134,0.01406699
2754.33692871,0.01403875
2756.26573608,0.01404547
2758.19454346,0.01398942
2760.12335083,0.01390782
2762.05215820,0.01385168
2763.98096558,0.01398145
2765.90977295,0.01388991
2767.83858032,0.01376747
2769.76738770,0.01381895
2771.69619507,0.01378918
2773.62500244,0.01388760
2775.55380981,0.01381538
2777.48261719,0.01374739
2779.41142456,0.01381387
2781.34023193,0.01376892
2783.26903931,0.01369271
2785.19784668,0.01364090
2787.12665405,0.01375051
2789.05546143,0.01373199
2790.98426880,0.01368456
2792.91307617,0.01372920
2794.84188354,0.01368169
2796.77069092,0.01363776
2798.69949829,0.01358698
2800.62830566,0.01367621
2802.55711304,0.01368437
2804.48592041,0.01350410
2806.41472778,0.01345382
2808.34353516,0.01346014
2810.27234253,0.01344575
2812.20114990,0.01344320
2814.12995728,0.01343480
2816.05876465,0.01345088
2817.98757202,0.01340490
2819.91637939,0.01332283
2821.84518677,0.01342661
2823.77399414,0.01342935
2825.70280151,0.01330798
2827.63160889,0.01328250
2829.56041626,0.01320416
2831.48922363,0.01331354
2833.41803101,0.01334747
2835.34683838,0.01316982
2837.27564575,0.01319504
2839.20445312,0.01315831
2841.13326050,0.01308101
2843.06206787,0.01309668
2844.99087524,0.01308759
2846.91968262,0.01306757
2848.84848999,0.01296773
2850.77729736,0.01294173
2852.70610474,0.01296088
2854.63491211,0.01289272
2856.56371948,0.01289373
2858.49252686,0.01288788
2860.42133423,0.01280465
2862.35014160,0.01279680
2864.27894897,0.01278739
2866.20775635,0.01277273
2868.13656372,0.01285996
2870.06537109,0.01277438
2871.99417847,0.01271128
2873.92298584,0.01284834
2875.85179321,0.01273882
2877.78060059,0.01267349
2879.70940796,0.01275061
2881.63821533,0.01278416
2883.56702270,0.01281603
2885.49583008,0.01263541
2887.42463745,0.01262169
2889.35344482,0.01269683
2891.28225220,0.01259336
2893.21105957,0.01255041
2895.13986694,0.01253292
2897.06867432,0.01256394
2898.99748169,0.01250094
2900.92628906,0.01247936
2902.85509644,0.01245426
2904.78390381,0.01236550
2906.71271118,0.01238460
2908.64151855,0.01226755
2910.57032593,0.01231752
2912.49913330,0.01235312
2914.42794067,0.01217420
2916.35674805,0.01216781
2918.28555542,0.01211309
2920.21436279,0.01208532
2922.14317017,0.01217264
2924.07197754,0.01218406
2926.00078491,0.01216624
2927.92959229,0.01209808
2929.85839966,0.01200380
2931.78720703,0.01206695
2933.71601440,0.01209280
2935.64482178,0.01206523
2937.57362915,0.01220026
2939.50243652,0.01212335
2941.43124390,0.01202548
2943.36005127,0.01209996
2945.28885864,0.01211267
2947.21766602,0.01213284
2949.14647339,0.01205577
2951.07528076,0.01204607
2953.00408813,0.01207301
2954.93289551,0.01193513
2956.86170288,0.01188980
2958.79051025,0.01200166
2960.71931763,0.01199601
2962.64812500,0.01185790
2964.57693237,0.01179261
2966.50573975,0.01179624
2968.43454712,0.01182503
2970.36335449,0.01180712
2972.29216187,0.01185401
2974.22096924,0.01185315
2976.14977661,0.01178141
2978.07858398,0.01184883
2980.00739136,0.01189591
2981.93619873,0.01193613
2983.86500610,0.01187299
2985.79381348,0.01195576
2987.72262085,0.01202940
2989.65142822,0.01177891
2991.58023560,0.01181152
2993.50904297,0.01191409
2995.43785034,0.01180428
2997.36665771,0.01165253
2999.29546509,0.01173839
3001.22427246,0.01184520
3003.15307983,0.01162074
3005.08188721,0.01167563
3007.01069458,0.01177485
3008.93950195,0.01167957
3010.86830933,0.01159471
3012.79711670,0.01153363
3014.72592407,0.01159373
3016.65473145,0.01157344
3018.58353882,0.01161831
3020.51234619,0.01162437
3022.44115356,0.01155227
3024.36996094,0.01159269
3026.29876831,0.01157636
3028.22757568,0.01148981
3030.15638306,0.01145683
3032.08519043,0.01147383
3034.01399780,0.01140895
3035.94280518,0.01144066
3037.87161255,0.01143195
3039.80041992,0.01139017
3041.72922729,0.01138199
3043.65803467,0.01125203
3045.58684204,0.01132807
3047.51564941,0.01131709
3049.44445679,0.01127754
3051.37326416,0.01127381
3053.30207153,0.01114174
3055.23087891,0.01124829
3057.15968628,0.01123713
3059.08849365,0.01116503
3061.01730103,0.01110192
3062.94610840,0.01109343
3064.87491577,0.01124121
3066.80372314,0.01108925
3068.73253052,0.01111299
3070.66133789,0.01118602
3072.59014526,0.01106440
3074.51895264,0.01113979
3076.44776001,0.01103308
3078.37656738,0.01098079
3080.30537476,0.01109785
3082.23418213,0.01097082
3084.16298950,0.01087111
3086.09179687,0.01091149
3088.02060425,0.01094765
3089.94941162,0.01093725
3091.87821899,0.01089302
3093.80702637,0.01091860
3095.73583374,0.01090216
3097.66464111,0.01085330
3099.59344849,0.01089021
3101.52225586,0.01083053
3103.45106323,0.01080730
3105.37987061,0.01080897
3107.30867798,0.01068494
3109.23748535,0.01070272
3111.16629272,0.01068740
3113.09510010,0.01062744
3115.02390747,0.01065977
3116.95271484,0.01063223
3118.88152222,0.01060745
3120.81032959,0.01054894
3122.73913696,0.01059627
3124.66794434,0.01062483
3126.59675171,0.01057252
3128.52555908,0.01061309
3130.45436645,0.01045270
3132.38317383,0.01039255
3134.31198120,0.01046257
3136.24078857,0.01043045
3138.16959595,0.01043797
3140.09840332,0.01031555
3142.02721069,0.01037602
3143.95601807,0.01041777
3145.88482544,0.01022564
3147.81363281,0.01022913
3149.74244019,0.01020822
3151.67124756,0.01020944
3153.60005493,0.01016131
3155.52886230,0.01009944
3157.45766968,0.01020695
3159.38647705,0.01008984
3161.31528442,0.01006185
3163.24409180,0.01018600
3165.17289917,0.01012713
3167.10170654,0.00998490
3169.03051392,0.00996835
3170.95932129,0.01005773
3172.88812866,0.00989120
3174.81693604,0.00987348
3176.74574341,0.00997379
3178.67455078,0.00988751
3180.60335815,0.00993474
3182.53216553,0.00984621
3184.46097290,0.00980130
3186.38978027,0.00987947
3188.31858765,0.00979741
3190.24739502,0.00975948
3192.17620239,0.00981793
3194.10500977,0.00983655
3196.03381714,0.00967848
3197.96262451,0.00966996
3199.89143188,0.00975825
3201.82023926,0.00973137
3203.74904663,0.00964097
3205.67785400,0.00953894
3207.60666138,0.00963837
3209.53546875,0.00950984
3211.46427612,0.00945325
3213.39308350,0.00961192
3215.32189087,0.00949558
3217.25069824,0.00951293
3219.17950562,0.00952268
3221.10831299,0.00950127
3223.03712036,0.00951434
3224.96592773,0.00946549
3226.89473511,0.00944366
3228.82354248,0.00928323
3230.75234985,0.00935361
3232.68115723,0.00944723
3234.60996460,0.00934127
3236.53877197,0.00935077
3238.46757935,0.00937414
3240.39638672,0.00944109
3242.32519409,0.00939088
3244.25400146,0.00927200
3246.18280884,0.00930961
3248.11161621,0.00937872
3250.04042358,0.00938468
3251.96923096,0.00934049
3253.89803833,0.00933115
3255.82684570,0.00925506
3257.75565308,0.00921904
3259.68446045,0.00927699
3261.61326782,0.00925586
3263.54207520,0.00930768
3265.47088257,0.00930223
3267.39968994,0.00914653
3269.32849731,0.00913249
3271.25730469,0.00923945
3273.18611206,0.00920632
3275.11491943,0.00911209
3277.04372681,0.00924340
3278.97253418,0.00923917
3280.90134155,0.00912799
3282.83014893,0.00924623
3284.75895630,0.00917575
3286.68776367,0.00909388
3288.61657104,0.00911850
3290.54537842,0.00910435
3292.47418579,0.00911020
3294.40299316,0.00906374
3296.33180054,0.00911258
3298.26060791,0.00905394
3300.18941528,0.00909437
3302.11822266,0.00914438
3304.04703003,0.00901622
3305.97583740,0.00908284
3307.90464478,0.00902997
3309.83345215,0.00904652
3311.76225952,0.00906960
3313.69106689,0.00904969
3315.61987427,0.00905193
3317.54868164,0.00890178
3319.47748901,0.00901607
3321.40629639,0.00892195
3323.33510376,0.00887913
3325.26391113,0.00904425
3327.19271851,0.00899321
3329.12152588,0.00900637
3331.05033325,0.00883727
3332.97914062,0.00887865
3334.90794800,0.00891793
3336.83675537,0.00878865
3338.76556274,0.00890534
3340.69437012,0.00893603
3342.62317749,0.00897428
3344.55198486,0.00884963
3346.48079224,0.00882111
3348.40959961,0.00886601
3350.33840698,0.00874578
3352.26721436,0.00888386
3354.19602173,0.00889588
3356.12482910,0.00885533
3358.05363647,0.00885440
3359.98244385,0.00875341
3361.91125122,0.00872944
3363.84005859,0.00871298
3365.76886597,0.00874299
3367.69767334,0.00868166
3369.62648071,0.00870982
3371.55528809,0.00876664
3373.48409546,0.00863950
3375.41290283,0.00867376
3377.34171020,0.00870650
3379.27051758,0.00865171
3381.19932495,0.00861044
3383.12813232,0.00856713
3385.05693970,0.00855917
3386.98574707,0.00853000
3388.91455444,0.00852589
3390.84336182,0.00845071
3392.77216919,0.00849683
3394.70097656,0.00855817
3396.62978394,0.00841871
3398.55859131,0.00847499
3400.48739868,0.00846141
3402.41620605,0.00840460
3404.34501343,0.00847613
3406.27382080,0.00843345
3408.20262817,0.00844438
3410.13143555,0.00836589
3412.06024292,0.00827026
3413.98905029,0.00838585
3415.91785767,0.00850935
3417.84666504,0.00836325
3419.77547241,0.00827737
3421.70427979,0.00839507
3423.63308716,0.00827353
3425.56189453,0.00831310
3427.49070190,0.00828796
3429.41950928,0.00818759
3431.34831665,0.00832094
3433.27712402,0.00815554
3435.20593140,0.00817992
3437.13473877,0.00826727
3439.06354614,0.00816371
3440.99235352,0.00819801
3442.92116089,0.00817357
3444.84996826,0.00816930
3446.77877563,0.00809682
3448.70758301,0.00813449
3450.63639038,0.00821438
3452.56519775,0.00812402
3454.49400513,0.00809223
3456.42281250,0.00812361
3458.35161987,0.00824761
3460.28042725,0.00817317
3462.20923462,0.00803203
3464.13804199,0.00807660
3466.06684937,0.00804578
3467.99565674,0.00804269
3469.92446411,0.00808385
3471.85327148,0.00806752
3473.78207886,0.00803894
3475.71088623,0.00805409
3477.63969360,0.00806102
3479.56850098,0.00793058
3481.49730835,0.00785677
3483.42611572,0.00798177
3485.35492310,0.00804133
3487.28373047,0.00792832
3489.21253784,0.00793133
3491.14134521,0.00808041
3493.07015259,0.00804275
3494.99895996,0.00795116
3496.92776733,0.00800546
3498.85657471,0.00802742
3500.78538208,0.00793634
3502.71418945,0.00773619
3504.64299683,0.00783516
3506.57180420,0.00806013
3508.50061157,0.00791536
3510.42941895,0.00791898
3512.35822632,0.00801732
3514.28703369,0.00797272
3516.21584106,0.00796049
3518.14464844,0.00798502
3520.07345581,0.00806648
3522.00226318,0.00792186
3523.93107056,0.00777885
3525.85987793,0.00781322
3527.78868530,0.00777219
3529.71749268,0.00781339
3531.64630005,0.00793782
3533.57510742,0.00802587
3535.50391479,0.00790296
3537.43272217,0.00776144
3539.36152954,0.00787933
3541.29033691,0.00787835
3543.21914429,0.00783155
3545.14795166,0.00775946
3547.07675903,0.00767516
3549.00556641,0.00790090
3550.93437378,0.00787097
3552.86318115,0.00775330
3554.79198853,0.00788486
3556.72079590,0.00791129
3558.64960327,0.00792206
3560.57841064,0.00777069
3562.50721802,0.00784004
3564.43602539,0.00784685
3566.36483276,0.00732127
3568.29364014,0.00724705
3570.22244751,0.00770542
3572.15125488,0.00803509
3574.08006226,0.00791899
3576.00886963,0.00776657
3577.93767700,0.00786177
3579.86648437,0.00779361
3581.79529175,0.00773143
3583.72409912,0.00795360
3585.65290649,0.00772535
3587.58171387,0.00703360
3589.51052124,0.00734081
3591.43932861,0.00787782
3593.36813599,0.00769642
3595.29694336,0.00764997
3597.22575073,0.00769009
3599.15455811,0.00766199
3601.08336548,0.00765704
3603.01217285,0.00778934
3604.94098022,0.00788888
3606.86978760,0.00766988
3608.79859497,0.00720953
3610.72740234,0.00739841
3612.65620972,0.00756630
3614.58501709,0.00729902
3616.51382446,0.00787185
3618.44263184,0.00728399
3620.37143921,0.00707468
3622.30024658,0.00794371
3624.22905395,0.00770288
3626.15786133,0.00796350
3628.08666870,0.00679162
3630.01547607,0.00635540
3631.94428345,0.00779234
3633.87309082,0.00758869
3635.80189819,0.00776881
3637.73070557,0.00781837
3639.65951294,0.00768667
3641.58832031,0.00781212
3643.51712769,0.00770454
3645.44593506,0.00775650
3647.37474243,0.00704189
3649.30354980,0.00642156
3651.23235718,0.00655717
3653.16116455,0.00778262
3655.08997192,0.00757582
3657.01877930,0.00693949
3658.94758667,0.00795439
3660.87639404,0.00768448
3662.80520142,0.00782520
3664.73400879,0.00784175
3666.66281616,0.00771938
3668.59162354,0.00745669
3670.52043091,0.00625154
3672.44923828,0.00742937
3674.37804565,0.00697063
3676.30685303,0.00590522
3678.23566040,0.00728406
3680.16446777,0.00746228
3682.09327515,0.00759150
3684.02208252,0.00765571
3685.95088989,0.00754236
3687.87969727,0.00695042
3689.80850464,0.00637221
3691.73731201,0.00719873
3693.66611938,0.00738500
3695.59492676,0.00756084
3697.52373413,0.00760087
3699.45254150,0.00757969
3701.38134888,0.00737035
3703.31015625,0.00704532
3705.23896362,0.00778369
3707.16777100,0.00745437
3709.09657837,0.00726509
3711.02538574,0.00680771
3712.95419312,0.00639958
3714.88300049,0.00749351
3716.81180786,0.00730185
3718.74061523,0.00737332
3720.66942261,0.00728935
3722.59822998,0.00697882
3724.52703735,0.00719601
3726.45584473,0.00673082
3728.38465210,0.00730059
3730.31345947,0.00724275
3732.24226685,0.00664257
3734.17107422,0.00644532
3736.09988159,0.00621021
3738.02868896,0.00661079
3739.95749634,0.00711072
3741.88630371,0.00733746
3743.81511108,0.00575061
3745.74391846,0.00556662
3747.67272583,0.00707506
3749.60153320,0.00611670
3751.53034058,0.00567897
3753.45914795,0.00643312
3755.38795532,0.00690165
3757.31676270,0.00714528
3759.24557007,0.00671611
3761.17437744,0.00693846
3763.10318481,0.00725176
3765.03199219,0.00681170
3766.96079956,0.00695468
3768.88960693,0.00686600
3770.81841431,0.00649471
3772.74722168,0.00706847
3774.67602905,0.00717161
3776.60483643,0.00708661
3778.53364380,0.00695384
3780.46245117,0.00671490
3782.39125854,0.00708319
3784.32006592,0.00695588
3786.24887329,0.00693847
3788.17768066,0.00705422
3790.10648804,0.00694473
3792.03529541,0.00698504
3793.96410278,0.00710188
3795.89291016,0.00666957
3797.82171753,0.00661943
3799.75052490,0.00690222
3801.67933228,0.00567217
3803.60813965,0.00656693
3805.53694702,0.00698945
3807.46575439,0.00580160
3809.39456177,0.00689143
3811.32336914,0.00674429
3813.25217651,0.00694225
3815.18098389,0.00634866
3817.10979126,0.00565816
3819.03859863,0.00700841
3820.96740601,0.00581424
3822.89621338,0.00604754
3824.82502075,0.00692987
3826.75382812,0.00640941
3828.68263550,0.00686485
3830.61144287,0.00648147
3832.54025024,0.00628064
3834.46905762,0.00645949
3836.39786499,0.00619019
3838.32667236,0.00570204
3840.25547974,0.00608320
3842.18428711,0.00641249
3844.11309448,0.00611604
3846.04190186,0.00662175
3847.97070923,0.00653404
3849.89951660,0.00661802
3851.82832397,0.00594008
3853.75713135,0.00451242
3855.68593872,0.00547815
3857.61474609,0.00667524
3859.54355347,0.00648668
3861.47236084,0.00642886
3863.40116821,0.00620321
3865.32997559,0.00581589
3867.25878296,0.00637572
3869.18759033,0.00595925
3871.11639770,0.00561522
3873.04520508,0.00646035
3874.97401245,0.00606640
3876.90281982,0.00646845
3878.83162720,0.00648712
3880.76043457,0.00568850
3882.68924194,0.00645305
3884.61804932,0.00601236
3886.54685669,0.00563743
3888.47566406,0.00646479
3890.40447144,0.00610629
3892.33327881,0.00586401
3894.26208618,0.00636335
3896.19089355,0.00647993
3898.11970093,0.00609665
3900.04850830,0.00572954
3901.97731567,0.00578896
3903.90612305,0.00569393
3905.83493042,0.00575646
3907.76373779,0.00629420
3909.69254517,0.00632071
3911.62135254,0.00620660
3913.55015991,0.00627340
3915.47896728,0.00617897
3917.40777466,0.00597670
3919.33658203,0.00589164
3921.26538940,0.00610148
3923.19419678,0.00608511
3925.12300415,0.00600112
3927.05181152,0.00609818
3928.98061890,0.00617275
3930.90942627,0.00599928
3932.83823364,0.00587709
3934.76704102,0.00615585
3936.69584839,0.00612877
3938.62465576,0.00615631
3940.55346313,0.00615020
3942.48227051,0.00580244
3944.41107788,0.00592223
3946.33988525,0.00608062
3948.26869263,0.00594503
3950.19750000,0.00583471
3952.12630737,0.00590059
3954.05511475,0.00603895
3955.98392212,0.00598658
3957.91272949,0.00592755
3959.84153687,0.00594086
3961.77034424,0.00591904
3963.69915161,0.00594608
3965.62795898,0.00593769
3967.55676636,0.00588088
3969.48557373,0.00585725
3971.41438110,0.00582141
3973.34318848,0.00591907
3975.27199585,0.00587560
3977.20080322,0.00583769
3979.12961060,0.00595240
3981.05841797,0.00584053
3982.98722534,0.00579809
3984.91603271,0.00580229
3986.84484009,0.00585202
3988.77364746,0.00575071
3990.70245483,0.00564330
3992.63126221,0.00580996
3994.56006958,0.00575182
3996.48887695,0.00576747
3998.41768433,0.00573909
4000.34649170,0.00574223
4002.27529907,0.00579680
4004.20410645,0.00564561
4006.13291382,0.00576408
4008.06172119,0.00570919
4009.99052856,0.00561725
4011.91933594,0.00570481
4013.84814331,0.00558988
4015.77695068,0.00558655
4017.70575806,0.00565939
4019.63456543,0.00562011
4021.56337280,0.00561978
4023.49218018,0.00562729
4025.42098755,0.00556951
4027.34979492,0.00559646
4029.27860229,0.00558338
4031.20740967,0.00554278
4033.13621704,0.00552885
4035.06502441,0.00552071
4036.99383179,0.00555660
4038.92263916,0.00548019
4040.85144653,0.00548696
4042.78025391,0.00551180
4044.70906128,0.00549913
4046.63786865,0.00548713
4048.56667603,0.00543775
4050.49548340,0.00548060
4052.42429077,0.00551294
4054.35309814,0.00551229
4056.28190552,0.00544985
4058.21071289,0.00545031
4060.13952026,0.00537176
4062.06832764,0.00528141
4063.99713501,0.00538427
4065.92594238,0.00537942
4067.85474976,0.00536458
4069.78355713,0.00534565
4071.71236450,0.00535033
4073.64117187,0.00534253
4075.56997925,0.00528573
4077.49878662,0.00527069
4079.42759399,0.00526175
4081.35640137,0.00528751
4083.28520874,0.00523402
4085.21401611,0.00528937
4087.14282349,0.00530766
4089.07163086,0.00523521
4091.00043823,0.00524540
4092.92924561,0.00520632
4094.85805298,0.00520342
4096.78686035,0.00523777
4098.71566772,0.00521530
4100.64447510,0.00510198
4102.57328247,0.00517213
4104.50208984,0.00520470
4106.43089722,0.00517924
4108.35970459,0.00523907
4110.28851196,0.00511384
4112.21731934,0.00515428
4114.14612671,0.00512992
4116.07493408,0.00507044
4118.00374145,0.00513759
4119.93254883,0.00510347
4121.86135620,0.00507673
4123.79016357,0.00501804
4125.71897095,0.00507968
4127.64777832,0.00503154
4129.57658569,0.00497292
4131.50539307,0.00500219
4133.43420044,0.00497493
4135.36300781,0.00500150
4137.29181519,0.00502153
4139.22062256,0.00505645
4141.14942993,0.00491104
4143.07823730,0.00491562
4145.00704468,0.00494199
4146.93585205,0.00486585
4148.86465942,0.00493317
4150.79346680,0.00489431
4152.72227417,0.00491805
4154.65108154,0.00480300
4156.57988892,0.00483193
4158.50869629,0.00487582
4160.43750366,0.00472234
4162.36631103,0.00484038
4164.29511841,0.00473713
4166.22392578,0.00474305
4168.15273315,0.00485753
4170.08154053,0.00476924
4172.01034790,0.00485763
4173.93915527,0.00487632
4175.86796265,0.00485225
4177.79677002,0.00482110
4179.72557739,0.00475627
4181.65438477,0.00477591
4183.58319214,0.00482950
4185.51199951,0.00473848
4187.44080688,0.00459927
4189.36961426,0.00470941
4191.29842163,0.00476805
4193.22722900,0.00474535
4195.15603638,0.00476547
4197.08484375,0.00470579
4199.01365112,0.00472013
4200.94245850,0.00468289
4202.87126587,0.00458499
4204.80007324,0.00463144
4206.72888062,0.00460358
4208.65768799,0.00456425
4210.58649536,0.00461742
4212.51530273,0.00463979
4214.44411011,0.00463834
4216.37291748,0.00455048
4218.30172485,0.00456035
4220.23053223,0.00457540
4222.15933960,0.00451861
4224.08814697,0.00457519
4226.01695435,0.00454154
4227.94576172,0.00450802
4229.87456909,0.00455127
4231.80337646,0.00457765
4233.73218384,0.00452354
4235.66099121,0.00444237
4237.58979858,0.00449502
4239.51860596,0.00443698
4241.44741333,0.00438697
4243.37622070,0.00451603
4245.30502808,0.00447141
4247.23383545,0.00437163
4249.16264282,0.00448053
4251.09145020,0.00449438
4253.02025757,0.00440012
4254.94906494,0.00442087
4256.87787231,0.00440747
4258.80667969,0.00434570
4260.73548706,0.00434888
4262.66429443,0.00435657
4264.59310181,0.00431152
4266.52190918,0.00436085
4268.45071655,0.00434440
4270.37952393,0.00425500
4272.30833130,0.00430283
4274.23713867,0.00428034
4276.16594604,0.00432220
4278.09475342,0.00425763
4280.02356079,0.00421368
4281.95236816,0.00435491
4283.88117554,0.00415455
4285.80998291,0.00419481
4287.73879028,0.00435902
4289.66759766,0.00418211
4291.59640503,0.00420101
4293.52521240,0.00417252
4295.45401978,0.00416297
4297.38282715,0.00428985
4299.31163452,0.00418877
4301.24044189,0.00417245
4303.16924927,0.00419522
4305.09805664,0.00412997
4307.02686401,0.00417679
4308.95567139,0.00417394
4310.88447876,0.00417336
4312.81328613,0.00410962
4314.74209351,0.00405439
4316.67090088,0.00415719
4318.59970825,0.00412729
4320.52851562,0.00408417
4322.45732300,0.00407611
4324.38613037,0.00409568
4326.31493774,0.00412301
4328.24374512,0.00408073
4330.17255249,0.00405447
4332.10135986,0.00399920
4334.03016724,0.00401170
4335.95897461,0.00394394
4337.88778198,0.00392498
4339.81658936,0.00401234
4341.74539673,0.00394557
4343.67420410,0.00391917
4345.60301147,0.00395792
4347.53181885,0.00397258
4349.46062622,0.00389977
4351.38943359,0.00393004
4353.31824097,0.00398103
4355.24704834,0.00393027
4357.17585571,0.00395730
4359.10466309,0.00389725
4361.03347046,0.00387902
4362.96227783,0.00388747
4364.89108520,0.00387495
4366.81989258,0.00388702
4368.74869995,0.00387077
4370.67750732,0.00385291
4372.60631470,0.00381540
4374.53512207,0.00383059
4376.46392944,0.00383726
4378.39273682,0.00390442
4380.32154419,0.00383920
4382.25035156,0.00379216
4384.17915894,0.00384212
4386.10796631,0.00375419
4388.03677368,0.00382123
4389.96558105,0.00375535
4391.89438843,0.00372270
4393.82319580,0.00376763
4395.75200317,0.00371244
4397.68081055,0.00376175
4399.60961792,0.00368826
4401.53842529,0.00374333
4403.46723267,0.00377009
4405.39604004,0.00371508
4407.32484741,0.00367999
4409.25365478,0.00360135
4411.18246216,0.00367319
4413.11126953,0.00366181
4415.04007690,0.00367480
4416.96888428,0.00363712
4418.89769165,0.00366564
4420.82649902,0.00375714
4422.75530640,0.00363560
4424.68411377,0.00364359
4426.61292114,0.00360804
4428.54172852,0.00359995
4430.47053589,0.00361886
4432.39934326,0.00353181
4434.32815063,0.00361037
4436.25695801,0.00364993
4438.18576538,0.00366578
4440.11457275,0.00361043
4442.04338013,0.00345943
4443.97218750,0.00352558
4445.90099487,0.00354405
4447.82980225,0.00347070
4449.75860962,0.00352741
4451.68741699,0.00350429
4453.61622437,0.00349633
4455.54503174,0.00351057
4457.47383911,0.00348655
4459.40264648,0.00349607
4461.33145386,0.00341221
4463.26026123,0.00344313
4465.18906860,0.00346959
4467.11787598,0.00341027
4469.04668335,0.00342178
4470.97549072,0.00340608
4472.90429810,0.00344360
4474.83310547,0.00346736
4476.76191284,0.00343281
4478.69072021,0.00331077
4480.61952759,0.00333664
4482.54833496,0.00346070
4484.47714233,0.00338255
4486.40594971,0.00340675
4488.33475708,0.00341779
4490.26356445,0.00335960
4492.19237183,0.00335208
4494.12117920,0.00337043
4496.04998657,0.00340426
4497.97879395,0.00336224
4499.90760132,0.00335376
4501.83640869,0.00334719
4503.76521606,0.00334151
4505.69402344,0.00329491
4507.62283081,0.00331173
4509.55163818,0.00333109
4511.48044556,0.00323208
4513.40925293,0.00328367
4515.33806030,0.00327334
4517.26686768,0.00326238
4519.19567505,0.00328947
4521.12448242,0.00321906
4523.05328979,0.00326800
4524.98209717,0.00327720
4526.91090454,0.00324993
4528.83971191,0.00326498
4530.76851929,0.00323004
4532.69732666,0.00317852
4534.62613403,0.00317343
4536.55494141,0.00319320
4538.48374878,0.00319848
4540.41255615,0.00323652
4542.34136353,0.00321281
4544.27017090,0.00315337
4546.19897827,0.00315482
4548.12778564,0.00315622
4550.05659302,0.00310653
4551.98540039,0.00307247
4553.91420776,0.00309452
4555.84301514,0.00310097
4557.77182251,0.00311981
4559.70062988,0.00310851
4561.62943726,0.00309950
4563.55824463,0.00313853
4565.48705200,0.00307993
4567.41585937,0.00303540
4569.34466675,0.00309111
4571.27347412,0.00311446
4573.20228149,0.00311668
4575.13108887,0.00306206
4577.05989624,0.00301741
4578.98870361,0.00305992
4580.91751099,0.00302856
4582.84631836,0.00303080
4584.77512573,0.00305013
4586.70393311,0.00299344
4588.63274048,0.00300666
4590.56154785,0.00299533
4592.49035522,0.00296249
4594.41916260,0.00296185
4596.34796997,0.00297118
4598.27677734,0.00302965
4600.20558472,0.00302225
4602.13439209,0.00295494
4604.06319946,0.00296315
4605.99200684,0.00293525
4607.92081421,0.00287567
4609.84962158,0.00286455
4611.77842895,0.00286845
4613.70723633,0.00298567
4615.63604370,0.00291888
4617.56485107,0.00281860
4619.49365845,0.00296821
4621.42246582,0.00295126
4623.35127319,0.00292822
4625.28008057,0.00289636
4627.20888794,0.00288396
4629.13769531,0.00294083
4631.06650269,0.00282716
4632.99531006,0.00284473
4634.92411743,0.00280630
4636.85292480,0.00274894
4638.78173218,0.00280599
4640.71053955,0.00278164
4642.63934692,0.00286436
4644.56815430,0.00285543
4646.49696167,0.00276452
4648.42576904,0.00280208
4650.35457642,0.00280680
4652.28338379,0.00272378
4654.21219116,0.00273247
4656.14099853,0.00276274
4658.06980591,0.00272884
4659.99861328,0.00278121
4661.92742065,0.00275037
4663.85622803,0.00275187
4665.78503540,0.00277502
4667.71384277,0.00271383
4669.64265015,0.00274549
4671.57145752,0.00269698
4673.50026489,0.00267394
4675.42907227,0.00269531
4677.35787964,0.00271029
4679.28668701,0.00273905
4681.21549438,0.00269583
4683.14430176,0.00270015
4685.07310913,0.00264941
4687.00191650,0.00269995
4688.93072388,0.00274272
4690.85953125,0.00259452
4692.78833862,0.00262966
4694.71714600,0.00263333
4696.64595337,0.00259169
4698.57476074,0.00263187
4700.50356812,0.00256681
4702.43237549,0.00258248
4704.36118286,0.00261695
4706.28999023,0.00259680
4708.21879761,0.00259379
4710.14760498,0.00256591
4712.07641235,0.00253124
4714.00521973,0.00250367
4715.93402710,0.00253528
4717.86283447,0.00256358
4719.79164185,0.00257301
4721.72044922,0.00252860
4723.64925659,0.00251042
4725.57806396,0.00254122
4727.50687134,0.00246313
4729.43567871,0.00244881
4731.36448608,0.00245700
4733.29329346,0.00249675
4735.22210083,0.00248414
4737.15090820,0.00238481
4739.07971558,0.00250093
4741.00852295,0.00249206
4742.93733032,0.00239305
4744.86613770,0.00242976
4746.79494507,0.00249121
4748.72375244,0.00254911
4750.65255981,0.00245505
4752.58136719,0.00241097
4754.51017456,0.00246924
4756.43898193,0.00247080
4758.36778931,0.00241684
4760.29659668,0.00239351
4762.22540405,0.00243610
4764.15421143,0.00246335
4766.08301880,0.00243026
4768.01182617,0.00238516
4769.94063354,0.00243692
4771.86944092,0.00237037
4773.79824829,0.00234306
4775.72705566,0.00238114
4777.65586304,0.00233232
4779.58467041,0.00241367
4781.51347778,0.00238662
4783.44228516,0.00238353
4785.37109253,0.00239005
4787.29989990,0.00233522
4789.22870728,0.00238219
4791.15751465,0.00236310
4793.08632202,0.00238655
4795.01512939,0.00232146
4796.94393677,0.00236278
4798.87274414,0.00243142
4800.80155151,0.00228953
4802.73035889,0.00234928
4804.65916626,0.00234114
4806.58797363,0.00219125
4808.51678101,0.00219488
4810.44558838,0.00230885
4812.37439575,0.00235260
4814.30320312,0.00231581
4816.23201050,0.00227998
4818.16081787,0.00222974
4820.08962524,0.00226536
4822.01843262,0.00223958
4823.94723999,0.00225225
4825.87604736,0.00227134
4827.80485474,0.00218204
4829.73366211,0.00225895
4831.66246948,0.00231257
4833.59127686,0.00224742
4835.52008423,0.00215242
4837.44889160,0.00213948
4839.37769897,0.00221928
4841.30650635,0.00217561
4843.23531372,0.00217253
4845.16412109,0.00221314
4847.09292847,0.00217791
4849.02173584,0.00217656
4850.95054321,0.00215465
4852.87935059,0.00218123
4854.80815796,0.00222351
4856.73696533,0.00217372
4858.66577270,0.00220006
4860.59458008,0.00215845
4862.52338745,0.00212086
4864.45219482,0.00215717
4866.38100220,0.00211820
4868.30980957,0.00216454
4870.23861694,0.00206953
4872.16742432,0.00200563
4874.09623169,0.00211422
4876.02503906,0.00210019
4877.95384644,0.00210424
4879.88265381,0.00208929
4881.81146118,0.00207094
4883.74026855,0.00204618
4885.66907593,0.00207011
4887.59788330,0.00214387
4889.52669067,0.00210957
4891.45549805,0.00208574
4893.38430542,0.00205748
4895.31311279,0.00203239
4897.24192017,0.00201228
4899.17072754,0.00204696
4901.09953491,0.00204176
4903.02834228,0.00200493
4904.95714966,0.00202999
4906.88595703,0.00200138
4908.81476440,0.00201376
4910.74357178,0.00199519
4912.67237915,0.00205289
4914.60118652,0.00200847
4916.52999390,0.00195803
4918.45880127,0.00208592
4920.38760864,0.00192300
4922.31641602,0.00193160
4924.24522339,0.00206775
4926.17403076,0.00200316
4928.10283813,0.00197594
4930.03164551,0.00197799
4931.96045288,0.00203976
4933.88926025,0.00198605
4935.81806763,0.00194920
4937.74687500,0.00198600
4939.67568237,0.00203658
4941.60448975,0.00198186
4943.53329712,0.00188715
4945.46210449,0.00198192
4947.39091187,0.00196130
4949.31971924,0.00193852
4951.24852661,0.00191217
4953.17733398,0.00189866
4955.10614136,0.00193490
4957.03494873,0.00190621
4958.96375610,0.00195344
4960.89256348,0.00188871
4962.82137085,0.00191101
4964.75017822,0.00192786
4966.67898560,0.00180331
4968.60779297,0.00183927
4970.53660034,0.00189587
4972.46540771,0.00187514
4974.39421509,0.00181883
4976.32302246,0.00184964
4978.25182983,0.00189255
4980.18063721,0.00190329
4982.10944458,0.00187605
4984.03825195,0.00184460
4985.96705933,0.00188474
4987.89586670,0.00182591
4989.82467407,0.00179967
4991.75348145,0.00185499
4993.68228882,0.00185747
4995.61109619,0.00176422
4997.53990356,0.00181536
4999.46871094,0.00186026
5001.39751831,0.00172315
5003.32632568,0.00183850
5005.25513306,0.00182236
5007.18394043,0.00176555
5009.11274780,0.00184670
5011.04155518,0.00170070
5012.97036255,0.00176351
5014.89916992,0.00184614
5016.82797729,0.00174077
5018.75678467,0.00175192
5020.68559204,0.00178846
5022.61439941,0.00180371
5024.54320679,0.00178995
5026.47201416,0.00174530
5028.40082153,0.00171855
5030.32962891,0.00172767
5032.25843628,0.00171802
5034.18724365,0.00170656
5036.11605103,0.00168649
5038.04485840,0.00162516
5039.97366577,0.00168762
5041.90247314,0.00175134
5043.83128052,0.00164924
5045.76008789,0.00165600
5047.68889526,0.00165194
5049.61770264,0.00163718
5051.54651001,0.00175940
5053.47531738,0.00163612
5055.40412476,0.00161352
5057.33293213,0.00169517
5059.26173950,0.00161951
5061.19054687,0.00167848
5063.11935425,0.00165265
5065.04816162,0.00164104
5066.97696899,0.00160998
5068.90577637,0.00160181
5070.83458374,0.00167930
5072.76339111,0.00160791
5074.69219849,0.00163050
5076.62100586,0.00162750
5078.54981323,0.00165427
5080.47862061,0.00164217
5082.40742798,0.00156250
5084.33623535,0.00159909
5086.26504272,0.00159445
5088.19385010,0.00163550
5090.12265747,0.00153829
5092.05146484,0.00152887
5093.98027222,0.00163412
5095.90907959,0.00158440
5097.83788696,0.00154883
5099.76669434,0.00151725
5101.69550171,0.00159387
5103.62430908,0.00159467
5105.55311645,0.00162005
5107.48192383,0.00164321
5109.41073120,0.00150234
5111.33953857,0.00151983
5113.26834595,0.00150940
5115.19715332,0.00147897
5117.12596069,0.00150889
5119.05476807,0.00152690
5120.98357544,0.00156775
5122.91238281,0.00156367
5124.84119019,0.00152768
5126.76999756,0.00147953
5128.69880493,0.00149774
5130.62761230,0.00153944
5132.55641968,0.00152079
5134.48522705,0.00148506
5136.41403442,0.00152678
5138.34284180,0.00154356
5140.27164917,0.00154322
5142.20045654,0.00156596
5144.12926392,0.00147926
5146.05807129,0.00144497
5147.98687866,0.00144136
5149.91568603,0.00149941
5151.84449341,0.00155158
5153.77330078,0.00145695
5155.70210815,0.00144334
5157.63091553,0.00146288
5159.55972290,0.00144291
5161.48853027,0.00141105
5163.41733765,0.00144266
5165.34614502,0.00144167
5167.27495239,0.00142852
5169.20375977,0.00152847
5171.13256714,0.00143494
5173.06137451,0.00132311
5174.99018188,0.00145356
5176.91898926,0.00149086
5178.84779663,0.00139347
5180.77660400,0.00140694
5182.70541138,0.00138453
5184.63421875,0.00140165
5186.56302612,0.00144837
5188.49183350,0.00134809
5190.42064087,0.00140389
5192.34944824,0.00140834
5194.27825562,0.00139142
5196.20706299,0.00144193
5198.13587036,0.00140137
5200.06467773,0.00140618
5201.99348511,0.00132745
5203.92229248,0.00139227
5205.85109985,0.00139889
5207.77990723,0.00130418
5209.70871460,0.00136775
5211.63752197,0.00133503
5213.56632935,0.00136474
5215.49513672,0.00137080
5217.42394409,0.00135274
5219.35275146,0.00131753
5221.28155884,0.00129779
5223.21036621,0.00136647
5225.13917358,0.00129478
5227.06798096,0.00133479
5228.99678833,0.00133583
5230.92559570,0.00125458
5232.85440308,0.00127675
5234.78321045,0.00132596
5236.71201782,0.00139400
5238.64082520,0.00129025
5240.56963257,0.00128308
5242.49843994,0.00133540
5244.42724731,0.00124553
5246.35605469,0.00130707
5248.28486206,0.00131278
5250.21366943,0.00120212
5252.14247681,0.00129879
5254.07128418,0.00129771
5256.00009155,0.00116355
5257.92889893,0.00129507
5259.85770630,0.00130673
5261.78651367,0.00122940
5263.71532104,0.00130532
5265.64412842,0.00124679
5267.57293579,0.00125007
5269.50174316,0.00128613
5271.43055054,0.00126574
5273.35935791,0.00124425
5275.28816528,0.00116285
5277.21697266,0.00120825
5279.14578003,0.00123553
5281.07458740,0.00121788
5283.00339478,0.00124272
5284.93220215,0.00118807
5286.86100952,0.00120350
5288.78981689,0.00121908
5290.71862427,0.00120115
5292.64743164,0.00123850
5294.57623901,0.00123200
5296.50504639,0.00123189
5298.43385376,0.00117565
5300.36266113,0.00117512
5302.29146851,0.00124379
5304.22027588,0.00119371
5306.14908325,0.00116403
5308.07789062,0.00114643
5310.00669800,0.00120668
5311.93550537,0.00121569
5313.86431274,0.00112064
5315.79312012,0.00117960
5317.72192749,0.00119818
5319.65073486,0.00120634
5321.57954224,0.00118821
5323.50834961,0.00110662
5325.43715698,0.00118449
5327.36596436,0.00118798
5329.29477173,0.00109996
5331.22357910,0.00115554
5333.15238647,0.00116401
5335.08119385,0.00112246
5337.01000122,0.00116797
5338.93880859,0.00112470
5340.86761597,0.00113878
5342.79642334,0.00116153
5344.72523071,0.00106999
5346.65403809,0.00108143
5348.58284546,0.00105356
5350.51165283,0.00108860
5352.44046020,0.00111941
5354.36926758,0.00108429
5356.29807495,0.00116385
5358.22688232,0.00112459
5360.15568970,0.00107538
5362.08449707,0.00107375
5364.01330444,0.00107882
5365.94211182,0.00109664
5367.87091919,0.00108374
5369.79972656,0.00112246
5371.72853394,0.00111445
5373.65734131,0.00113813
5375.58614868,0.00113889
5377.51495605,0.00103538
5379.44376343,0.00102493
5381.37257080,0.00108524
5383.30137817,0.00109077
5385.23018555,0.00105716
5387.15899292,0.00103420
5389.08780029,0.00103401
5391.01660767,0.00108967
5392.94541504,0.00105401
5394.87422241,0.00096170
5396.80302978,0.00098353
5398.73183716,0.00101497
5400.66064453,0.00104914
5402.58945190,0.00107983
5404.51825928,0.00103211
5406.44706665,0.00098807
5408.37587402,0.00103845
5410.30468140,0.00106199
5412.23348877,0.00102349
5414.16229614,0.00101000
5416.09110352,0.00097563
5418.01991089,0.00096400
5419.94871826,0.00103806
5421.87752563,0.00105111
5423.80633301,0.00099224
5425.73514038,0.00106187
5427.66394775,0.00104820
5429.59275513,0.00096341
5431.52156250,0.00103291
5433.45036987,0.00100592
5435.37917725,0.00096446
5437.30798462,0.00098844
5439.23679199,0.00098445
5441.16559936,0.00100900
5443.09440674,0.00100885
5445.02321411,0.00097931
5446.95202148,0.00100183
5448.88082886,0.00105981
5450.80963623,0.00100554
5452.73844360,0.00095324
5454.66725098,0.00097371
5456.59605835,0.00101136
5458.52486572,0.00099225
5460.45367310,0.00089094
5462.38248047,0.00090899
5464.31128784,0.00094955
5466.24009521,0.00099008
5468.16890259,0.00099353
5470.09770996,0.00092531
5472.02651733,0.00094941
5473.95532471,0.00095677
5475.88413208,0.00092544
5477.81293945,0.00092671
5479.74174683,0.00098323
5481.67055420,0.00097736
5483.59936157,0.00098166
5485.52816895,0.00099208
5487.45697632,0.00087795
5489.38578369,0.00091501
5491.31459106,0.00095541
5493.24339844,0.00092405
5495.17220581,0.00091823
5497.10101318,0.00089923
5499.02982056,0.00096554
5500.95862793,0.00091085
5502.88743530,0.00086502
5504.81624268,0.00094211
5506.74505005,0.00090801
5508.67385742,0.00092628
5510.60266479,0.00098270
5512.53147217,0.00093158
5514.46027954,0.00092008
5516.38908691,0.00087524
5518.31789429,0.00086548
5520.24670166,0.00094786
5522.17550903,0.00090129
5524.10431641,0.00089304
5526.03312378,0.00086492
5527.96193115,0.00084218
5529.89073853,0.00091047
5531.81954590,0.00084730
5533.74835327,0.00087120
5535.67716064,0.00086354
5537.60596802,0.00078876
5539.53477539,0.00084694
5541.46358276,0.00086514
5543.39239014,0.00087128
5545.32119751,0.00085495
5547.25000488,0.00084178
5549.17881226,0.00085466
5551.10761963,0.00087736
5553.03642700,0.00091830
5554.96523437,0.00088012
5556.89404175,0.00085643
5558.82284912,0.00087027
5560.75165649,0.00087400
5562.68046387,0.00087634
5564.60927124,0.00081967
5566.53807861,0.00079408
5568.46688599,0.00084515
5570.39569336,0.00084868
5572.32450073,0.00086444
5574.25330811,0.00088106
5576.18211548,0.00083414
5578.11092285,0.00082051
5580.03973022,0.00078817
5581.96853760,0.00076700
5583.89734497,0.00079270
5585.82615234,0.00080966
5587.75495972,0.00083620
5589.68376709,0.00079794
5591.61257446,0.00076112
5593.54138184,0.00081410
5595.47018921,0.00079540
5597.39899658,0.00081541
5599.32780395,0.00084546
5601.25661133,0.00070632
5603.18541870,0.00076778
5605.11422607,0.00080020
5607.04303345,0.00076580
5608.97184082,0.00087134
5610.90064819,0.00073687
5612.82945557,0.00077763
5614.75826294,0.00083628
5616.68707031,0.00077744
5618.61587769,0.00086052
5620.54468506,0.00075150
5622.47349243,0.00075939
5624.40229980,0.00077343
5626.33110718,0.00073514
5628.25991455,0.00074773
5630.18872192,0.00070555
5632.11752930,0.00075288
5634.04633667,0.00076460
5635.97514404,0.00082076
5637.90395142,0.00071904
5639.83275879,0.00070237
5641.76156616,0.00080585
5643.69037353,0.00070096
5645.61918091,0.00077204
5647.54798828,0.00078800
5649.47679565,0.00077805
5651.40560303,0.00076490
5653.33441040,0.00073316
5655.26321777,0.00082709
5657.19202515,0.00071476
5659.12083252,0.00070985
5661.04963989,0.00075916
5662.97844727,0.00070137
5664.90725464,0.00077330
5666.83606201,0.00077256
5668.76486938,0.00073994
5670.69367676,0.00077637
5672.62248413,0.00076271
5674.55129150,0.00073917
5676.48009888,0.00071243
5678.40890625,0.00067037
5680.33771362,0.00076808
5682.26652100,0.00075625
5684.19532837,0.00066352
5686.12413574,0.00075318
5688.05294311,0.00071014
5689.98175049,0.00070213
5691.91055786,0.00072622
5693.83936523,0.00063778
5695.76817261,0.00076019
5697.69697998,0.00077647
5699.62578735,0.00064152
5701.55459473,0.00071158
5703.48340210,0.00071070
5705.41220947,0.00066004
5707.34101685,0.00073436
5709.26982422,0.00071762
5711.19863159,0.00072342
5713.12743896,0.00076311
5715.05624634,0.00068843
5716.98505371,0.00065110
5718.91386108,0.00066784
5720.84266846,0.00068407
5722.77147583,0.00073159
5724.70028320,0.00070220
5726.62909058,0.00061670
5728.55789795,0.00066556
5730.48670532,0.00064062
5732.41551270,0.00063017
5734.34432007,0.00067614
5736.27312744,0.00055000
5738.20193481,0.00063672
5740.13074219,0.00067356
5742.05954956,0.00057674
5743.98835693,0.00067749
5745.91716431,0.00067082
5747.84597168,0.00065953
5749.77477905,0.00068402
5751.70358643,0.00066809
5753.63239380,0.00057779
5755.56120117,0.00052857
5757.49000854,0.00061905
5759.41881592,0.00059513
5761.34762329,0.00064948
5763.27643066,0.00065441
5765.20523804,0.00055053
5767.13404541,0.00057783
5769.06285278,0.00062334
5770.99166016,0.00068105
5772.92046753,0.00061294
5774.84927490,0.00058816
5776.77808228,0.00064933
5778.70688965,0.00062115
5780.63569702,0.00066310
5782.56450439,0.00064274
5784.49331177,0.00063658
5786.42211914,0.00065943
5788.35092651,0.00057920
5790.27973389,0.00062519
5792.20854126,0.00064481
5794.13734863,0.00058458
5796.06615601,0.00061993
5797.99496338,0.00058072
5799.92377075,0.00056004
5801.85257812,0.00064722
5803.78138550,0.00059161
5805.71019287,0.00052601
5807.63900024,0.00060418
5809.56780762,0.00060387
5811.49661499,0.00060763
5813.42542236,0.00064560
5815.35422974,0.00056586
5817.28303711,0.00057734
5819.21184448,0.00060882
5821.14065186,0.00054835
5823.06945923,0.00058843
5824.99826660,0.00059797
5826.92707397,0.00053975
5828.85588135,0.00053051
5830.78468872,0.00050559
5832.71349609,0.00051946
5834.64230347,0.00058172
5836.57111084,0.00056563
5838.49991821,0.00054117
5840.42872559,0.00053323
5842.35753296,0.00051866
5844.28634033,0.00052591
5846.21514770,0.00047837
5848.14395508,0.00052333
5850.07276245,0.00056156
5852.00156982,0.00047285
5853.93037720,0.00050615
5855.85918457,0.00053590
5857.78799194,0.00054650
5859.71679932,0.00058917
5861.64560669,0.00059366
5863.57441406,0.00060630
5865.50322144,0.00056182
5867.43202881,0.00058321
5869.36083618,0.00062207
5871.28964355,0.00055773
5873.21845093,0.00052857
5875.14725830,0.00052546
5877.07606567,0.00056331
5879.00487305,0.00054131
5880.93368042,0.00045936
5882.86248779,0.00053882
5884.79129517,0.00055037
5886.72010254,0.00047433
5888.64890991,0.00048527
5890.57771728,0.00043656
5892.50652466,0.00046219
5894.43533203,0.00051068
5896.36413940,0.00047066
5898.29294678,0.00050664
5900.22175415,0.00056101
5902.15056152,0.00054302
5904.07936890,0.00051677
5906.00817627,0.00056577
5907.93698364,0.00052813
5909.86579102,0.00051320
5911.79459839,0.00053906
5913.72340576,0.00047637
5915.65221313,0.00052410
5917.58102051,0.00047260
5919.50982788,0.00048046
5921.43863525,0.00058951
5923.36744263,0.00049681
5925.29625000,0.00044673
5927.22505737,0.00044860
5929.15386475,0.00043947
5931.08267212,0.00042334
5933.01147949,0.00046434
5934.94028686,0.00047691
5936.86909424,0.00047495
5938.79790161,0.00056150
5940.72670898,0.00048806
5942.65551636,0.00044790
5944.58432373,0.00044885
5946.51313110,0.00043574
5948.44193848,0.00048946
5950.37074585,0.00048203
5952.29955322,0.00048114
5954.22836060,0.00045385
5956.15716797,0.00049567
5958.08597534,0.00049593
5960.01478271,0.00044537
5961.94359009,0.00049631
5963.87239746,0.00046408
5965.80120483,0.00046220
5967.73001221,0.00045086
5969.65881958,0.00041944
5971.58762695,0.00047170
5973.51643433,0.00046081
5975.44524170,0.00046344
5977.37404907,0.00047669
5979.30285645,0.00044944
5981.23166382,0.00047686
5983.16047119,0.00048063
5985.08927856,0.00044970
5987.01808594,0.00043804
5988.94689331,0.00040783
5990.87570068,0.00044574
5992.80450806,0.00051367
5994.73331543,0.00051590
5996.66212280,0.00045646
5998.59093018,0.00041735
6000.51973755,0.00047325
