399.26312622,0.00054707
401.19193359,0.00042731
403.12074097,0.00020082
405.04954834,0.00012939
406.97835571,0.00042161
408.90716309,0.00051500
410.83597046,-0.00005406
412.76477783,0.00053843
414.69358521,0.00062302
416.62239258,0.00040467
418.55119995,0.00052070
420.48000732,0.00011175
422.40881470,0.00064365
424.33762207,0.00070836
426.26642944,0.00045164
428.19523682,0.00071014
430.12404419,0.00075325
432.05285156,0.00059579
433.98165894,0.00052327
435.91046631,0.00094007
437.83927368,0.00095147
439.76808105,0.00056864
441.69688843,0.00021215
443.62569580,0.00042518
445.55450317,0.00062182
447.48331055,0.00066684
449.41211792,0.00079778
451.34092529,0.00024919
453.26973267,0.00049942
455.19854004,0.00043348
457.12734741,0.00021974
459.05615479,0.00064670
460.98496216,0.00000255
462.91376953,0.00000744
464.84257690,0.00039176
466.77138428,0.00024058
468.70019165,0.00022353
470.62899902,0.00034840
472.55780640,0.00044116
474.48661377,0.00039551
476.41542114,0.00028241
478.34422852,-0.00007738
480.27303589,0.00041833
482.20184326,0.00047642
484.13065063,-0.00022206
486.05945801,-0.00001164
487.98826538,0.00040526
489.91707275,0.00044579
491.84588013,0.00006548
493.77468750,0.00033837
495.70349487,0.00054570
497.63230225,0.00030257
499.56110962,0.00023283
501.48991699,-0.00013442
503.41872437,0.00011099
505.34753174,0.00029110
507.27633911,0.00045116
509.20514648,0.00047010
511.13395386,-0.00003754
513.06276123,0.00027333
514.99156860,0.00008229
516.92037598,-0.00011659
518.84918335,0.00047463
520.77799072,0.00025562
522.70679810,0.00044276
524.63560547,0.00053529
526.56441284,0.00025496
528.49322021,0.00049568
530.42202759,-0.00007220
532.35083496,0.00021035
534.27964233,0.00059433
536.20844971,0.00009872
538.13725708,0.00009448
540.06606445,0.00003530
541.99487183,0.00014196
543.92367920,-0.00008281
545.85248657,0.00031128
547.78129395,0.00048071
549.71010132,-0.00029829
551.63890869,0.00023486
553.56771606,0.00030131
555.49652344,0.00004710
557.42533081,0.00004769
559.35413818,0.00001219
561.28294556,0.00042845
563.21175293,0.00022909
565.14056030,0.00002077
567.06936768,-0.00019269
568.99817505,0.00010524
570.92698242,0.00059419
572.85578979,0.00002942
574.78459717,0.00003986
576.71340454,0.00042282
578.64221191,0.00020464
580.57101929,0.00030265
582.49982666,0.00034958
584.42863403,-0.00021297
586.35744141,-0.00019414
588.28624878,0.00020674
590.21505615,0.00011948
592.14386353,0.00009028
594.07267090,0.00038500
596.00147827,0.00045149
597.93028564,0.00005560
599.85909302,0.00011424
601.78790039,0.00034413
603.71670776,0.00010513
605.64551514,0.00026758
607.57432251,0.00022665
609.50312988,0.00010786
611.43193726,0.00022473
613.36074463,0.00000294
615.28955200,0.00042969
617.21835938,0.00039743
619.14716675,-0.00002958
621.07597412,-0.00008457
623.00478149,0.00003050
624.93358887,-0.00023255
626.86239624,-0.00015326
628.79120361,0.00017409
630.72001099,0.00026426
632.64881836,0.00031977
634.57762573,0.00021611
636.50643311,0.00065747
638.43524048,0.00044173
640.36404785,0.00048473
642.29285522,0.00061294
644.22166260,0.00037612
646.15046997,0.00110845
648.07927734,0.00065986
650.00808472,0.00038657
651.93689209,0.00104587
653.86569946,0.00079099
655.79450684,0.00072076
657.72331421,0.00069557
659.65212158,0.00076970
661.58092896,0.00102132
663.50973633,0.00091298
665.43854370,0.00108670
667.36735107,0.00127622
669.29615845,0.00094257
671.22496582,0.00101629
673.15377319,0.00146761
675.08258057,0.00125987
677.01138794,0.00109140
678.94019531,0.00135956
680.86900269,0.00166271
682.79781006,0.00156532
684.72661743,0.00119263
686.65542480,0.00142286
688.58423218,0.00145252
690.51303955,0.00119017
692.44184692,0.00123322
694.37065430,0.00121040
696.29946167,0.00153748
698.22826904,0.00192286
700.15707642,0.00201853
702.08588379,0.00200880
704.01469116,0.00180644
705.94349854,0.00145587
707.87230591,0.00114648
709.80111328,0.00116877
711.72992065,0.00094036
713.65872803,0.00056977
715.58753540,0.00027375
717.51634277,0.00007770
719.44515015,0.00016987
721.37395752,-0.00003495
723.30276489,0.00012197
725.23157227,0.00003875
727.16037964,-0.00014663
729.08918701,0.00029576
731.01799438,0.00003997
732.94680176,0.00005703
734.87560913,0.00026481
736.80441650,0.00031666
738.73322388,0.00041849
740.66203125,0.00042896
742.59083862,0.00033407
744.51964600,0.00005281
746.44845337,-0.00013018
748.37726074,0.00023569
750.30606812,0.00036200
752.23487549,0.00006636
754.16368286,0.00010859
756.09249023,0.00018694
758.02129761,0.00006174
759.95010498,0.00015146
761.87891235,0.00030860
763.80771973,0.00040958
765.73652710,0.00000288
767.66533447,-0.00004198
769.59414185,0.00048840
771.52294922,0.00024181
773.45175659,0.00020311
775.38056396,0.00020443
777.30937134,0.00014057
779.23817871,0.00005313
781.16698608,0.00003186
783.09579346,0.00009217
785.02460083,0.00019981
786.95340820,0.00040613
788.88221558,0.00005460
790.81102295,0.00018240
792.73983032,0.00018138
794.66863770,0.00011907
796.59744507,0.00018120
798.52625244,-0.00006739
800.45505981,0.00019637
802.38386719,0.00034784
804.31267456,0.00023988
806.24148193,0.00025826
808.17028931,0.00020610
810.09909668,0.00016775
812.02790405,0.00030093
813.95671143,0.00032250
815.88551880,-0.00000429
817.81432617,0.00019197
819.74313354,0.00027989
821.67194092,0.00014790
823.60074829,0.00032217
825.52955566,-0.00003329
827.45836304,0.00007689
829.38717041,0.00045781
831.31597778,0.00026278
833.24478516,0.00044726
835.17359253,0.00056452
837.10239990,0.00049635
839.03120728,0.00042910
840.96001465,0.00027079
842.88882202,0.00052692
844.81762939,0.00035170
846.74643677,0.00027283
848.67524414,0.00063953
850.60405151,0.00037788
852.53285889,0.00055165
854.46166626,0.00058108
856.39047363,0.00024628
858.31928101,0.00048981
860.24808838,0.00046831
862.17689575,0.00041035
864.10570313,0.00032089
866.03451050,0.00010163
867.96331787,0.00003818
869.89212524,0.00035793
871.82093262,0.00050428
873.74973999,0.00005296
875.67854736,0.00019979
877.60735474,0.00028049
879.53616211,0.00019397
881.46496948,0.00021088
883.39377686,0.00008344
885.32258423,0.00039828
887.25139160,0.00038827
889.18019897,0.00031832
891.10900635,0.00051640
893.03781372,0.00043999
894.96662109,0.00032387
896.89542847,0.00002502
898.82423584,0.00010081
900.75304321,0.00032148
902.68185059,0.00025374
904.61065796,0.00031315
906.53946533,0.00027484
908.46827271,0.00013178
910.39708008,0.00031448
912.32588745,0.00037410
914.25469482,0.00027028
916.18350220,0.00029755
918.11230957,0.00037829
920.04111694,0.00048051
921.96992432,0.00040918
923.89873169,0.00055244
925.82753906,0.00060782
927.75634644,0.00057566
929.68515381,0.00062877
931.61396118,0.00069016
933.54276855,0.00083279
935.47157593,0.00055631
937.40038330,0.00056809
939.32919067,0.00074306
941.25799805,0.00076164
943.18680542,0.00075457
945.11561279,0.00078591
947.04442017,0.00085068
948.97322754,0.00055329
950.90203491,0.00088254
952.83084229,0.00100321
954.75964966,0.00080885
956.68845703,0.00092988
958.61726440,0.00069372
960.54607178,0.00088471
962.47487915,0.00099291
964.40368652,0.00083217
966.33249390,0.00081025
968.26130127,0.00079624
970.19010864,0.00074011
972.11891602,0.00085549
974.04772339,0.00123781
975.97653076,0.00106525
977.90533813,0.00108418
979.83414551,0.00127614
981.76295288,0.00135210
983.69176025,0.00156815
985.62056763,0.00172396
987.54937500,0.00203214
989.47818237,0.00201361
991.40698975,0.00223291
993.33579712,0.00252130
995.26460449,0.00270249
997.19341187,0.00302450
999.12221924,0.00302043
1001.05102661,0.00350302
1002.97983398,0.00383195
1004.90864136,0.00388156
1006.83744873,0.00422225
1008.76625610,0.00440995
1010.69506348,0.00471644
1012.62387085,0.00478246
1014.55267822,0.00492373
1016.48148560,0.00540322
1018.41029297,0.00554732
1020.33910034,0.00575492
1022.26790771,0.00618042
1024.19671509,0.00641251
1026.12552246,0.00653547
1028.05432983,0.00673350
1029.98313721,0.00701111
1031.91194458,0.00725090
1033.84075195,0.00744583
1035.76955933,0.00766255
1037.69836670,0.00773686
1039.62717407,0.00765027
1041.55598145,0.00773643
1043.48478882,0.00783611
1045.41359619,0.00756465
1047.34240356,0.00743617
1049.27121094,0.00737783
1051.20001831,0.00729224
1053.12882568,0.00739566
1055.05763306,0.00695066
1056.98644043,0.00672238
1058.91524780,0.00677912
1060.84405518,0.00634550
1062.77286255,0.00612300
1064.70166992,0.00594799
1066.63047729,0.00590801
1068.55928467,0.00587748
1070.48809204,0.00555926
1072.41689941,0.00515293
1074.34570679,0.00475034
1076.27451416,0.00479747
1078.20332153,0.00457007
1080.13212891,0.00420550
1082.06093628,0.00419245
1083.98974365,0.00393397
1085.91855103,0.00360653
1087.84735840,0.00337368
1089.77616577,0.00344391
1091.70497314,0.00336139
1093.63378052,0.00315612
1095.56258789,0.00330508
1097.49139526,0.00300633
1099.42020264,0.00282443
1101.34901001,0.00300206
1103.27781738,0.00292485
1105.20662476,0.00296141
1107.13543213,0.00285917
1109.06423950,0.00270023
1110.99304687,0.00264131
1112.92185425,0.00265711
1114.85066162,0.00283021
1116.77946899,0.00269098
1118.70827637,0.00261026
1120.63708374,0.00267192
1122.56589111,0.00262822
1124.49469849,0.00275449
1126.42350586,0.00278258
1128.35231323,0.00266549
1130.28112061,0.00277400
1132.20992798,0.00293770
1134.13873535,0.00282124
1136.06754272,0.00295189
1137.99635010,0.00326801
1139.92515747,0.00340759
1141.85396484,0.00360818
1143.78277222,0.00386751
1145.71157959,0.00433126
1147.64038696,0.00448070
1149.56919434,0.00461110
1151.49800171,0.00510268
1153.42680908,0.00521858
1155.35561646,0.00534153
1157.28442383,0.00570719
1159.21323120,0.00590672
1161.14203857,0.00603835
1163.07084595,0.00643534
1164.99965332,0.00650567
1166.92846069,0.00651622
1168.85726807,0.00695848
1170.78607544,0.00716604
1172.71488281,0.00755205
1174.64369019,0.00786361
1176.57249756,0.00812380
1178.50130493,0.00842971
1180.43011230,0.00858090
1182.35891968,0.00908753
1184.28772705,0.00940247
1186.21653442,0.00982931
1188.14534180,0.01028831
1190.07414917,0.01069749
1192.00295654,0.01144503
1193.93176392,0.01192499
1195.86057129,0.01238566
1197.78937866,0.01295155
1199.71818604,0.01362256
1201.64699341,0.01427178
1203.57580078,0.01487156
1205.50460815,0.01541383
1207.43341553,0.01576312
1209.36222290,0.01640225
1211.29103027,0.01696078
1213.21983765,0.01736122
1215.14864502,0.01782551
1217.07745239,0.01811640
1219.00625977,0.01852850
1220.93506714,0.01901858
1222.86387451,0.01914252
1224.79268188,0.01930490
1226.72148926,0.01954602
1228.65029663,0.01947946
1230.57910400,0.01962548
1232.50791138,0.01972304
1234.43671875,0.01972308
1236.36552612,0.01976917
1238.29433350,0.01962895
1240.22314087,0.01970056
1242.15194824,0.01962632
1244.08075562,0.01944485
1246.00956299,0.01951280
1247.93837036,0.01953104
1249.86717773,0.01931521
1251.79598511,0.01920484
1253.72479248,0.01915147
1255.65359985,0.01879689
1257.58240723,0.01862048
1259.51121460,0.01828935
1261.44002197,0.01787370
1263.36882935,0.01777128
1265.29763672,0.01749210
1267.22644409,0.01718439
1269.15525146,0.01700667
1271.08405884,0.01687489
1273.01286621,0.01662043
1274.94167358,0.01639563
1276.87048096,0.01610724
1278.79928833,0.01553704
1280.72809570,0.01523244
1282.65690308,0.01517395
1284.58571045,0.01501004
1286.51451782,0.01470303
1288.44332520,0.01424042
1290.37213257,0.01407231
1292.30093994,0.01424836
1294.22974731,0.01395205
1296.15855469,0.01380496
1298.08736206,0.01407837
1300.01616943,0.01398741
1301.94497681,0.01403967
1303.87378418,0.01424171
1305.80259155,0.01444908
1307.73139893,0.01456473
1309.66020630,0.01461632
1311.58901367,0.01494187
1313.51782104,0.01534595
1315.44662842,0.01581220
1317.37543579,0.01605891
1319.30424316,0.01645836
1321.23305054,0.01705990
1323.16185791,0.01746262
1325.09066528,0.01794770
1327.01947266,0.01851870
1328.94828003,0.01908154
1330.87708740,0.01946460
1332.80589478,0.01997103
1334.73470215,0.02040277
1336.66350952,0.02055145
1338.59231689,0.02049282
1340.52112427,0.02062781
1342.44993164,0.02140611
1344.37873901,0.02154937
1346.30754639,0.02158419
1348.23635376,0.02171808
1350.16516113,0.02135128
1352.09396851,0.02148111
1354.02277588,0.02123977
1355.95158325,0.02083155
1357.88039062,0.02086687
1359.80919800,0.02062605
1361.73800537,0.01993971
1363.66681274,0.01961689
1365.59562012,0.02041800
1367.52442749,0.02018853
1369.45323486,0.01983349
1371.38204224,0.02024033
1373.31084961,0.01922457
1375.23965698,0.01911521
1377.16846436,0.01985247
1379.09727173,0.01964405
1381.02607910,0.01969193
1382.95488647,0.01983821
1384.88369385,0.01965536
1386.81250122,0.01889816
1388.74130859,0.01907653
1390.67011597,0.02059325
1392.59892334,0.02022599
1394.52773071,0.01907688
1396.45653809,0.01996562
1398.38534546,0.01983360
1400.31415283,0.01980871
1402.24296021,0.02133561
1404.17176758,0.02029258
1406.10057495,0.02032004
1408.02938232,0.02107544
1409.95818970,0.02036720
1411.88699707,0.02078181
1413.81580444,0.02022477
1415.74461182,0.02031268
1417.67341919,0.01849706
1419.60222656,0.01669038
1421.53103394,0.01896568
1423.45984131,0.01857709
1425.38864868,0.01791978
1427.31745605,0.01820318
1429.24626343,0.01702705
1431.17507080,0.01639483
1433.10387817,0.01670925
1435.03268555,0.01546366
1436.96149292,0.01300277
1438.89030029,0.01472109
1440.81910767,0.01512578
1442.74791504,0.01409634
1444.67672241,0.01502519
1446.60552979,0.01364551
1448.53433716,0.01372050
1450.46314453,0.01416617
1452.39195190,0.01447909
1454.32075928,0.01505174
1456.24956665,0.01249385
1458.17837402,0.01304478
1460.10718140,0.01702648
1462.03598877,0.01843170
1463.96479614,0.01830280
1465.89360352,0.01900820
1467.82241089,0.02170351
1469.75121826,0.02314013
1471.68002563,0.02105356
1473.60883301,0.02204524
1475.53764038,0.02496607
1477.46644775,0.02675605
1479.39525513,0.02928759
1481.32406250,0.02993409
1483.25286987,0.03149622
1485.18167725,0.03267539
1487.11048462,0.03233932
1489.03929199,0.03204565
1490.96809937,0.03211789
1492.89690674,0.03735602
1494.82571411,0.03667308
1496.75452148,0.03286263
1498.68332886,0.03736982
1500.61213623,0.03856678
1502.54094360,0.04116736
1504.46975098,0.03925330
1506.39855835,0.02865988
1508.32736572,0.03463642
1510.25617310,0.04077430
1512.18498047,0.03927187
1514.11378784,0.04258686
1516.04259521,0.03883175
1517.97140259,0.04027836
1519.90020996,0.03904766
1521.82901733,0.03389858
1523.75782471,0.04125378
1525.68663208,0.04073073
1527.61543945,0.04045317
1529.54424683,0.04474460
1531.47305420,0.04311275
1533.40186157,0.03967275
1535.33066895,0.04174477
1537.25947632,0.04478202
1539.18828369,0.03274379
1541.11709106,0.03385741
1543.04589844,0.04050131
1544.97470581,0.03876611
1546.90351318,0.04561633
1548.83232056,0.04274531
1550.76112793,0.04405132
1552.68993530,0.04403357
1554.61874268,0.03992268
1556.54755005,0.04293558
1558.47635742,0.03093268
1560.40516479,0.03273452
1562.33397217,0.04598785
1564.26277954,0.04396311
1566.19158691,0.04522607
1568.12039429,0.04482266
1570.04920166,0.03999730
1571.97800903,0.04561266
1573.90681641,0.04647002
1575.83562378,0.03717440
1577.76443115,0.04158992
1579.69323853,0.04703892
1581.62204590,0.04499960
1583.55085327,0.04621436
1585.47966064,0.04555827
1587.40846802,0.04589638
1589.33727539,0.04541390
1591.26608276,0.04541091
1593.19489014,0.04563515
1595.12369751,0.04505817
1597.05250488,0.04591442
1598.98131226,0.04558156
1600.91011963,0.04579506
1602.83892700,0.04504013
1604.76773437,0.04584962
1606.69654175,0.04527640
1608.62534912,0.04513422
1610.55415649,0.04526432
1612.48296387,0.04543506
1614.41177124,0.04615692
1616.34057861,0.03805764
1618.26938599,0.04101807
1620.19819336,0.04773247
1622.12700073,0.04261006
1624.05580811,0.04278626
1625.98461548,0.04469881
1627.91342285,0.04453386
1629.84223022,0.04417776
1631.77103760,0.04727983
1633.69984497,0.04397745
1635.62865234,0.03627486
1637.55745972,0.04212836
1639.48626709,0.04640048
1641.41507446,0.04528084
1643.34388184,0.04644240
1645.27268921,0.04214806
1647.20149658,0.03716224
1649.13030396,0.04566699
1651.05911133,0.04389805
1652.98791870,0.02871182
1654.91672607,0.03787860
1656.84553345,0.04765045
1658.77434082,0.04572117
1660.70314819,0.04686398
1662.63195557,0.04292439
1664.56076294,0.04511923
1666.48957031,0.04833386
1668.41837769,0.04268344
1670.34718506,0.04136450
1672.27599243,0.04639718
1674.20479980,0.04310808
1676.13360718,0.04141093
1678.06241455,0.04751838
1679.99122192,0.04595669
1681.92002930,0.04556192
1683.84883667,0.03743241
1685.77764404,0.03672252
1687.70645142,0.05013150
1689.63525879,0.04391788
1691.56406616,0.04760700
1693.49287354,0.04899049
1695.42168091,0.03619567
1697.35048828,0.04404111
1699.27929565,0.03936510
1701.20810303,0.03503964
1703.13691040,0.04745980
1705.06571777,0.04403029
1706.99452515,0.04404983
1708.92333252,0.04801572
1710.85213989,0.04606507
1712.78094727,0.04682833
1714.70975464,0.04371148
1716.63856201,0.03932107
1718.56736938,0.03857524
1720.49617676,0.04553462
1722.42498413,0.04750537
1724.35379150,0.04396129
1726.28259888,0.04786095
1728.21140625,0.04439508
1730.14021362,0.04449878
1732.06902100,0.04371411
1733.99782837,0.03352334
1735.92663574,0.04127640
1737.85544312,0.04582807
1739.78425049,0.04089539
1741.71305786,0.04431252
1743.64186523,0.04490495
1745.57067261,0.04498202
1747.49947998,0.04546548
1749.42828735,0.04375789
1751.35709473,0.04167635
1753.28590210,0.04586210
1755.21470947,0.04835147
1757.14351685,0.04413382
1759.07232422,0.04840183
1761.00113159,0.04582761
1762.92993896,0.04398860
1764.85874634,0.05035373
1766.78755371,0.04556201
1768.71636108,0.04571946
1770.64516846,0.04564018
1772.57397583,0.04115947
1774.50278320,0.04576011
1776.43159058,0.04827514
1778.36039795,0.04768380
1780.28920532,0.04716376
1782.21801270,0.04740295
1784.14682007,0.04752325
1786.07562744,0.04661504
1788.00443481,0.04885651
1789.93324219,0.04779328
1791.86204956,0.04337386
1793.79085693,0.04501304
1795.71966431,0.04836890
1797.64847168,0.04790439
1799.57727905,0.04706031
1801.50608643,0.04644687
1803.43489380,0.04796473
1805.36370117,0.04888080
1807.29250854,0.04817914
1809.22131592,0.04847927
1811.15012329,0.04736222
1813.07893066,0.04871185
1815.00773804,0.04904556
1816.93654541,0.04838789
1818.86535278,0.04893085
1820.79416016,0.04875118
1822.72296753,0.04931218
1824.65177490,0.04626539
1826.58058228,0.04765273
1828.50938965,0.04808929
1830.43819702,0.04523252
1832.36700439,0.04886226
1834.29581177,0.04877314
1836.22461914,0.04878147
1838.15342651,0.04860424
1840.08223389,0.04876747
1842.01104126,0.04909538
1843.93984863,0.04366320
1845.86865601,0.04630277
1847.79746338,0.04900378
1849.72627075,0.04795269
1851.65507812,0.04940683
1853.58388550,0.04848837
1855.51269287,0.04912517
1857.44150024,0.04857103
1859.37030762,0.04833689
1861.29911499,0.04898550
1863.22792236,0.04814693
1865.15672974,0.04884774
1867.08553711,0.04721125
1869.01434448,0.04529046
1870.94315186,0.04724558
1872.87195923,0.04882258
1874.80076660,0.04813968
1876.72957397,0.04841172
1878.65838135,0.04833013
1880.58718872,0.04818168
1882.51599609,0.04849674
1884.44480347,0.04768505
1886.37361084,0.04846763
1888.30241821,0.04742531
1890.23122559,0.04649353
1892.16003296,0.04828279
1894.08884033,0.04757923
1896.01764771,0.04740758
1897.94645508,0.04799899
1899.87526245,0.04779567
1901.80406982,0.04793040
1903.73287720,0.04765502
1905.66168457,0.04793358
1907.59049194,0.04752340
1909.51929932,0.04720186
1911.44810669,0.04744871
1913.37691406,0.04751047
1915.30572144,0.04798166
1917.23452881,0.04615683
1919.16333618,0.04613244
1921.09214355,0.04776026
1923.02095093,0.04633531
1924.94975830,0.04723789
1926.87856567,0.04780632
1928.80737305,0.04719447
1930.73618042,0.04793127
1932.66498779,0.04716332
1934.59379517,0.04757956
1936.52260254,0.04743658
1938.45140991,0.04739748
1940.38021729,0.04763653
1942.30902466,0.04611345
1944.23783203,0.04677877
1946.16663940,0.04722861
1948.09544678,0.04716209
1950.02425415,0.04755332
1951.95306152,0.04740148
1953.88186890,0.04761441
1955.81067627,0.04734119
1957.73948364,0.04739506
1959.66829102,0.04739093
1961.59709839,0.04721584
1963.52590576,0.04737139
1965.45471313,0.04715724
1967.38352051,0.04678078
1969.31232788,0.04718120
1971.24113525,0.04757617
1973.16994263,0.04723260
1975.09875000,0.04749039
1977.02755737,0.04726221
1978.95636475,0.04722460
1980.88517212,0.04734676
1982.81397949,0.04709091
1984.74278687,0.04735535
1986.67159424,0.04691614
1988.60040161,0.04703342
1990.52920898,0.04669905
1992.45801636,0.04613156
1994.38682373,0.04684488
1996.31563110,0.04694294
1998.24443848,0.04694172
2000.17324585,0.04684975
2002.10205322,0.04680453
2004.03086060,0.04683142
2005.95966797,0.04669430
2007.88847534,0.04676727
2009.81728271,0.04652040
2011.74609009,0.04645364
2013.67489746,0.04642463
2015.60370483,0.04608267
2017.53251221,0.04585493
2019.46131958,0.04605231
2021.39012695,0.04607512
2023.31893433,0.04593440
2025.24774170,0.04601790
2027.17654907,0.04594962
2029.10535645,0.04599117
2031.03416382,0.04585655
2032.96297119,0.04576893
2034.89177856,0.04571220
2036.82058594,0.04565544
2038.74939331,0.04568119
2040.67820068,0.04530171
2042.60700806,0.04529482
2044.53581543,0.04540738
2046.46462280,0.04536786
2048.39343018,0.04533041
2050.32223755,0.04519986
2052.25104492,0.04518404
2054.17985229,0.04508935
2056.10865967,0.04506992
2058.03746704,0.04497167
2059.96627441,0.04490486
2061.89508179,0.04477801
2063.82388916,0.04452819
2065.75269653,0.04459644
2067.68150391,0.04470751
2069.61031128,0.04475301
2071.53911865,0.04469581
2073.46792603,0.04456129
2075.39673340,0.04444576
2077.32554077,0.04442715
2079.25434814,0.04433939
2081.18315552,0.04423812
2083.11196289,0.04428659
2085.04077026,0.04410493
2086.96957764,0.04408774
2088.89838501,0.04406229
2090.82719238,0.04389940
2092.75599976,0.04404827
2094.68480713,0.04393265
2096.61361450,0.04377655
2098.54242187,0.04383832
2100.47122925,0.04377668
2102.40003662,0.04374529
2104.32884399,0.04373640
2106.25765137,0.04377601
2108.18645874,0.04371949
2110.11526611,0.04362051
2112.04407349,0.04363943
2113.97288086,0.04350691
2115.90168823,0.04344150
2117.83049561,0.04339772
2119.75930298,0.04331422
2121.68811035,0.04334264
2123.61691772,0.04323891
2125.54572510,0.04318777
2127.47453247,0.04323085
2129.40333984,0.04322425
2131.33214722,0.04313487
2133.26095459,0.04314481
2135.18976196,0.04313991
2137.11856934,0.04300410
2139.04737671,0.04315536
2140.97618408,0.04305200
2142.90499146,0.04289068
2144.83379883,0.04291981
2146.76260620,0.04281149
2148.69141357,0.04294587
2150.62022095,0.04285482
2152.54902832,0.04281154
2154.47783569,0.04290394
2156.40664307,0.04266394
2158.33545044,0.04265574
2160.26425781,0.04271628
2162.19306519,0.04265732
2164.12187256,0.04264111
2166.05067993,0.04264379
2167.97948730,0.04258024
2169.90829468,0.04256631
2171.83710205,0.04266684
2173.76590942,0.04253061
2175.69471680,0.04243042
2177.62352417,0.04250102
2179.55233154,0.04247756
2181.48113892,0.04248674
2183.40994629,0.04250039
2185.33875366,0.04240777
2187.26756104,0.04228123
2189.19636841,0.04227510
2191.12517578,0.04238693
2193.05398315,0.04228824
2194.98279053,0.04219071
2196.91159790,0.04227974
2198.84040527,0.04217619
2200.76921265,0.04210647
2202.69802002,0.04205553
2204.62682739,0.04199317
2206.55563477,0.04210872
2208.48444214,0.04210184
2210.41324951,0.04202084
2212.34205688,0.04196680
2214.27086426,0.04201951
2216.19967163,0.04199427
2218.12847900,0.04188523
2220.05728638,0.04192707
2221.98609375,0.04186579
2223.91490112,0.04187882
2225.84370850,0.04186901
2227.77251587,0.04165167
2229.70132324,0.04162467
2231.63013062,0.04171608
2233.55893799,0.04161553
2235.48774536,0.04151645
2237.41655273,0.04156547
2239.34536011,0.04147985
2241.27416748,0.04134670
2243.20297485,0.04141465
2245.13178223,0.04149138
2247.06058960,0.04139158
2248.98939697,0.04138182
2250.91820435,0.04142173
2252.84701172,0.04132957
2254.77581909,0.04115728
2256.70462646,0.04095230
2258.63343384,0.04106258
2260.56224121,0.04112286
2262.49104858,0.04101444
2264.41985596,0.04099591
2266.34866333,0.04095520
2268.27747070,0.04104108
2270.20627808,0.04090652
2272.13508545,0.04083604
2274.06389282,0.04099839
2275.99270020,0.04092251
2277.92150757,0.04084416
2279.85031494,0.04079362
2281.77912231,0.04072790
2283.70792969,0.04072475
2285.63673706,0.04072732
2287.56554443,0.04067953
2289.49435181,0.04067249
2291.42315918,0.04051095
2293.35196655,0.04028452
2295.28077393,0.04029194
2297.20958130,0.04020407
2299.13838867,0.04017106
2301.06719604,0.04004255
2302.99600342,0.03972079
2304.92481079,0.03958505
2306.85361816,0.03954009
2308.78242554,0.03940447
2310.71123291,0.03893557
2312.64004028,0.03851198
2314.56884766,0.03824085
2316.49765503,0.03780255
2318.42646240,0.03743315
2320.35526978,0.03704507
2322.28407715,0.03654979
2324.21288452,0.03611299
2326.14169189,0.03567079
2328.07049927,0.03530685
2329.99930664,0.03494675
2331.92811401,0.03463068
2333.85692139,0.03460759
2335.78572876,0.03435600
2337.71453613,0.03422465
2339.64334351,0.03441307
2341.57215088,0.03453744
2343.50095825,0.03506025
2345.42976562,0.03575788
2347.35857300,0.03713367
2349.28738037,0.03811401
2351.21618774,0.03698487
2353.14499512,0.03533147
2355.07380249,0.03407918
2357.00260986,0.03315595
2358.93141724,0.03248145
2360.86022461,0.03218096
2362.78903198,0.03212126
2364.71783936,0.03213990
2366.64664673,0.03277954
2368.57545410,0.03337863
2370.50426147,0.03411683
2372.43306885,0.03512983
2374.36187622,0.03597746
2376.29068359,0.03692750
2378.21949097,0.03767471
2380.14829834,0.03830012
2382.07710571,0.03872132
2384.00591309,0.03894115
2385.93472046,0.03911667
2387.86352783,0.03911211
2389.79233521,0.03908937
2391.72114258,0.03918053
2393.64994995,0.03915814
2395.57875732,0.03889795
2397.50756470,0.03900652
2399.43637207,0.03904027
2401.36517944,0.03900693
2403.29398682,0.03912380
2405.22279419,0.03877940
2407.15160156,0.03882866
2409.08040894,0.03886519
2411.00921631,0.03867940
2412.93802368,0.03889708
2414.86683105,0.03874971
2416.79563843,0.03865345
2418.72444580,0.03868201
2420.65325317,0.03855884
2422.58206055,0.03866616
2424.51086792,0.03860934
2426.43967529,0.03845972
2428.36848267,0.03857721
2430.29729004,0.03860554
2432.22609741,0.03833237
2434.15490479,0.03831019
2436.08371216,0.03845983
2438.01251953,0.03844450
2439.94132690,0.03842884
2441.87013428,0.03830655
2443.79894165,0.03835664
2445.72774902,0.03828433
2447.65655640,0.03817871
2449.58536377,0.03829624
2451.51417114,0.03805511
2453.44297852,0.03816814
2455.37178589,0.03813551
2457.30059326,0.03782996
2459.22940063,0.03818142
2461.15820801,0.03809158
2463.08701538,0.03790657
2465.01582275,0.03806733
2466.94463013,0.03802023
2468.87343750,0.03799343
2470.80224487,0.03785374
2472.73105225,0.03780547
2474.65985962,0.03785444
2476.58866699,0.03777357
2478.51747437,0.03772921
2480.44628174,0.03773117
2482.37508911,0.03767396
2484.30389648,0.03768380
2486.23270386,0.03769399
2488.16151123,0.03754219
2490.09031860,0.03753859
2492.01912598,0.03750413
2493.94793335,0.03747928
2495.87674072,0.03754105
2497.80554810,0.03744853
2499.73435547,0.03739725
2501.66316284,0.03733620
2503.59197021,0.03731441
2505.52077759,0.03730462
2507.44958496,0.03730994
2509.37839233,0.03735768
2511.30719971,0.03731822
2513.23600708,0.03728748
2515.16481445,0.03724948
2517.09362183,0.03716741
2519.02242920,0.03712788
2520.95123657,0.03723589
2522.88004395,0.03708288
2524.80885132,0.03693988
2526.73765869,0.03711199
2528.66646606,0.03704100
2530.59527344,0.03697323
2532.52408081,0.03692131
2534.45288818,0.03688762
2536.38169556,0.03696237
2538.31050293,0.03686941
2540.23931030,0.03673159
2542.16811768,0.03672304
2544.09692505,0.03683209
2546.02573242,0.03668549
2547.95453979,0.03655903
2549.88334717,0.03661669
2551.81215454,0.03661303
2553.74096191,0.03669921
2555.66976929,0.03662340
2557.59857666,0.03653901
2559.52738403,0.03653484
2561.45619141,0.03645528
2563.38499878,0.03647821
2565.31380615,0.03641848
2567.24261353,0.03641287
2569.17142090,0.03653809
2571.10022827,0.03636596
2573.02903564,0.03619763
2574.95784302,0.03631536
2576.88665039,0.03634601
2578.81545776,0.03627364
2580.74426514,0.03621437
2582.67307251,0.03614035
2584.60187988,0.03611640
2586.53068726,0.03616806
2588.45949463,0.03606635
2590.38830200,0.03595472
2592.31710937,0.03595334
2594.24591675,0.03589365
2596.17472412,0.03600509
2598.10353149,0.03586947
2600.03233887,0.03573485
2601.96114624,0.03589070
2603.88995361,0.03581993
2605.81876099,0.03576409
2607.74756836,0.03565904
2609.67637573,0.03578939
2611.60518311,0.03577786
2613.53399048,0.03550110
2615.46279785,0.03557923
2617.39160522,0.03552449
2619.32041260,0.03564397
2621.24921997,0.03564534
2623.17802734,0.03546267
2625.10683472,0.03542534
2627.03564209,0.03528519
2628.96444946,0.03541197
2630.89325684,0.03538335
2632.82206421,0.03535385
2634.75087158,0.03533906
2636.67967895,0.03511985
2638.60848633,0.03518000
2640.53729370,0.03521088
2642.46610107,0.03517012
2644.39490845,0.03518525
2646.32371582,0.03513648
2648.25252319,0.03501929
2650.18133057,0.03508890
2652.11013794,0.03515028
2654.03894531,0.03496759
2655.96775269,0.03493943
2657.89656006,0.03493834
2659.82536743,0.03488229
2661.75417480,0.03487521
2663.68298218,0.03486992
2665.61178955,0.03480669
2667.54059692,0.03478373
2669.46940430,0.03475875
2671.39821167,0.03469373
2673.32701904,0.03474149
2675.25582642,0.03470233
2677.18463379,0.03462627
2679.11344116,0.03451627
2681.04224854,0.03458849
2682.97105591,0.03457996
2684.89986328,0.03438029
2686.82867065,0.03451793
2688.75747803,0.03447114
2690.68628540,0.03448115
2692.61509277,0.03443915
2694.54390015,0.03422392
2696.47270752,0.03438932
2698.40151489,0.03432160
2700.33032227,0.03413607
2702.25912964,0.03410125
2704.18793701,0.03420388
2706.11674438,0.03423682
2708.04555176,0.03405192
2709.97435913,0.03408980
2711.90316650,0.03408962
2713.83197388,0.03401436
2715.76078125,0.03400325
2717.68958862,0.03391533
2719.61839600,0.03383248
2721.54720337,0.03387052
2723.47601074,0.03387070
2725.40481812,0.03379690
2727.33362549,0.03376741
2729.26243286,0.03369309
2731.19124023,0.03372250
2733.12004761,0.03361768
2735.04885498,0.03348985
2736.97766235,0.03354114
2738.90646973,0.03354572
2740.83527710,0.03367169
2742.76408447,0.03358365
2744.69289185,0.03344665
2746.62169922,0.03351510
2748.55050659,0.03343523
2750.47931396,0.03340808
2752.40812134,0.03333521
2754.33692871,0.03315619
2756.26573608,0.03318497
2758.19454346,0.03324246
2760.12335083,0.03319719
2762.05215820,0.03315516
2763.98096558,0.03307267
2765.90977295,0.03301175
2767.83858032,0.03299199
2769.76738770,0.03300092
2771.69619507,0.03291844
2773.62500244,0.03279492
2775.55380981,0.03288724
2777.48261719,0.03281751
2779.41142456,0.03270807
2781.34023193,0.03280627
2783.26903931,0.03270562
2785.19784668,0.03260703
2787.12665405,0.03261789
2789.05546143,0.03246718
2790.98426880,0.03244020
2792.91307617,0.03252777
2794.84188354,0.03232511
2796.77069092,0.03230958
2798.69949829,0.03240816
2800.62830566,0.03224955
2802.55711304,0.03229418
2804.48592041,0.03227711
2806.41472778,0.03211545
2808.34353516,0.03209204
2810.27234253,0.03211095
2812.20114990,0.03202359
2814.12995728,0.03185764
2816.05876465,0.03188757
2817.98757202,0.03194788
2819.91637939,0.03185852
2821.84518677,0.03173212
2823.77399414,0.03173712
2825.70280151,0.03165384
2827.63160889,0.03154754
2829.56041626,0.03164549
2831.48922363,0.03163360
2833.41803101,0.03157546
2835.34683838,0.03137179
2837.27564575,0.03140343
2839.20445312,0.03153415
2841.13326050,0.03118018
2843.06206787,0.03115847
2844.99087524,0.03122222
2846.91968262,0.03093671
2848.84848999,0.03080653
2850.77729736,0.03075166
2852.70610474,0.03065052
2854.63491211,0.03064315
2856.56371948,0.03060007
2858.49252686,0.03057247
2860.42133423,0.03069155
2862.35014160,0.03059262
2864.27894897,0.03057166
2866.20775635,0.03053859
2868.13656372,0.03034792
2870.06537109,0.03037993
2871.99417847,0.03035516
2873.92298584,0.03042523
2875.85179321,0.03038267
2877.78060059,0.03030851
2879.70940796,0.03035848
2881.63821533,0.03026776
2883.56702270,0.03032600
2885.49583008,0.03020864
2887.42463745,0.03020179
2889.35344482,0.03027957
2891.28225220,0.03004462
2893.21105957,0.02996639
2895.13986694,0.02996918
2897.06867432,0.02992244
2898.99748169,0.02977676
2900.92628906,0.02977153
2902.85509644,0.02972668
2904.78390381,0.02952589
2906.71271118,0.02966677
2908.64151855,0.02958313
2910.57032593,0.02931707
2912.49913330,0.02931396
2914.42794067,0.02916662
2916.35674805,0.02907763
2918.28555542,0.02912530
2920.21436279,0.02898718
2922.14317017,0.02891785
2924.07197754,0.02881802
2926.00078491,0.02875056
2927.92959229,0.02894730
2929.85839966,0.02889560
2931.78720703,0.02880850
2933.71601440,0.02876111
2935.64482178,0.02874246
2937.57362915,0.02895964
2939.50243652,0.02887433
2941.43124390,0.02883203
2943.36005127,0.02885714
2945.28885864,0.02873453
2947.21766602,0.02880934
2949.14647339,0.02874455
2951.07528076,0.02870167
2953.00408813,0.02868037
2954.93289551,0.02849816
2956.86170288,0.02853626
2958.79051025,0.02853126
2960.71931763,0.02836175
2962.64812500,0.02835947
2964.57693237,0.02829384
2966.50573975,0.02822217
2968.43454712,0.02835471
2970.36335449,0.02831256
2972.29216187,0.02829836
2974.22096924,0.02830990
2976.14977661,0.02829149
2978.07858398,0.02847791
2980.00739136,0.02830319
2981.93619873,0.02823642
2983.86500610,0.02845920
2985.79381348,0.02832244
2987.72262085,0.02825384
2989.65142822,0.02824318
2991.58023560,0.02826954
2993.50904297,0.02830166
2995.43785034,0.02820763
2997.36665771,0.02823948
2999.29546509,0.02812010
3001.22427246,0.02807019
3003.15307983,0.02814868
3005.08188721,0.02802426
3007.01069458,0.02796730
3008.93950195,0.02796268
3010.86830933,0.02790187
3012.79711670,0.02786212
3014.72592407,0.02787911
3016.65473145,0.02777402
3018.58353882,0.02764161
3020.51234619,0.02773324
3022.44115356,0.02770915
3024.36996094,0.02760514
3026.29876831,0.02760442
3028.22757568,0.02754652
3030.15638306,0.02743253
3032.08519043,0.02735285
3034.01399780,0.02737632
3035.94280518,0.02736279
3037.87161255,0.02730803
3039.80041992,0.02726175
3041.72922729,0.02716197
3043.65803467,0.02714857
3045.58684204,0.02717344
3047.51564941,0.02708049
3049.44445679,0.02699811
3051.37326416,0.02697214
3053.30207153,0.02690524
3055.23087891,0.02689011
3057.15968628,0.02686998
3059.08849365,0.02679420
3061.01730103,0.02677992
3062.94610840,0.02668513
3064.87491577,0.02663976
3066.80372314,0.02671556
3068.73253052,0.02661856
3070.66133789,0.02655737
3072.59014526,0.02657179
3074.51895264,0.02646233
3076.44776001,0.02644911
3078.37656738,0.02644346
3080.30537476,0.02638459
3082.23418213,0.02641440
3084.16298950,0.02638522
3086.09179687,0.02629871
3088.02060425,0.02624317
3089.94941162,0.02627322
3091.87821899,0.02624018
3093.80702637,0.02605753
3095.73583374,0.02599335
3097.66464111,0.02607853
3099.59344849,0.02606540
3101.52225586,0.02586727
3103.45106323,0.02592564
3105.37987061,0.02603019
3107.30867798,0.02578403
3109.23748535,0.02578024
3111.16629272,0.02576325
3113.09510010,0.02554698
3115.02390747,0.02557650
3116.95271484,0.02555334
3118.88152222,0.02552608
3120.81032959,0.02545148
3122.73913696,0.02521338
3124.66794434,0.02528793
3126.59675171,0.02535629
3128.52555908,0.02522301
3130.45436645,0.02523008
3132.38317383,0.02513474
3134.31198120,0.02507064
3136.24078857,0.02512015
3138.16959595,0.02500767
3140.09840332,0.02492982
3142.02721069,0.02494599
3143.95601807,0.02492375
3145.88482544,0.02483868
3147.81363281,0.02474774
3149.74244019,0.02463649
3151.67124756,0.02456159
3153.60005493,0.02451099
3155.52886230,0.02447274
3157.45766968,0.02451484
3159.38647705,0.02439524
3161.31528442,0.02430550
3163.24409180,0.02432387
3165.17289917,0.02432252
3167.10170654,0.02421992
3169.03051392,0.02407898
3170.95932129,0.02417187
3172.88812866,0.02403376
3174.81693604,0.02394447
3176.74574341,0.02392616
3178.67455078,0.02374903
3180.60335815,0.02381987
3182.53216553,0.02369867
3184.46097290,0.02367178
3186.38978027,0.02365869
3188.31858765,0.02354050
3190.24739502,0.02359026
3192.17620239,0.02342157
3194.10500977,0.02349276
3196.03381714,0.02350107
3197.96262451,0.02333285
3199.89143188,0.02336887
3201.82023926,0.02329324
3203.74904663,0.02330090
3205.67785400,0.02325844
3207.60666138,0.02320134
3209.53546875,0.02323545
3211.46427612,0.02312984
3213.39308350,0.02306158
3215.32189087,0.02302756
3217.25069824,0.02303020
3219.17950562,0.02303469
3221.10831299,0.02290969
3223.03712036,0.02292499
3224.96592773,0.02293868
3226.89473511,0.02280122
3228.82354248,0.02280717
3230.75234985,0.02277691
3232.68115723,0.02271245
3234.60996460,0.02266861
3236.53877197,0.02266495
3238.46757935,0.02262417
3240.39638672,0.02251428
3242.32519409,0.02260381
3244.25400146,0.02250081
3246.18280884,0.02251300
3248.11161621,0.02257716
3250.04042358,0.02243655
3251.96923096,0.02254402
3253.89803833,0.02244599
3255.82684570,0.02244300
3257.75565308,0.02249456
3259.68446045,0.02237311
3261.61326782,0.02242132
3263.54207520,0.02239297
3265.47088257,0.02242110
3267.39968994,0.02242295
3269.32849731,0.02234423
3271.25730469,0.02223260
3273.18611206,0.02222418
3275.11491943,0.02229648
3277.04372681,0.02223831
3278.97253418,0.02223560
3280.90134155,0.02217658
3282.83014893,0.02212108
3284.75895630,0.02211024
3286.68776367,0.02213458
3288.61657104,0.02214253
3290.54537842,0.02212765
3292.47418579,0.02204125
3294.40299316,0.02197495
3296.33180054,0.02204224
3298.26060791,0.02188276
3300.18941528,0.02197567
3302.11822266,0.02205150
3304.04703003,0.02197066
3305.97583740,0.02199923
3307.90464478,0.02179752
3309.83345215,0.02184220
3311.76225952,0.02179777
3313.69106689,0.02175258
3315.61987427,0.02186606
3317.54868164,0.02183425
3319.47748901,0.02183768
3321.40629639,0.02176636
3323.33510376,0.02178552
3325.26391113,0.02169455
3327.19271851,0.02167356
3329.12152588,0.02165895
3331.05033325,0.02158246
3332.97914062,0.02168261
3334.90794800,0.02164424
3336.83675537,0.02162617
3338.76556274,0.02157672
3340.69437012,0.02155762
3342.62317749,0.02151167
3344.55198486,0.02148424
3346.48079224,0.02149432
3348.40959961,0.02148312
3350.33840698,0.02149244
3352.26721436,0.02128200
3354.19602173,0.02130348
3356.12482910,0.02128861
3358.05363647,0.02124796
3359.98244385,0.02128900
3361.91125122,0.02121067
3363.84005859,0.02118210
3365.76886597,0.02109517
3367.69767334,0.02124618
3369.62648071,0.02112445
3371.55528809,0.02098404
3373.48409546,0.02102616
3375.41290283,0.02097529
3377.34171020,0.02102260
3379.27051758,0.02083986
3381.19932495,0.02090054
3383.12813232,0.02092977
3385.05693970,0.02084452
3386.98574707,0.02080642
3388.91455444,0.02079736
3390.84336182,0.02075795
3392.77216919,0.02048858
3394.70097656,0.02073019
3396.62978394,0.02073459
3398.55859131,0.02053349
3400.48739868,0.02055561
3402.41620605,0.02051238
3404.34501343,0.02063990
3406.27382080,0.02052944
3408.20262817,0.02048592
3410.13143555,0.02047860
3412.06024292,0.02042551
3413.98905029,0.02040032
3415.91785767,0.02034346
3417.84666504,0.02035610
3419.77547241,0.02030940
3421.70427979,0.02017189
3423.63308716,0.02002333
3425.56189453,0.02024763
3427.49070190,0.02022846
3429.41950928,0.02013597
3431.34831665,0.02012558
3433.27712402,0.02005668
3435.20593140,0.02013932
3437.13473877,0.01988820
3439.06354614,0.02003454
3440.99235352,0.01996272
3442.92116089,0.01976129
3444.84996826,0.01995784
3446.77877563,0.01967622
3448.70758301,0.01971764
3450.63639038,0.01994610
3452.56519775,0.01988998
3454.49400513,0.01982057
3456.42281250,0.01991657
3458.35161987,0.01987290
3460.28042725,0.01971562
3462.20923462,0.01970886
3464.13804199,0.01961371
3466.06684937,0.01972344
3467.99565674,0.01962255
3469.92446411,0.01964468
3471.85327148,0.01970065
3473.78207886,0.01954437
3475.71088623,0.01966907
3477.63969360,0.01967415
3479.56850098,0.01961328
3481.49730835,0.01939195
3483.42611572,0.01955621
3485.35492310,0.01966633
3487.28373047,0.01937783
3489.21253784,0.01945500
3491.14134521,0.01951487
3493.07015259,0.01955814
3494.99895996,0.01940707
3496.92776733,0.01933233
3498.85657471,0.01943507
3500.78538208,0.01944044
3502.71418945,0.01912813
3504.64299683,0.01907270
3506.57180420,0.01957942
3508.50061157,0.01926405
3510.42941895,0.01914112
3512.35822632,0.01940512
3514.28703369,0.01936880
3516.21584106,0.01945901
3518.14464844,0.01942417
3520.07345581,0.01947273
3522.00226318,0.01923695
3523.93107056,0.01905635
3525.85987793,0.01908613
3527.78868530,0.01906393
3529.71749268,0.01919274
3531.64630005,0.01931436
3533.57510742,0.01941631
3535.50391479,0.01926955
3537.43272217,0.01926725
3539.36152954,0.01940985
3541.29033691,0.01937608
3543.21914429,0.01919010
3545.14795166,0.01882881
3547.07675903,0.01870999
3549.00556641,0.01917554
3550.93437378,0.01929982
3552.86318115,0.01888520
3554.79198853,0.01913363
3556.72079590,0.01925396
3558.64960327,0.01920634
3560.57841064,0.01911276
3562.50721802,0.01897793
3564.43602539,0.01916563
3566.36483276,0.01796142
3568.29364014,0.01744099
3570.22244751,0.01886585
3572.15125488,0.01925955
3574.08006226,0.01903476
3576.00886963,0.01914124
3577.93767700,0.01905839
3579.86648437,0.01911991
3581.79529175,0.01910740
3583.72409912,0.01927883
3585.65290649,0.01890030
3587.58171387,0.01729159
3589.51052124,0.01780313
3591.43932861,0.01929403
3593.36813599,0.01881949
3595.29694336,0.01848640
3597.22575073,0.01885437
3599.15455811,0.01898214
3601.08336548,0.01867500
3603.01217285,0.01893745
3604.94098022,0.01934347
3606.86978760,0.01864182
3608.79859497,0.01757936
3610.72740234,0.01797330
3612.65620972,0.01832571
3614.58501709,0.01792212
3616.51382446,0.01918643
3618.44263184,0.01776478
3620.37143921,0.01721078
3622.30024658,0.01916010
3624.22905395,0.01872664
3626.15786133,0.01965621
3628.08666870,0.01670552
3630.01547607,0.01524393
3631.94428345,0.01902448
3633.87309082,0.01863587
3635.80189819,0.01891822
3637.73070557,0.01921957
3639.65951294,0.01887582
3641.58832031,0.01911334
3643.51712769,0.01891130
3645.44593506,0.01914495
3647.37474243,0.01727910
3649.30354980,0.01583541
3651.23235718,0.01605975
3653.16116455,0.01884036
3655.08997192,0.01872634
3657.01877930,0.01690149
3658.94758667,0.01924289
3660.87639404,0.01890213
3662.80520142,0.01910921
3664.73400879,0.01912992
3666.66281616,0.01890193
3668.59162354,0.01842409
3670.52043091,0.01519403
3672.44923828,0.01810488
3674.37804565,0.01743066
3676.30685303,0.01451222
3678.23566040,0.01804580
3680.16446777,0.01845537
3682.09327515,0.01842055
3684.02208252,0.01910156
3685.95088989,0.01876469
3687.87969727,0.01694557
3689.80850464,0.01566432
3691.73731201,0.01766935
3693.66611938,0.01819125
3695.59492676,0.01863634
3697.52373413,0.01858820
3699.45254150,0.01846935
3701.38134888,0.01799497
3703.31015625,0.01737944
3705.23896362,0.01896847
3707.16777100,0.01793868
3709.09657837,0.01771908
3711.02538574,0.01678826
3712.95419312,0.01570418
3714.88300049,0.01817072
3716.81180786,0.01799183
3718.74061523,0.01817952
3720.66942261,0.01768108
3722.59822998,0.01730549
3724.52703735,0.01784036
3726.45584473,0.01662551
3728.38465210,0.01804259
3730.31345947,0.01769343
3732.24226685,0.01648814
3734.17107422,0.01602338
3736.09988159,0.01519302
3738.02868896,0.01605639
3739.95749634,0.01732876
3741.88630371,0.01821788
3743.81511108,0.01429149
3745.74391846,0.01350612
3747.67272583,0.01723911
3749.60153320,0.01511896
3751.53034058,0.01401834
3753.45914795,0.01579973
3755.38795532,0.01701587
3757.31676270,0.01759397
3759.24557007,0.01636492
3761.17437744,0.01696610
3763.10318481,0.01799609
3765.03199219,0.01684065
3766.96079956,0.01711760
3768.88960693,0.01704534
3770.81841431,0.01625534
3772.74722168,0.01748088
3774.67602905,0.01760037
3776.60483643,0.01753612
3778.53364380,0.01701125
3780.46245117,0.01638873
3782.39125854,0.01741570
3784.32006592,0.01711817
3786.24887329,0.01710097
3788.17768066,0.01737043
3790.10648804,0.01729338
3792.03529541,0.01720368
3793.96410278,0.01740603
3795.89291016,0.01654859
3797.82171753,0.01638034
3799.75052490,0.01706371
3801.67933228,0.01373866
3803.60813965,0.01591642
3805.53694702,0.01725914
3807.46575439,0.01431159
3809.39456177,0.01699161
3811.32336914,0.01671654
3813.25217651,0.01728758
3815.18098389,0.01577321
3817.10979126,0.01394290
3819.03859863,0.01723562
3820.96740601,0.01417931
3822.89621338,0.01478003
3824.82502075,0.01720655
3826.75382812,0.01570162
3828.68263550,0.01672909
3830.61144287,0.01616530
3832.54025024,0.01564272
3834.46905762,0.01601427
3836.39786499,0.01518158
3838.32667236,0.01386186
3840.25547974,0.01502636
3842.18428711,0.01598986
3844.11309448,0.01533887
3846.04190186,0.01650838
3847.97070923,0.01626730
3849.89951660,0.01626291
3851.82832397,0.01474986
3853.75713135,0.01125242
3855.68593872,0.01304287
3857.61474609,0.01634814
3859.54355347,0.01596951
3861.47236084,0.01579042
3863.40116821,0.01555168
3865.32997559,0.01441598
3867.25878296,0.01601537
3869.18759033,0.01474588
3871.11639770,0.01368294
3873.04520508,0.01605041
3874.97401245,0.01479946
3876.90281982,0.01593362
3878.83162720,0.01624132
3880.76043457,0.01400296
3882.68924194,0.01599427
3884.61804932,0.01507399
3886.54685669,0.01383894
3888.47566406,0.01599724
3890.40447144,0.01518926
3892.33327881,0.01435356
3894.26208618,0.01569011
3896.19089355,0.01590238
3898.11970093,0.01522698
3900.04850830,0.01444924
3901.97731567,0.01425384
3903.90612305,0.01411702
3905.83493042,0.01436687
3907.76373779,0.01566474
3909.69254517,0.01556342
3911.62135254,0.01549741
3913.55015991,0.01578101
3915.47896728,0.01520247
3917.40777466,0.01485156
3919.33658203,0.01470373
3921.26538940,0.01525298
3923.19419678,0.01519071
3925.12300415,0.01493295
3927.05181152,0.01524558
3928.98061890,0.01532655
3930.90942627,0.01511701
3932.83823364,0.01458560
3934.76704102,0.01508373
3936.69584839,0.01529126
3938.62465576,0.01513909
3940.55346313,0.01524118
3942.48227051,0.01468628
3944.41107788,0.01489123
3946.33988525,0.01509808
3948.26869263,0.01474116
3950.19750000,0.01477033
3952.12630737,0.01492546
3954.05511475,0.01498560
3955.98392212,0.01492023
3957.91272949,0.01486547
3959.84153687,0.01483173
3961.77034424,0.01474347
3963.69915161,0.01472109
3965.62795898,0.01478662
3967.55676636,0.01476705
3969.48557373,0.01480361
3971.41438110,0.01476038
3973.34318848,0.01465981
3975.27199585,0.01462538
3977.20080322,0.01470965
3979.12961060,0.01475275
3981.05841797,0.01456230
3982.98722534,0.01463525
3984.91603271,0.01454772
3986.84484009,0.01453646
3988.77364746,0.01460304
3990.70245483,0.01445127
3992.63126221,0.01454238
3994.56006958,0.01441458
3996.48887695,0.01444189
3998.41768433,0.01453435
4000.34649170,0.01443287
4002.27529907,0.01434009
4004.20410645,0.01436525
4006.13291382,0.01440781
4008.06172119,0.01423039
4009.99052856,0.01434774
4011.91933594,0.01422971
4013.84814331,0.01419797
4015.77695068,0.01428294
4017.70575806,0.01411575
4019.63456543,0.01415813
4021.56337280,0.01405813
4023.49218018,0.01413785
4025.42098755,0.01411575
4027.34979492,0.01409266
4029.27860229,0.01407006
4031.20740967,0.01392443
4033.13621704,0.01408414
4035.06502441,0.01399750
4036.99383179,0.01396975
4038.92263916,0.01384154
4040.85144653,0.01378749
4042.78025391,0.01396314
4044.70906128,0.01381927
4046.63786865,0.01375234
4048.56667603,0.01373798
4050.49548340,0.01378491
4052.42429077,0.01375938
4054.35309814,0.01375179
4056.28190552,0.01376684
4058.21071289,0.01366156
4060.13952026,0.01369023
4062.06832764,0.01359106
4063.99713501,0.01356877
4065.92594238,0.01363349
4067.85474976,0.01348715
4069.78355713,0.01347815
4071.71236450,0.01353083
4073.64117187,0.01337746
4075.56997925,0.01341964
4077.49878662,0.01348427
4079.42759399,0.01338287
4081.35640137,0.01334698
4083.28520874,0.01326742
4085.21401611,0.01334854
4087.14282349,0.01332815
4089.07163086,0.01326926
4091.00043823,0.01329758
4092.92924561,0.01319094
4094.85805298,0.01317830
4096.78686035,0.01315810
4098.71566772,0.01316814
4100.64447510,0.01310665
4102.57328247,0.01305059
4104.50208984,0.01304472
4106.43089722,0.01306521
4108.35970459,0.01311700
4110.28851196,0.01300230
4112.21731934,0.01296516
4114.14612671,0.01293082
4116.07493408,0.01297561
4118.00374145,0.01293417
4119.93254883,0.01284922
4121.86135620,0.01284269
4123.79016357,0.01277757
4125.71897095,0.01289845
4127.64777832,0.01278267
4129.57658569,0.01276142
4131.50539307,0.01283736
4133.43420044,0.01269798
4135.36300781,0.01269640
4137.29181519,0.01263616
4139.22062256,0.01263701
4141.14942993,0.01264881
4143.07823730,0.01258270
4145.00704468,0.01257914
4146.93585205,0.01264001
4148.86465942,0.01253426
4150.79346680,0.01243589
4152.72227417,0.01250459
4154.65108154,0.01245786
4156.57988892,0.01251584
4158.50869629,0.01248902
4160.43750366,0.01239993
4162.36631103,0.01232780
4164.29511841,0.01229989
4166.22392578,0.01230247
4168.15273315,0.01221482
4170.08154053,0.01223376
4172.01034790,0.01218440
4173.93915527,0.01230316
4175.86796265,0.01220142
4177.79677002,0.01208938
4179.72557739,0.01225063
4181.65438477,0.01213164
4183.58319214,0.01211321
4185.51199951,0.01203712
4187.44080688,0.01214235
4189.36961426,0.01217761
4191.29842163,0.01202083
4193.22722900,0.01204978
4195.15603638,0.01194177
4197.08484375,0.01205984
4199.01365112,0.01199888
4200.94245850,0.01190242
4202.87126587,0.01195356
4204.80007324,0.01186097
4206.72888062,0.01186987
4208.65768799,0.01178832
4210.58649536,0.01181059
4212.51530273,0.01176454
4214.44411011,0.01168760
4216.37291748,0.01172298
4218.30172485,0.01167099
4220.23053223,0.01171789
4222.15933960,0.01171897
4224.08814697,0.01162627
4226.01695435,0.01166874
4227.94576172,0.01167404
4229.87456909,0.01150430
4231.80337646,0.01149904
4233.73218384,0.01147142
4235.66099121,0.01145345
4237.58979858,0.01149355
4239.51860596,0.01142213
4241.44741333,0.01145517
4243.37622070,0.01141358
4245.30502808,0.01144035
4247.23383545,0.01138707
4249.16264282,0.01132656
4251.09145020,0.01140399
4253.02025757,0.01134240
4254.94906494,0.01129629
4256.87787231,0.01122728
4258.80667969,0.01128073
4260.73548706,0.01119693
4262.66429443,0.01115156
4264.59310181,0.01122186
4266.52190918,0.01109151
4268.45071655,0.01115880
4270.37952393,0.01116797
4272.30833130,0.01115573
4274.23713867,0.01116656
4276.16594604,0.01110407
4278.09475342,0.01107066
4280.02356079,0.01104082
4281.95236816,0.01104716
4283.88117554,0.01094666
4285.80998291,0.01097407
4287.73879028,0.01096836
4289.66759766,0.01089895
4291.59640503,0.01092842
4293.52521240,0.01085931
4295.45401978,0.01079526
4297.38282715,0.01085118
4299.31163452,0.01085238
4301.24044189,0.01070435
4303.16924927,0.01078706
4305.09805664,0.01085658
4307.02686401,0.01078497
4308.95567139,0.01081006
4310.88447876,0.01072860
4312.81328613,0.01063046
4314.74209351,0.01068177
4316.67090088,0.01070000
4318.59970825,0.01057408
4320.52851562,0.01063175
4322.45732300,0.01057490
4324.38613037,0.01049459
4326.31493774,0.01056679
4328.24374512,0.01045956
4330.17255249,0.01052386
4332.10135986,0.01053130
4334.03016724,0.01047230
4335.95897461,0.01040162
4337.88778198,0.01033376
4339.81658936,0.01034021
4341.74539673,0.01030797
4343.67420410,0.01042399
4345.60301147,0.01029391
4347.53181885,0.01027918
4349.46062622,0.01036338
4351.38943359,0.01026149
4353.31824097,0.01023327
4355.24704834,0.01017480
4357.17585571,0.01028636
4359.10466309,0.01025909
4361.03347046,0.01019860
4362.96227783,0.01016497
4364.89108520,0.01011851
4366.81989258,0.01018641
4368.74869995,0.01011180
4370.67750732,0.01009618
4372.60631470,0.01003183
4374.53512207,0.01005587
4376.46392944,0.01004704
4378.39273682,0.00992315
4380.32154419,0.00993306
4382.25035156,0.00991811
4384.17915894,0.00994754
4386.10796631,0.00986552
4388.03677368,0.00986030
4389.96558105,0.00987757
4391.89438843,0.00978288
4393.82319580,0.00978184
4395.75200317,0.00981951
4397.68081055,0.00985621
4399.60961792,0.00974962
4401.53842529,0.00972617
4403.46723267,0.00973634
4405.39604004,0.00970015
4407.32484741,0.00974828
4409.25365478,0.00972621
4411.18246216,0.00962698
4413.11126953,0.00957222
4415.04007690,0.00960714
4416.96888428,0.00960425
4418.89769165,0.00962179
4420.82649902,0.00955015
4422.75530640,0.00951028
4424.68411377,0.00958182
4426.61292114,0.00952067
4428.54172852,0.00950586
4430.47053589,0.00946313
4432.39934326,0.00940607
4434.32815063,0.00940720
4436.25695801,0.00932047
4438.18576538,0.00926993
4440.11457275,0.00936610
4442.04338013,0.00933821
4443.97218750,0.00927533
4445.90099487,0.00934661
4447.82980225,0.00925860
4449.75860962,0.00923811
4451.68741699,0.00922700
4453.61622437,0.00922744
4455.54503174,0.00927332
4457.47383911,0.00915007
4459.40264648,0.00914752
4461.33145386,0.00916068
4463.26026123,0.00919977
4465.18906860,0.00913449
4467.11787598,0.00904143
4469.04668335,0.00912887
4470.97549072,0.00907855
4472.90429810,0.00905667
4474.83310547,0.00903088
4476.76191284,0.00897314
4478.69072021,0.00899161
4480.61952759,0.00901379
4482.54833496,0.00898848
4484.47714233,0.00897454
4486.40594971,0.00894675
4488.33475708,0.00886053
4490.26356445,0.00889341
4492.19237183,0.00881869
4494.12117920,0.00876485
4496.04998657,0.00879468
4497.97879395,0.00876278
4499.90760132,0.00878675
4501.83640869,0.00881095
4503.76521606,0.00880893
4505.69402344,0.00870806
4507.62283081,0.00873047
4509.55163818,0.00871117
4511.48044556,0.00865790
4513.40925293,0.00868264
4515.33806030,0.00857708
4517.26686768,0.00856649
4519.19567505,0.00852828
4521.12448242,0.00854322
4523.05328979,0.00854472
4524.98209717,0.00852451
4526.91090454,0.00859252
4528.83971191,0.00853135
4530.76851929,0.00853293
4532.69732666,0.00848751
4534.62613403,0.00840541
4536.55494141,0.00842648
4538.48374878,0.00848875
4540.41255615,0.00840706
4542.34136353,0.00830877
4544.27017090,0.00833763
4546.19897827,0.00833393
4548.12778564,0.00841318
4550.05659302,0.00829221
4551.98540039,0.00826005
4553.91420776,0.00829209
4555.84301514,0.00820265
4557.77182251,0.00828842
4559.70062988,0.00818375
4561.62943726,0.00820264
4563.55824463,0.00821158
4565.48705200,0.00814307
4567.41585937,0.00821754
4569.34466675,0.00812651
4571.27347412,0.00809476
4573.20228149,0.00803307
4575.13108887,0.00805350
4577.05989624,0.00808025
4578.98870361,0.00803676
4580.91751099,0.00810043
4582.84631836,0.00804368
4584.77512573,0.00802901
4586.70393311,0.00800369
4588.63274048,0.00801966
4590.56154785,0.00805835
4592.49035522,0.00795353
4594.41916260,0.00795317
4596.34796997,0.00793581
4598.27677734,0.00791491
4600.20558472,0.00796294
4602.13439209,0.00788878
4604.06319946,0.00782988
4605.99200684,0.00782000
4607.92081421,0.00776534
4609.84962158,0.00774495
4611.77842895,0.00775932
4613.70723633,0.00780571
4615.63604370,0.00774803
4617.56485107,0.00768510
4619.49365845,0.00772846
4621.42246582,0.00768693
4623.35127319,0.00767193
4625.28008057,0.00764535
4627.20888794,0.00765728
4629.13769531,0.00768797
4631.06650269,0.00760686
4632.99531006,0.00759650
4634.92411743,0.00759492
4636.85292480,0.00759269
4638.78173218,0.00754201
4640.71053955,0.00753138
4642.63934692,0.00760504
4644.56815430,0.00754973
4646.49696167,0.00746570
4648.42576904,0.00744814
4650.35457642,0.00749239
4652.28338379,0.00745422
4654.21219116,0.00735549
4656.14099853,0.00738421
4658.06980591,0.00745291
4659.99861328,0.00742316
4661.92742065,0.00742429
4663.85622803,0.00741645
4665.78503540,0.00731836
4667.71384277,0.00738854
4669.64265015,0.00737403
4671.57145752,0.00726713
4673.50026489,0.00729715
4675.42907227,0.00726709
4677.35787964,0.00724114
4679.28668701,0.00723952
4681.21549438,0.00720794
4683.14430176,0.00720255
4685.07310913,0.00725647
4687.00191650,0.00716649
4688.93072388,0.00709280
4690.85953125,0.00717414
4692.78833862,0.00710069
4694.71714600,0.00708894
4696.64595337,0.00709955
4698.57476074,0.00705057
4700.50356812,0.00708673
4702.43237549,0.00706674
4704.36118286,0.00702913
4706.28999023,0.00701733
4708.21879761,0.00704338
4710.14760498,0.00707613
4712.07641235,0.00696672
4714.00521973,0.00689032
4715.93402710,0.00698591
4717.86283447,0.00695006
4719.79164185,0.00694357
4721.72044922,0.00693837
4723.64925659,0.00688903
4725.57806396,0.00700455
4727.50687134,0.00689222
4729.43567871,0.00683355
4731.36448608,0.00683582
4733.29329346,0.00680118
4735.22210083,0.00684470
4737.15090820,0.00672616
4739.07971558,0.00678061
4741.00852295,0.00677428
4742.93733032,0.00671829
4744.86613770,0.00676149
4746.79494507,0.00672887
4748.72375244,0.00667207
4750.65255981,0.00666437
4752.58136719,0.00675424
4754.51017456,0.00659630
4756.43898193,0.00665743
4758.36778931,0.00670124
4760.29659668,0.00655344
4762.22540405,0.00668287
4764.15421143,0.00657508
4766.08301880,0.00657756
4768.01182617,0.00662211
4769.94063354,0.00657605
4771.86944092,0.00660340
4773.79824829,0.00649040
4775.72705566,0.00649672
4777.65586304,0.00646882
4779.58467041,0.00648108
4781.51347778,0.00648883
4783.44228516,0.00642842
4785.37109253,0.00643627
4787.29989990,0.00643520
4789.22870728,0.00643428
4791.15751465,0.00636880
4793.08632202,0.00639846
4795.01512939,0.00638532
4796.94393677,0.00631183
4798.87274414,0.00629474
4800.80155151,0.00634481
4802.73035889,0.00637351
4804.65916626,0.00629284
4806.58797363,0.00634066
4808.51678101,0.00625256
4810.44558838,0.00619684
4812.37439575,0.00631602
4814.30320312,0.00627089
4816.23201050,0.00624058
4818.16081787,0.00622512
4820.08962524,0.00618071
4822.01843262,0.00617035
4823.94723999,0.00617086
4825.87604736,0.00615638
4827.80485474,0.00616507
4829.73366211,0.00613879
4831.66246948,0.00610238
4833.59127686,0.00614662
4835.52008423,0.00610798
4837.44889160,0.00605785
4839.37769897,0.00601153
4841.30650635,0.00600070
4843.23531372,0.00604126
4845.16412109,0.00602742
4847.09292847,0.00606763
4849.02173584,0.00603385
4850.95054321,0.00596638
4852.87935059,0.00599904
4854.80815796,0.00598867
4856.73696533,0.00598620
4858.66577270,0.00595173
4860.59458008,0.00591210
4862.52338745,0.00593156
4864.45219482,0.00583497
4866.38100220,0.00589096
4868.30980957,0.00593805
4870.23861694,0.00583745
4872.16742432,0.00589230
4874.09623169,0.00574963
4876.02503906,0.00574884
4877.95384644,0.00580017
4879.88265381,0.00567334
4881.81146118,0.00580725
4883.74026855,0.00573892
4885.66907593,0.00578331
4887.59788330,0.00592468
4889.52669067,0.00575716
4891.45549805,0.00573399
4893.38430542,0.00571242
4895.31311279,0.00565776
4897.24192017,0.00562684
4899.17072754,0.00564358
4901.09953491,0.00571199
4903.02834228,0.00568824
4904.95714966,0.00563012
4906.88595703,0.00558826
4908.81476440,0.00564631
4910.74357178,0.00560905
4912.67237915,0.00547338
4914.60118652,0.00553321
4916.52999390,0.00556273
4918.45880127,0.00547050
4920.38760864,0.00556434
4922.31641602,0.00555373
4924.24522339,0.00542193
4926.17403076,0.00546028
4928.10283813,0.00545928
4930.03164551,0.00543740
4931.96045288,0.00540021
4933.88926025,0.00545115
4935.81806763,0.00545306
4937.74687500,0.00540788
4939.67568237,0.00547068
4941.60448975,0.00540169
4943.53329712,0.00541049
4945.46210449,0.00532213
4947.39091187,0.00529507
4949.31971924,0.00537546
4951.24852661,0.00530947
4953.17733398,0.00537077
4955.10614136,0.00526744
4957.03494873,0.00524780
4958.96375610,0.00530841
4960.89256348,0.00527341
4962.82137085,0.00530567
4964.75017822,0.00523274
4966.67898560,0.00526573
4968.60779297,0.00522852
4970.53660034,0.00519841
4972.46540771,0.00524939
4974.39421509,0.00517050
4976.32302246,0.00521730
4978.25182983,0.00527047
4980.18063721,0.00513493
4982.10944458,0.00506588
4984.03825195,0.00517107
4985.96705933,0.00511576
4987.89586670,0.00507368
4989.82467407,0.00512910
4991.75348145,0.00506916
4993.68228882,0.00507682
4995.61109619,0.00504401
4997.53990356,0.00500519
4999.46871094,0.00505908
5001.39751831,0.00503571
5003.32632568,0.00502367
5005.25513306,0.00507217
5007.18394043,0.00495357
5009.11274780,0.00492173
5011.04155518,0.00500859
5012.97036255,0.00491764
5014.89916992,0.00497233
5016.82797729,0.00502215
5018.75678467,0.00497554
5020.68559204,0.00492416
5022.61439941,0.00489204
5024.54320679,0.00492731
5026.47201416,0.00480178
5028.40082153,0.00486619
5030.32962891,0.00491970
5032.25843628,0.00478531
5034.18724365,0.00479170
5036.11605103,0.00479122
5038.04485840,0.00479828
5039.97366577,0.00479020
5041.90247314,0.00480010
5043.83128052,0.00477880
5045.76008789,0.00471251
5047.68889526,0.00471547
5049.61770264,0.00476314
5051.54651001,0.00474290
5053.47531738,0.00466242
5055.40412476,0.00474695
5057.33293213,0.00478189
5059.26173950,0.00472681
5061.19054687,0.00467798
5063.11935425,0.00464026
5065.04816162,0.00465721
5066.97696899,0.00464721
5068.90577637,0.00460195
5070.83458374,0.00450022
5072.76339111,0.00456128
5074.69219849,0.00461560
5076.62100586,0.00457801
5078.54981323,0.00455057
5080.47862061,0.00448544
5082.40742798,0.00456732
5084.33623535,0.00455605
5086.26504272,0.00453402
5088.19385010,0.00455554
5090.12265747,0.00449841
5092.05146484,0.00452788
5093.98027222,0.00457571
5095.90907959,0.00459581
5097.83788696,0.00448911
5099.76669434,0.00446461
5101.69550171,0.00450393
5103.62430908,0.00445087
5105.55311645,0.00448607
5107.48192383,0.00447017
5109.41073120,0.00444735
5111.33953857,0.00448804
5113.26834595,0.00443524
5115.19715332,0.00434200
5117.12596069,0.00435647
5119.05476807,0.00440316
5120.98357544,0.00441339
5122.91238281,0.00440809
5124.84119019,0.00433140
5126.76999756,0.00431547
5128.69880493,0.00432326
5130.62761230,0.00425588
5132.55641968,0.00431683
5134.48522705,0.00436979
5136.41403442,0.00424999
5138.34284180,0.00423459
5140.27164917,0.00425538
5142.20045654,0.00426484
5144.12926392,0.00427820
5146.05807129,0.00419821
5147.98687866,0.00425102
5149.91568603,0.00425478
5151.84449341,0.00424359
5153.77330078,0.00421315
5155.70210815,0.00405242
5157.63091553,0.00411886
5159.55972290,0.00418366
5161.48853027,0.00418227
5163.41733765,0.00415193
5165.34614502,0.00412264
5167.27495239,0.00414038
5169.20375977,0.00403786
5171.13256714,0.00402224
5173.06137451,0.00408594
5174.99018188,0.00418467
5176.91898926,0.00413144
5178.84779663,0.00406810
5180.77660400,0.00414673
5182.70541138,0.00404088
5184.63421875,0.00400156
5186.56302612,0.00402772
5188.49183350,0.00406764
5190.42064087,0.00406819
5192.34944824,0.00394846
5194.27825562,0.00397278
5196.20706299,0.00398851
5198.13587036,0.00395713
5200.06467773,0.00399852
5201.99348511,0.00401424
5203.92229248,0.00391223
5205.85109985,0.00382892
5207.77990723,0.00389423
5209.70871460,0.00392335
5211.63752197,0.00387590
5213.56632935,0.00391625
5215.49513672,0.00392440
5217.42394409,0.00385444
5219.35275146,0.00382752
5221.28155884,0.00381946
5223.21036621,0.00395297
5225.13917358,0.00388143
5227.06798096,0.00375562
5228.99678833,0.00386719
5230.92559570,0.00379040
5232.85440308,0.00385181
5234.78321045,0.00387055
5236.71201782,0.00377995
5238.64082520,0.00382333
5240.56963257,0.00379846
5242.49843994,0.00377352
5244.42724731,0.00364694
5246.35605469,0.00373162
5248.28486206,0.00373951
5250.21366943,0.00366585
5252.14247681,0.00378712
5254.07128418,0.00368643
5256.00009155,0.00369637
5257.92889893,0.00368110
5259.85770630,0.00366715
5261.78651367,0.00370954
5263.71532104,0.00360771
5265.64412842,0.00364429
5267.57293579,0.00366091
5269.50174316,0.00364094
5271.43055054,0.00359091
5273.35935791,0.00364928
5275.28816528,0.00369291
5277.21697266,0.00361264
5279.14578003,0.00360239
5281.07458740,0.00357370
5283.00339478,0.00371100
5284.93220215,0.00368830
5286.86100952,0.00358063
5288.78981689,0.00361224
5290.71862427,0.00355427
5292.64743164,0.00363474
5294.57623901,0.00360486
5296.50504639,0.00350209
5298.43385376,0.00355206
5300.36266113,0.00355144
5302.29146851,0.00352830
5304.22027588,0.00356114
5306.14908325,0.00358343
5308.07789062,0.00347997
5310.00669800,0.00350444
5311.93550537,0.00353998
5313.86431274,0.00337877
5315.79312012,0.00341432
5317.72192749,0.00348975
5319.65073486,0.00344108
5321.57954224,0.00341942
5323.50834961,0.00338724
5325.43715698,0.00347506
5327.36596436,0.00347114
5329.29477173,0.00339478
5331.22357910,0.00342098
5333.15238647,0.00333913
5335.08119385,0.00340047
5337.01000122,0.00337764
5338.93880859,0.00322800
5340.86761597,0.00333980
5342.79642334,0.00328387
5344.72523071,0.00319984
5346.65403809,0.00330489
5348.58284546,0.00332262
5350.51165283,0.00330181
5352.44046020,0.00327098
5354.36926758,0.00324511
5356.29807495,0.00325563
5358.22688232,0.00326488
5360.15568970,0.00327555
5362.08449707,0.00330835
5364.01330444,0.00326171
5365.94211182,0.00326324
5367.87091919,0.00329580
5369.79972656,0.00321799
5371.72853394,0.00326380
5373.65734131,0.00321229
5375.58614868,0.00310081
5377.51495605,0.00315202
5379.44376343,0.00310831
5381.37257080,0.00315954
5383.30137817,0.00321755
5385.23018555,0.00311668
5387.15899292,0.00319166
5389.08780029,0.00321332
5391.01660767,0.00311177
5392.94541504,0.00312442
5394.87422241,0.00308488
5396.80302978,0.00311228
5398.73183716,0.00317231
5400.66064453,0.00315079
5402.58945190,0.00315409
5404.51825928,0.00311209
5406.44706665,0.00310967
5408.37587402,0.00308371
5410.30468140,0.00307191
5412.23348877,0.00301843
5414.16229614,0.00290272
5416.09110352,0.00300404
5418.01991089,0.00306027
5419.94871826,0.00309445
5421.87752563,0.00311646
5423.80633301,0.00297245
5425.73514038,0.00298716
5427.66394775,0.00301731
5429.59275513,0.00290035
5431.52156250,0.00295407
5433.45036987,0.00301838
5435.37917725,0.00288763
5437.30798462,0.00293351
5439.23679199,0.00298943
5441.16559936,0.00293175
5443.09440674,0.00294513
5445.02321411,0.00291219
5446.95202148,0.00297397
5448.88082886,0.00297556
5450.80963623,0.00298123
5452.73844360,0.00304416
5454.66725098,0.00289779
5456.59605835,0.00284458
5458.52486572,0.00289960
5460.45367310,0.00287678
5462.38248047,0.00283731
5464.31128784,0.00283152
5466.24009521,0.00283215
5468.16890259,0.00285649
5470.09770996,0.00281827
5472.02651733,0.00280531
5473.95532471,0.00288500
5475.88413208,0.00278426
5477.81293945,0.00283608
5479.74174683,0.00288390
5481.67055420,0.00280622
5483.59936157,0.00290187
5485.52816895,0.00286551
5487.45697632,0.00281123
5489.38578369,0.00276439
5491.31459106,0.00276430
5493.24339844,0.00273054
5495.17220581,0.00273512
5497.10101318,0.00284785
5499.02982056,0.00267725
5500.95862793,0.00272860
5502.88743530,0.00278885
5504.81624268,0.00272375
5506.74505005,0.00278660
5508.67385742,0.00266681
5510.60266479,0.00271750
5512.53147217,0.00273069
5514.46027954,0.00265850
5516.38908691,0.00266680
5518.31789429,0.00264265
5520.24670166,0.00268214
5522.17550903,0.00265157
5524.10431641,0.00270017
5526.03312378,0.00270529
5527.96193115,0.00270730
5529.89073853,0.00272878
5531.81954590,0.00261336
5533.74835327,0.00259097
5535.67716064,0.00255500
5537.60596802,0.00261850
5539.53477539,0.00271551
5541.46358276,0.00269667
5543.39239014,0.00266172
5545.32119751,0.00254372
5547.25000488,0.00255939
5549.17881226,0.00262436
5551.10761963,0.00258490
5553.03642700,0.00261498
5554.96523437,0.00267563
5556.89404175,0.00260202
5558.82284912,0.00250820
5560.75165649,0.00258495
5562.68046387,0.00261970
5564.60927124,0.00256254
5566.53807861,0.00254985
5568.46688599,0.00254085
5570.39569336,0.00255837
5572.32450073,0.00252530
5574.25330811,0.00251293
5576.18211548,0.00257278
5578.11092285,0.00249812
5580.03973022,0.00250162
5581.96853760,0.00256544
5583.89734497,0.00251911
5585.82615234,0.00252460
5587.75495972,0.00250578
5589.68376709,0.00254064
5591.61257446,0.00248204
5593.54138184,0.00241996
5595.47018921,0.00250180
5597.39899658,0.00237911
5599.32780395,0.00242788
5601.25661133,0.00250190
5603.18541870,0.00241627
5605.11422607,0.00244588
5607.04303345,0.00239907
5608.97184082,0.00245187
5610.90064819,0.00246444
5612.82945557,0.00242836
5614.75826294,0.00239207
5616.68707031,0.00231520
5618.61587769,0.00245981
5620.54468506,0.00243472
5622.47349243,0.00233956
5624.40229980,0.00239620
5626.33110718,0.00238831
5628.25991455,0.00239060
5630.18872192,0.00238639
5632.11752930,0.00237786
5634.04633667,0.00236561
5635.97514404,0.00235951
5637.90395142,0.00234118
5639.83275879,0.00234259
5641.76156616,0.00233306
5643.69037353,0.00231999
5645.61918091,0.00233158
5647.54798828,0.00223383
5649.47679565,0.00225766
5651.40560303,0.00232495
5653.33441040,0.00229091
5655.26321777,0.00228715
5657.19202515,0.00225143
5659.12083252,0.00225552
5661.04963989,0.00229822
5662.97844727,0.00229714
5664.90725464,0.00225865
5666.83606201,0.00225619
5668.76486938,0.00221275
5670.69367676,0.00220741
5672.62248413,0.00224397
5674.55129150,0.00218217
5676.48009888,0.00224106
5678.40890625,0.00224507
5680.33771362,0.00223794
5682.26652100,0.00226866
5684.19532837,0.00219953
5686.12413574,0.00219345
5688.05294311,0.00217458
5689.98175049,0.00224650
5691.91055786,0.00220700
5693.83936523,0.00215404
5695.76817261,0.00220536
5697.69697998,0.00213515
5699.62578735,0.00219497
5701.55459473,0.00214780
5703.48340210,0.00214135
5705.41220947,0.00218364
5707.34101685,0.00211909
5709.26982422,0.00216437
5711.19863159,0.00205133
5713.12743896,0.00208049
5715.05624634,0.00208849
5716.98505371,0.00198839
5718.91386108,0.00207563
5720.84266846,0.00205847
5722.77147583,0.00215202
5724.70028320,0.00215647
5726.62909058,0.00207524
5728.55789795,0.00210339
5730.48670532,0.00202330
5732.41551270,0.00205892
5734.34432007,0.00208279
5736.27312744,0.00209324
5738.20193481,0.00204976
5740.13074219,0.00197061
5742.05954956,0.00206661
5743.98835693,0.00200928
5745.91716431,0.00203352
5747.84597168,0.00206842
5749.77477905,0.00195028
5751.70358643,0.00201815
5753.63239380,0.00200305
5755.56120117,0.00200772
5757.49000854,0.00198745
5759.41881592,0.00188836
5761.34762329,0.00198119
5763.27643066,0.00194697
5765.20523804,0.00194307
5767.13404541,0.00199935
5769.06285278,0.00195090
5770.99166016,0.00195362
5772.92046753,0.00195175
5774.84927490,0.00196827
5776.77808228,0.00190223
5778.70688965,0.00191318
5780.63569702,0.00192860
5782.56450439,0.00185238
5784.49331177,0.00193062
5786.42211914,0.00191023
5788.35092651,0.00192400
5790.27973389,0.00192499
5792.20854126,0.00186706
5794.13734863,0.00195609
5796.06615601,0.00190264
5797.99496338,0.00193095
5799.92377075,0.00191695
5801.85257812,0.00181575
5803.78138550,0.00193180
5805.71019287,0.00188483
5807.63900024,0.00186828
5809.56780762,0.00191788
5811.49661499,0.00184303
5813.42542236,0.00186343
5815.35422974,0.00185449
5817.28303711,0.00186295
5819.21184448,0.00182918
5821.14065186,0.00178718
5823.06945923,0.00187736
5824.99826660,0.00183454
5826.92707397,0.00176274
5828.85588135,0.00177182
5830.78468872,0.00180831
5832.71349609,0.00180170
5834.64230347,0.00179284
5836.57111084,0.00187765
5838.49991821,0.00180846
5840.42872559,0.00176625
5842.35753296,0.00179317
5844.28634033,0.00173326
5846.21514770,0.00179144
5848.14395508,0.00179692
5850.07276245,0.00171774
5852.00156982,0.00172136
5853.93037720,0.00176254
5855.85918457,0.00176831
5857.78799194,0.00175404
5859.71679932,0.00175312
5861.64560669,0.00168989
5863.57441406,0.00164197
5865.50322144,0.00168068
5867.43202881,0.00173745
5869.36083618,0.00171458
5871.28964355,0.00171491
5873.21845093,0.00176743
5875.14725830,0.00169111
5877.07606567,0.00166718
5879.00487305,0.00174111
5880.93368042,0.00168102
5882.86248779,0.00162110
5884.79129517,0.00166647
5886.72010254,0.00160205
5888.64890991,0.00162730
5890.57771728,0.00168884
5892.50652466,0.00153200
5894.43533203,0.00160275
5896.36413940,0.00170746
5898.29294678,0.00164261
5900.22175415,0.00164691
5902.15056152,0.00162035
5904.07936890,0.00159232
5906.00817627,0.00156826
5907.93698364,0.00164201
5909.86579102,0.00167794
5911.79459839,0.00159315
5913.72340576,0.00152784
5915.65221313,0.00153844
5917.58102051,0.00161207
5919.50982788,0.00156870
5921.43863525,0.00161665
5923.36744263,0.00161022
5925.29625000,0.00152469
5927.22505737,0.00157991
5929.15386475,0.00157002
5931.08267212,0.00156574
5933.01147949,0.00153546
5934.94028686,0.00158184
5936.86909424,0.00157789
5938.79790161,0.00151733
5940.72670898,0.00163541
5942.65551636,0.00159075
5944.58432373,0.00150832
5946.51313110,0.00153432
5948.44193848,0.00155716
5950.37074585,0.00153845
5952.29955322,0.00158497
5954.22836060,0.00162897
5956.15716797,0.00147004
5958.08597534,0.00149872
5960.01478271,0.00153428
5961.94359009,0.00142674
5963.87239746,0.00148426
5965.80120483,0.00151804
5967.73001221,0.00144711
5969.65881958,0.00140851
5971.58762695,0.00144040
5973.51643433,0.00142060
5975.44524170,0.00146349
5977.37404907,0.00154788
5979.30285645,0.00148832
5981.23166382,0.00143514
5983.16047119,0.00145469
5985.08927856,0.00150525
5987.01808594,0.00142611
5988.94689331,0.00136203
5990.87570068,0.00145093
5992.80450806,0.00145210
5994.73331543,0.00142942
5996.66212280,0.00141093
5998.59093018,0.00137292
6000.51973755,0.00138580
