399.26312622,-0.00011221
401.19193359,0.00024763
403.12074097,0.00018572
405.04954834,0.00014145
406.97835571,0.00028889
408.90716309,0.00000314
410.83597046,0.00011046
412.76477783,0.00008083
414.69358521,0.00006048
416.62239258,-0.00015815
418.55119995,0.00004629
420.48000732,0.00038423
422.40881470,-0.00016748
424.33762207,-0.00012808
426.26642944,-0.00001978
428.19523682,-0.00006539
430.12404419,0.00014472
432.05285156,0.00019707
433.98165894,0.00023375
435.91046631,-0.00003655
437.83927368,0.00016887
439.76808105,0.00025822
441.69688843,0.00011719
443.62569580,0.00031747
445.55450317,0.00006405
447.48331055,0.00021705
449.41211792,0.00028100
451.34092529,0.00013803
453.26973267,0.00024894
455.19854004,0.00015039
457.12734741,0.00009006
459.05615479,-0.00015706
460.98496216,-0.00001855
462.91376953,0.00015099
464.84257690,0.00017576
466.77138428,0.00015849
468.70019165,-0.00002373
470.62899902,0.00045680
472.55780640,0.00040685
474.48661377,0.00014571
476.41542114,0.00034247
478.34422852,0.00011163
480.27303589,0.00005999
482.20184326,0.00018473
484.13065063,0.00017173
486.05945801,-0.00000494
487.98826538,0.00012934
489.91707275,0.00018929
491.84588013,-0.00009695
493.77468750,0.00016671
495.70349487,0.00004900
497.63230225,-0.00006903
499.56110962,0.00019818
501.48991699,0.00016598
503.41872437,0.00035842
505.34753174,0.00020466
507.27633911,0.00008410
509.20514648,0.00023565
511.13395386,0.00015408
513.06276123,0.00013825
514.99156860,0.00004254
516.92037598,0.00020258
518.84918335,0.00027295
520.77799072,-0.00004128
522.70679810,-0.00003944
524.63560547,0.00010363
526.56441284,0.00011790
528.49322021,0.00008662
530.42202759,-0.00008732
532.35083496,0.00009377
534.27964233,0.00035397
536.20844971,0.00004162
538.13725708,0.00005204
540.06606445,0.00020988
541.99487183,0.00015467
543.92367920,0.00016037
545.85248657,0.00013375
547.78129395,0.00010494
549.71010132,0.00005983
551.63890869,0.00028352
553.56771606,0.00027054
555.49652344,-0.00000545
557.42533081,0.00001732
559.35413818,0.00010779
561.28294556,0.00011689
563.21175293,0.00013192
565.14056030,0.00009012
567.06936768,-0.00008007
568.99817505,0.00008549
570.92698242,0.00025747
572.85578979,0.00013412
574.78459717,0.00013563
576.71340454,0.00032188
578.64221191,0.00034414
580.57101929,0.00006799
582.49982666,0.00008417
584.42863403,0.00012615
586.35744141,0.00022263
588.28624878,0.00009959
590.21505615,-0.00006768
592.14386353,0.00041488
594.07267090,0.00007618
596.00147827,0.00001271
597.93028564,0.00044053
599.85909302,0.00002011
601.78790039,0.00010648
603.71670776,0.00008267
605.64551514,-0.00003068
607.57432251,0.00014447
609.50312988,-0.00003849
611.43193726,-0.00013158
613.36074463,-0.00017595
615.28955200,-0.00014136
617.21835938,0.00009632
619.14716675,0.00031596
621.07597412,0.00015075
623.00478149,0.00029468
624.93358887,0.00031941
626.86239624,0.00003538
628.79120361,0.00018039
630.72001099,0.00002982
632.64881836,0.00015648
634.57762573,0.00019552
636.50643311,0.00000571
638.43524048,0.00033746
640.36404785,0.00027538
642.29285522,0.00001325
644.22166260,0.00006814
646.15046997,0.00018261
648.07927734,0.00004833
650.00808472,-0.00008938
651.93689209,0.00002372
653.86569946,0.00006875
655.79450684,0.00008757
657.72331421,0.00017134
659.65212158,0.00003033
661.58092896,0.00007860
663.50973633,0.00016278
665.43854370,0.00017335
667.36735107,0.00034011
669.29615845,0.00019981
671.22496582,0.00013740
673.15377319,0.00007302
675.08258057,0.00002972
677.01138794,0.00019895
678.94019531,-0.00000603
680.86900269,0.00002494
682.79781006,0.00016968
684.72661743,0.00000667
686.65542480,0.00007713
688.58423218,0.00026985
690.51303955,0.00011922
692.44184692,-0.00001469
694.37065430,-0.00007848
696.29946167,0.00023341
698.22826904,0.00011427
700.15707642,-0.00001607
702.08588379,0.00012128
704.01469116,0.00009854
705.94349854,0.00024396
707.87230591,0.00005215
709.80111328,0.00026599
711.72992065,0.00016988
713.65872803,-0.00013498
715.58753540,0.00009103
717.51634277,0.00013774
719.44515015,0.00012096
721.37395752,0.00018546
723.30276489,0.00031072
725.23157227,0.00003304
727.16037964,0.00001993
729.08918701,0.00020086
731.01799438,0.00008856
732.94680176,0.00015152
734.87560913,0.00019247
736.80441650,0.00012525
738.73322388,0.00014052
740.66203125,0.00023493
742.59083862,0.00009178
744.51964600,0.00012796
746.44845337,0.00033556
748.37726074,0.00009966
750.30606812,-0.00016818
752.23487549,-0.00009232
754.16368286,0.00009461
756.09249023,0.00009345
758.02129761,0.00024910
759.95010498,0.00013086
761.87891235,-0.00001499
763.80771973,0.00031262
765.73652710,0.00005232
767.66533447,0.00000554
769.59414185,0.00022537
771.52294922,0.00010968
773.45175659,0.00021477
775.38056396,0.00022783
777.30937134,0.00018391
779.23817871,0.00002271
781.16698608,0.00013179
783.09579346,0.00020555
785.02460083,0.00006793
786.95340820,0.00022870
788.88221558,0.00010205
790.81102295,0.00013591
792.73983032,0.00032561
794.66863770,0.00031499
796.59744507,0.00018496
798.52625244,0.00006483
800.45505981,0.00005632
802.38386719,-0.00006575
804.31267456,0.00005298
806.24148193,0.00014663
808.17028931,0.00018859
810.09909668,0.00025546
812.02790405,0.00006644
813.95671143,0.00012706
815.88551880,0.00015255
817.81432617,0.00020883
819.74313354,0.00022051
821.67194092,0.00008113
823.60074829,0.00025606
825.52955566,0.00002136
827.45836304,0.00004520
829.38717041,0.00024330
831.31597778,0.00001028
833.24478516,0.00009557
835.17359253,-0.00000593
837.10239990,0.00001852
839.03120728,0.00025066
840.96001465,0.00020284
842.88882202,0.00020308
844.81762939,0.00011030
846.74643677,0.00010539
848.67524414,0.00026438
850.60405151,0.00019367
852.53285889,0.00011134
854.46166626,0.00016483
856.39047363,0.00012922
858.31928101,0.00012249
860.24808838,0.00008559
862.17689575,0.00005433
864.10570313,0.00025233
866.03451050,0.00032675
867.96331787,0.00020912
869.89212524,0.00016273
871.82093262,0.00010135
873.74973999,0.00017573
875.67854736,0.00045021
877.60735474,0.00028229
879.53616211,0.00009310
881.46496948,0.00032271
883.39377686,0.00014054
885.32258423,0.00012176
887.25139160,0.00028732
889.18019897,0.00005946
891.10900635,0.00023807
893.03781372,0.00024546
894.96662109,0.00000127
896.89542847,0.00011487
898.82423584,0.00006841
900.75304321,0.00009556
902.68185059,0.00026792
904.61065796,0.00034476
906.53946533,0.00025603
908.46827271,0.00025283
910.39708008,0.00044528
912.32588745,0.00039377
914.25469482,0.00037033
916.18350220,0.00027364
918.11230957,0.00016018
920.04111694,0.00022934
921.96992432,0.00024819
923.89873169,0.00031258
925.82753906,0.00020824
927.75634644,0.00028189
929.68515381,0.00029652
931.61396118,0.00013381
933.54276855,0.00041751
935.47157593,0.00033852
937.40038330,0.00019091
939.32919067,0.00032814
941.25799805,0.00027785
943.18680542,0.00035878
945.11561279,0.00020349
947.04442017,0.00010511
948.97322754,0.00029694
950.90203491,0.00040681
952.83084229,0.00034767
954.75964966,0.00019136
956.68845703,0.00042678
958.61726440,0.00029182
960.54607178,0.00005354
962.47487915,0.00036734
964.40368652,0.00024527
966.33249390,0.00012224
968.26130127,0.00021858
970.19010864,0.00019823
972.11891602,0.00035917
974.04772339,0.00032451
975.97653076,0.00020544
977.90533813,0.00031755
979.83414551,0.00034457
981.76295288,0.00020304
983.69176025,0.00026406
985.62056763,0.00043892
987.54937500,0.00038399
989.47818237,0.00038767
991.40698975,0.00031832
993.33579712,0.00017862
995.26460449,0.00031490
997.19341187,0.00036850
999.12221924,0.00029517
1001.05102661,0.00041986
1002.97983398,0.00039396
1004.90864136,0.00025878
1006.83744873,0.00029408
1008.76625610,0.00028928
1010.69506348,0.00041801
1012.62387085,0.00042801
1014.55267822,0.00034618
1016.48148560,0.00041507
1018.41029297,0.00045138
1020.33910034,0.00048316
1022.26790771,0.00046880
1024.19671509,0.00058357
1026.12552246,0.00052936
1028.05432983,0.00049144
1029.98313721,0.00052614
1031.91194458,0.00039132
1033.84075195,0.00054318
1035.76955933,0.00061565
1037.69836670,0.00069964
1039.62717407,0.00070494
1041.55598145,0.00048080
1043.48478882,0.00051258
1045.41359619,0.00050080
1047.34240356,0.00052764
1049.27121094,0.00058666
1051.20001831,0.00053306
1053.12882568,0.00057517
1055.05763306,0.00056429
1056.98644043,0.00044286
1058.91524780,0.00048321
1060.84405518,0.00058015
1062.77286255,0.00050485
1064.70166992,0.00057839
1066.63047729,0.00052477
1068.55928467,0.00032969
1070.48809204,0.00048306
1072.41689941,0.00047831
1074.34570679,0.00040648
1076.27451416,0.00052595
1078.20332153,0.00046155
1080.13212891,0.00039232
1082.06093628,0.00039512
1083.98974365,0.00044517
1085.91855103,0.00032814
1087.84735840,0.00032089
1089.77616577,0.00050925
1091.70497314,0.00037331
1093.63378052,0.00048155
1095.56258789,0.00053594
1097.49139526,0.00053873
1099.42020264,0.00053607
1101.34901001,0.00031156
1103.27781738,0.00039417
1105.20662476,0.00017451
1107.13543213,0.00036822
1109.06423950,0.00059790
1110.99304687,0.00031840
1112.92185425,0.00054687
1114.85066162,0.00052294
1116.77946899,0.00045870
1118.70827637,0.00049369
1120.63708374,0.00041723
1122.56589111,0.00039458
1124.49469849,0.00035774
1126.42350586,0.00034218
1128.35231323,0.00038286
1130.28112061,0.00061100
1132.20992798,0.00039025
1134.13873535,0.00041359
1136.06754272,0.00058081
1137.99635010,0.00057952
1139.92515747,0.00075196
1141.85396484,0.00038351
1143.78277222,0.00046474
1145.71157959,0.00051282
1147.64038696,0.00027493
1149.56919434,0.00048089
1151.49800171,0.00052737
1153.42680908,0.00062357
1155.35561646,0.00053051
1157.28442383,0.00057487
1159.21323120,0.00061061
1161.14203857,0.00062244
1163.07084595,0.00064993
1164.99965332,0.00037056
1166.92846069,0.00071688
1168.85726807,0.00075463
1170.78607544,0.00057868
1172.71488281,0.00069188
1174.64369019,0.00054055
1176.57249756,0.00064181
1178.50130493,0.00072785
1180.43011230,0.00079090
1182.35891968,0.00080741
1184.28772705,0.00075784
1186.21653442,0.00070515
1188.14534180,0.00087669
1190.07414917,0.00109215
1192.00295654,0.00078922
1193.93176392,0.00085222
1195.86057129,0.00094329
1197.78937866,0.00080911
1199.71818604,0.00090997
1201.64699341,0.00112570
1203.57580078,0.00112176
1205.50460815,0.00093247
1207.43341553,0.00139862
1209.36222290,0.00138395
1211.29103027,0.00110129
1213.21983765,0.00129118
1215.14864502,0.00115220
1217.07745239,0.00134998
1219.00625977,0.00131730
1220.93506714,0.00113705
1222.86387451,0.00136412
1224.79268188,0.00126901
1226.72148926,0.00123563
1228.65029663,0.00131341
1230.57910400,0.00139951
1232.50791138,0.00145276
1234.43671875,0.00136225
1236.36552612,0.00128956
1238.29433350,0.00129052
1240.22314087,0.00140854
1242.15194824,0.00126461
1244.08075562,0.00116712
1246.00956299,0.00127902
1247.93837036,0.00129942
1249.86717773,0.00142570
1251.79598511,0.00130263
1253.72479248,0.00124517
1255.65359985,0.00132247
1257.58240723,0.00122792
1259.51121460,0.00143250
1261.44002197,0.00130280
1263.36882935,0.00117440
1265.29763672,0.00140336
1267.22644409,0.00125782
1269.15525146,0.00116791
1271.08405884,0.00116303
1273.01286621,0.00129330
1274.94167358,0.00130255
1276.87048096,0.00109497
1278.79928833,0.00119618
1280.72809570,0.00114430
1282.65690308,0.00117672
1284.58571045,0.00129366
1286.51451782,0.00112265
1288.44332520,0.00102521
1290.37213257,0.00100271
1292.30093994,0.00105025
1294.22974731,0.00112948
1296.15855469,0.00117653
1298.08736206,0.00120420
1300.01616943,0.00116585
1301.94497681,0.00119193
1303.87378418,0.00120649
1305.80259155,0.00108875
1307.73139893,0.00112151
1309.66020630,0.00115719
1311.58901367,0.00116149
1313.51782104,0.00128603
1315.44662842,0.00126878
1317.37543579,0.00131660
1319.30424316,0.00134113
1321.23305054,0.00141381
1323.16185791,0.00151399
1325.09066528,0.00141535
1327.01947266,0.00154280
1328.94828003,0.00154668
1330.87708740,0.00137863
1332.80589478,0.00141679
1334.73470215,0.00163021
1336.66350952,0.00160248
1338.59231689,0.00139305
1340.52112427,0.00162999
1342.44993164,0.00168693
1344.37873901,0.00160958
1346.30754639,0.00171219
1348.23635376,0.00167229
1350.16516113,0.00167772
1352.09396851,0.00167978
1354.02277588,0.00173193
1355.95158325,0.00163092
1357.88039062,0.00144171
1359.80919800,0.00153247
1361.73800537,0.00159313
1363.66681274,0.00151038
1365.59562012,0.00150731
1367.52442749,0.00160100
1369.45323486,0.00157510
1371.38204224,0.00150479
1373.31084961,0.00159323
1375.23965698,0.00156723
1377.16846436,0.00144779
1379.09727173,0.00158631
1381.02607910,0.00158142
1382.95488647,0.00152059
1384.88369385,0.00154055
1386.81250122,0.00138260
1388.74130859,0.00150376
1390.67011597,0.00157892
1392.59892334,0.00152952
1394.52773071,0.00159020
1396.45653809,0.00167591
1398.38534546,0.00171824
1400.31415283,0.00157817
1402.24296021,0.00169168
1404.17176758,0.00165152
1406.10057495,0.00164598
1408.02938232,0.00173636
1409.95818970,0.00164753
1411.88699707,0.00181105
1413.81580444,0.00165810
1415.74461182,0.00160917
1417.67341919,0.00158839
1419.60222656,0.00150636
1421.53103394,0.00159716
1423.45984131,0.00148340
1425.38864868,0.00171332
1427.31745605,0.00161413
1429.24626343,0.00152184
1431.17507080,0.00172673
1433.10387817,0.00157705
1435.03268555,0.00146983
1436.96149292,0.00128479
1438.89030029,0.00144442
1440.81910767,0.00152763
1442.74791504,0.00134903
1444.67672241,0.00132925
1446.60552979,0.00132101
1448.53433716,0.00153633
1450.46314453,0.00138212
1452.39195190,0.00133318
1454.32075928,0.00140150
1456.24956665,0.00111312
1458.17837402,0.00133185
1460.10718140,0.00160752
1462.03598877,0.00168166
1463.96479614,0.00170331
1465.89360352,0.00161713
1467.82241089,0.00178202
1469.75121826,0.00186499
1471.68002563,0.00183001
1473.60883301,0.00188442
1475.53764038,0.00195897
1477.46644775,0.00219859
1479.39525513,0.00229652
1481.32406250,0.00232902
1483.25286987,0.00254540
1485.18167725,0.00250584
1487.11048462,0.00243998
1489.03929199,0.00249608
1490.96809937,0.00250846
1492.89690674,0.00273776
1494.82571411,0.00287712
1496.75452148,0.00274021
1498.68332886,0.00276688
1500.61213623,0.00290290
1502.54094360,0.00308228
1504.46975098,0.00292266
1506.39855835,0.00233047
1508.32736572,0.00267545
1510.25617310,0.00304676
1512.18498047,0.00289813
1514.11378784,0.00318128
1516.04259521,0.00295311
1517.97140259,0.00298655
1519.90020996,0.00298272
1521.82901733,0.00264467
1523.75782471,0.00294584
1525.68663208,0.00289980
1527.61543945,0.00315729
1529.54424683,0.00351564
1531.47305420,0.00331778
1533.40186157,0.00303601
1535.33066895,0.00322531
1537.25947632,0.00345257
1539.18828369,0.00263311
1541.11709106,0.00274148
1543.04589844,0.00318019
1544.97470581,0.00317729
1546.90351318,0.00352231
1548.83232056,0.00318130
1550.76112793,0.00325178
1552.68993530,0.00332532
1554.61874268,0.00325095
1556.54755005,0.00336265
1558.47635742,0.00262894
1560.40516479,0.00276760
1562.33397217,0.00356402
1564.26277954,0.00348338
1566.19158691,0.00353409
1568.12039429,0.00349279
1570.04920166,0.00311860
1571.97800903,0.00368286
1573.90681641,0.00365254
1575.83562378,0.00297892
1577.76443115,0.00339041
1579.69323853,0.00344541
1581.62204590,0.00343318
1583.55085327,0.00358878
1585.47966064,0.00359363
1587.40846802,0.00377960
1589.33727539,0.00356836
1591.26608276,0.00360290
1593.19489014,0.00357789
1595.12369751,0.00350774
1597.05250488,0.00362204
1598.98131226,0.00357745
1600.91011963,0.00364979
1602.83892700,0.00363798
1604.76773437,0.00361672
1606.69654175,0.00350093
1608.62534912,0.00361696
1610.55415649,0.00360021
1612.48296387,0.00348024
1614.41177124,0.00351882
1616.34057861,0.00311722
1618.26938599,0.00337872
1620.19819336,0.00381590
1622.12700073,0.00360406
1624.05580811,0.00348820
1625.98461548,0.00368121
1627.91342285,0.00370625
1629.84223022,0.00347049
1631.77103760,0.00373358
1633.69984497,0.00352491
1635.62865234,0.00318576
1637.55745972,0.00361629
1639.48626709,0.00373819
1641.41507446,0.00370639
1643.34388184,0.00374335
1645.27268921,0.00340841
1647.20149658,0.00320224
1649.13030396,0.00377785
1651.05911133,0.00346052
1652.98791870,0.00260843
1654.91672607,0.00322631
1656.84553345,0.00369390
1658.77434082,0.00375405
1660.70314819,0.00382075
1662.63195557,0.00345882
1664.56076294,0.00354212
1666.48957031,0.00384547
1668.41837769,0.00346681
1670.34718506,0.00331493
1672.27599243,0.00383487
1674.20479980,0.00346353
1676.13360718,0.00347951
1678.06241455,0.00397884
1679.99122192,0.00365167
1681.92002930,0.00376084
1683.84883667,0.00318772
1685.77764404,0.00317381
1687.70645142,0.00406316
1689.63525879,0.00366145
1691.56406616,0.00407171
1693.49287354,0.00406483
1695.42168091,0.00322811
1697.35048828,0.00360787
1699.27929565,0.00334119
1701.20810303,0.00326636
1703.13691040,0.00391536
1705.06571777,0.00377142
1706.99452515,0.00376629
1708.92333252,0.00391538
1710.85213989,0.00386147
1712.78094727,0.00386620
1714.70975464,0.00373307
1716.63856201,0.00341250
1718.56736938,0.00331249
1720.49617676,0.00389405
1722.42498413,0.00401782
1724.35379150,0.00380120
1726.28259888,0.00404728
1728.21140625,0.00364849
1730.14021362,0.00362397
1732.06902100,0.00369433
1733.99782837,0.00303597
1735.92663574,0.00366119
1737.85544312,0.00394897
1739.78425049,0.00345301
1741.71305786,0.00387611
1743.64186523,0.00387968
1745.57067261,0.00380234
1747.49947998,0.00396079
1749.42828735,0.00370355
1751.35709473,0.00365546
1753.28590210,0.00403994
1755.21470947,0.00409194
1757.14351685,0.00374157
1759.07232422,0.00398759
1761.00113159,0.00389004
1762.92993896,0.00384678
1764.85874634,0.00430016
1766.78755371,0.00392505
1768.71636108,0.00400105
1770.64516846,0.00397384
1772.57397583,0.00359271
1774.50278320,0.00400833
1776.43159058,0.00402201
1778.36039795,0.00400165
1780.28920532,0.00411129
1782.21801270,0.00390139
1784.14682007,0.00388632
1786.07562744,0.00402469
1788.00443481,0.00416138
1789.93324219,0.00405564
1791.86204956,0.00389680
1793.79085693,0.00405915
1795.71966431,0.00426246
1797.64847168,0.00417635
1799.57727905,0.00409040
1801.50608643,0.00406994
1803.43489380,0.00410501
1805.36370117,0.00415823
1807.29250854,0.00409568
1809.22131592,0.00417933
1811.15012329,0.00417436
1813.07893066,0.00419306
1815.00773804,0.00421713
1816.93654541,0.00415651
1818.86535278,0.00424094
1820.79416016,0.00435167
1822.72296753,0.00433234
1824.65177490,0.00408410
1826.58058228,0.00428875
1828.50938965,0.00420437
1830.43819702,0.00399793
1832.36700439,0.00446166
1834.29581177,0.00429449
1836.22461914,0.00422467
1838.15342651,0.00437968
1840.08223389,0.00446811
1842.01104126,0.00442731
1843.93984863,0.00391391
1845.86865601,0.00418198
1847.79746338,0.00431494
1849.72627075,0.00416781
1851.65507812,0.00440181
1853.58388550,0.00435039
1855.51269287,0.00440185
1857.44150024,0.00434226
1859.37030762,0.00426950
1861.29911499,0.00431793
1863.22792236,0.00433626
1865.15672974,0.00442600
1867.08553711,0.00417141
1869.01434448,0.00408818
1870.94315186,0.00430449
1872.87195923,0.00421846
1874.80076660,0.00430469
1876.72957397,0.00436014
1878.65838135,0.00412521
1880.58718872,0.00426195
1882.51599609,0.00427531
1884.44480347,0.00427148
1886.37361084,0.00437819
1888.30241821,0.00415918
1890.23122559,0.00425810
1892.16003296,0.00433715
1894.08884033,0.00425054
1896.01764771,0.00428038
1897.94645508,0.00433931
1899.87526245,0.00444692
1901.80406982,0.00434015
1903.73287720,0.00428278
1905.66168457,0.00428185
1907.59049194,0.00434120
1909.51929932,0.00436705
1911.44810669,0.00426489
1913.37691406,0.00439605
1915.30572144,0.00433814
1917.23452881,0.00411507
1919.16333618,0.00425497
1921.09214355,0.00434319
1923.02095093,0.00422850
1924.94975830,0.00432615
1926.87856567,0.00430028
1928.80737305,0.00431894
1930.73618042,0.00439777
1932.66498779,0.00423515
1934.59379517,0.00440574
1936.52260254,0.00439547
1938.45140991,0.00423813
1940.38021729,0.00427190
1942.30902466,0.00416814
1944.23783203,0.00424249
1946.16663940,0.00434847
1948.09544678,0.00435247
1950.02425415,0.00425548
1951.95306152,0.00429875
1953.88186890,0.00439137
1955.81067627,0.00435171
1957.73948364,0.00440810
1959.66829102,0.00439136
1961.59709839,0.00436230
1963.52590576,0.00427406
1965.45471313,0.00437939
1967.38352051,0.00444144
1969.31232788,0.00437659
1971.24113525,0.00451174
1973.16994263,0.00439167
1975.09875000,0.00435487
1977.02755737,0.00436719
1978.95636475,0.00433624
1980.88517212,0.00432199
1982.81397949,0.00426504
1984.74278687,0.00434310
1986.67159424,0.00421467
1988.60040161,0.00425698
1990.52920898,0.00435739
1992.45801636,0.00431189
1994.38682373,0.00436457
1996.31563110,0.00434290
1998.24443848,0.00440056
2000.17324585,0.00439348
2002.10205322,0.00432602
2004.03086060,0.00424783
2005.95966797,0.00425119
2007.88847534,0.00438551
2009.81728271,0.00432360
2011.74609009,0.00422583
2013.67489746,0.00427853
2015.60370483,0.00430671
2017.53251221,0.00422488
2019.46131958,0.00430407
2021.39012695,0.00432416
2023.31893433,0.00418613
2025.24774170,0.00434220
2027.17654907,0.00441168
2029.10535645,0.00422113
2031.03416382,0.00428102
2032.96297119,0.00434755
2034.89177856,0.00415835
2036.82058594,0.00423421
2038.74939331,0.00436013
2040.67820068,0.00423922
2042.60700806,0.00424158
2044.53581543,0.00429148
2046.46462280,0.00424537
2048.39343018,0.00422697
2050.32223755,0.00431409
2052.25104492,0.00419128
2054.17985229,0.00408133
2056.10865967,0.00423867
2058.03746704,0.00425225
2059.96627441,0.00428842
2061.89508179,0.00422683
2063.82388916,0.00409647
2065.75269653,0.00427218
2067.68150391,0.00428781
2069.61031128,0.00411330
2071.53911865,0.00423358
2073.46792603,0.00432673
2075.39673340,0.00417233
2077.32554077,0.00413703
2079.25434814,0.00415162
2081.18315552,0.00425721
2083.11196289,0.00432532
2085.04077026,0.00414096
2086.96957764,0.00411984
2088.89838501,0.00424060
2090.82719238,0.00427851
2092.75599976,0.00422815
2094.68480713,0.00413997
2096.61361450,0.00410647
2098.54242187,0.00414496
2100.47122925,0.00418423
2102.40003662,0.00413445
2104.32884399,0.00407399
2106.25765137,0.00418301
2108.18645874,0.00431093
2110.11526611,0.00416574
2112.04407349,0.00413646
2113.97288086,0.00423714
2115.90168823,0.00421946
2117.83049561,0.00418864
2119.75930298,0.00412753
2121.68811035,0.00412415
2123.61691772,0.00405791
2125.54572510,0.00415736
2127.47453247,0.00415118
2129.40333984,0.00395256
2131.33214722,0.00415735
2133.26095459,0.00424475
2135.18976196,0.00419109
2137.11856934,0.00418632
2139.04737671,0.00417430
2140.97618408,0.00419368
2142.90499146,0.00415609
2144.83379883,0.00420508
2146.76260620,0.00414779
2148.69141357,0.00409998
2150.62022095,0.00410694
2152.54902832,0.00415418
2154.47783569,0.00417180
2156.40664307,0.00416423
2158.33545044,0.00427813
2160.26425781,0.00421926
2162.19306519,0.00426620
2164.12187256,0.00418666
2166.05067993,0.00414682
2167.97948730,0.00430235
2169.90829468,0.00407378
2171.83710205,0.00415466
2173.76590942,0.00425384
2175.69471680,0.00412675
2177.62352417,0.00425232
2179.55233154,0.00421677
2181.48113892,0.00411229
2183.40994629,0.00410394
2185.33875366,0.00415456
2187.26756104,0.00418993
2189.19636841,0.00418259
2191.12517578,0.00417939
2193.05398315,0.00412330
2194.98279053,0.00410116
2196.91159790,0.00415408
2198.84040527,0.00413146
2200.76921265,0.00407477
2202.69802002,0.00419197
2204.62682739,0.00408440
2206.55563477,0.00405513
2208.48444214,0.00426920
2210.41324951,0.00414325
2212.34205688,0.00410728
2214.27086426,0.00407337
2216.19967163,0.00407839
2218.12847900,0.00412087
2220.05728638,0.00393804
2221.98609375,0.00410912
2223.91490112,0.00418452
2225.84370850,0.00415184
2227.77251587,0.00427763
2229.70132324,0.00422611
2231.63013062,0.00414519
2233.55893799,0.00403621
2235.48774536,0.00409150
2237.41655273,0.00409102
2239.34536011,0.00409474
2241.27416748,0.00420380
2243.20297485,0.00409425
2245.13178223,0.00407710
2247.06058960,0.00410442
2248.98939697,0.00411971
2250.91820435,0.00399579
2252.84701172,0.00404535
2254.77581909,0.00423429
2256.70462646,0.00406758
2258.63343384,0.00409309
2260.56224121,0.00401510
2262.49104858,0.00401902
2264.41985596,0.00424409
2266.34866333,0.00422937
2268.27747070,0.00418858
2270.20627808,0.00404545
2272.13508545,0.00419750
2274.06389282,0.00417845
2275.99270020,0.00400251
2277.92150757,0.00408651
2279.85031494,0.00402606
2281.77912231,0.00410264
2283.70792969,0.00402310
2285.63673706,0.00407081
2287.56554443,0.00412375
2289.49435181,0.00402332
2291.42315918,0.00420910
2293.35196655,0.00406859
2295.28077393,0.00398635
2297.20958130,0.00404138
2299.13838867,0.00402013
2301.06719604,0.00404462
2302.99600342,0.00404128
2304.92481079,0.00408300
2306.85361816,0.00397693
2308.78242554,0.00401487
2310.71123291,0.00396910
2312.64004028,0.00384530
2314.56884766,0.00386476
2316.49765503,0.00380289
2318.42646240,0.00380939
2320.35526978,0.00385128
2322.28407715,0.00392908
2324.21288452,0.00378039
2326.14169189,0.00366970
2328.07049927,0.00370260
2329.99930664,0.00364253
2331.92811401,0.00364082
2333.85692139,0.00350907
2335.78572876,0.00358526
2337.71453613,0.00359071
2339.64334351,0.00350306
2341.57215088,0.00371080
2343.50095825,0.00366287
2345.42976562,0.00363941
2347.35857300,0.00378750
2349.28738037,0.00384713
2351.21618774,0.00385996
2353.14499512,0.00370081
2355.07380249,0.00353680
2357.00260986,0.00348723
2358.93141724,0.00340896
2360.86022461,0.00341942
2362.78903198,0.00344062
2364.71783936,0.00338093
2366.64664673,0.00353281
2368.57545410,0.00355814
2370.50426147,0.00351329
2372.43306885,0.00366283
2374.36187622,0.00372023
2376.29068359,0.00382269
2378.21949097,0.00387596
2380.14829834,0.00397927
2382.07710571,0.00408273
2384.00591309,0.00403535
2385.93472046,0.00397341
2387.86352783,0.00382632
2389.79233521,0.00399954
2391.72114258,0.00410075
2393.64994995,0.00397898
2395.57875732,0.00403013
2397.50756470,0.00389897
2399.43637207,0.00400975
2401.36517944,0.00419305
2403.29398682,0.00400117
2405.22279419,0.00394098
2407.15160156,0.00397091
2409.08040894,0.00396802
2411.00921631,0.00389925
2412.93802368,0.00390173
2414.86683105,0.00404665
2416.79563843,0.00398895
2418.72444580,0.00394620
2420.65325317,0.00402710
2422.58206055,0.00401467
2424.51086792,0.00397042
2426.43967529,0.00401191
2428.36848267,0.00403005
2430.29729004,0.00390838
2432.22609741,0.00397370
2434.15490479,0.00405355
2436.08371216,0.00400324
2438.01251953,0.00402614
2439.94132690,0.00389369
2441.87013428,0.00389614
2443.79894165,0.00401361
2445.72774902,0.00391150
2447.65655640,0.00389873
2449.58536377,0.00403630
2451.51417114,0.00403845
2453.44297852,0.00384047
2455.37178589,0.00383717
2457.30059326,0.00401375
2459.22940063,0.00399861
2461.15820801,0.00385173
2463.08701538,0.00380564
2465.01582275,0.00385553
2466.94463013,0.00388061
2468.87343750,0.00393035
2470.80224487,0.00391263
2472.73105225,0.00394105
2474.65985962,0.00389622
2476.58866699,0.00378052
2478.51747437,0.00386490
2480.44628174,0.00382758
2482.37508911,0.00390553
2484.30389648,0.00392257
2486.23270386,0.00378955
2488.16151123,0.00394612
2490.09031860,0.00394898
2492.01912598,0.00393042
2493.94793335,0.00395661
2495.87674072,0.00390740
2497.80554810,0.00394163
2499.73435547,0.00397603
2501.66316284,0.00395319
2503.59197021,0.00384009
2505.52077759,0.00392414
2507.44958496,0.00388845
2509.37839233,0.00384185
2511.30719971,0.00402388
2513.23600708,0.00391114
2515.16481445,0.00382986
2517.09362183,0.00378148
2519.02242920,0.00372346
2520.95123657,0.00379494
2522.88004395,0.00382133
2524.80885132,0.00381673
2526.73765869,0.00371337
2528.66646606,0.00379018
2530.59527344,0.00387608
2532.52408081,0.00383248
2534.45288818,0.00376346
2536.38169556,0.00371346
2538.31050293,0.00387713
2540.23931030,0.00382442
2542.16811768,0.00377344
2544.09692505,0.00387431
2546.02573242,0.00381420
2547.95453979,0.00384636
2549.88334717,0.00386337
2551.81215454,0.00379547
2553.74096191,0.00380074
2555.66976929,0.00386378
2557.59857666,0.00386185
2559.52738403,0.00382145
2561.45619141,0.00374283
2563.38499878,0.00378709
2565.31380615,0.00394438
2567.24261353,0.00381860
2569.17142090,0.00380387
2571.10022827,0.00384536
2573.02903564,0.00382455
2574.95784302,0.00391723
2576.88665039,0.00387933
2578.81545776,0.00389663
2580.74426514,0.00381135
2582.67307251,0.00377616
2584.60187988,0.00383560
2586.53068726,0.00375431
2588.45949463,0.00376252
2590.38830200,0.00377429
2592.31710937,0.00383617
2594.24591675,0.00372979
2596.17472412,0.00366190
2598.10353149,0.00379617
2600.03233887,0.00378025
2601.96114624,0.00379588
2603.88995361,0.00372174
2605.81876099,0.00367113
2607.74756836,0.00377714
2609.67637573,0.00379681
2611.60518311,0.00371318
2613.53399048,0.00374201
2615.46279785,0.00382794
2617.39160522,0.00373649
2619.32041260,0.00372807
2621.24921997,0.00370272
2623.17802734,0.00370538
2625.10683472,0.00379673
2627.03564209,0.00371455
2628.96444946,0.00369190
2630.89325684,0.00376218
2632.82206421,0.00374879
2634.75087158,0.00372554
2636.67967895,0.00370411
2638.60848633,0.00355395
2640.53729370,0.00364599
2642.46610107,0.00374259
2644.39490845,0.00363552
2646.32371582,0.00377854
2648.25252319,0.00373515
2650.18133057,0.00367140
2652.11013794,0.00366090
2654.03894531,0.00362599
2655.96775269,0.00369159
2657.89656006,0.00358958
2659.82536743,0.00368466
2661.75417480,0.00369725
2663.68298218,0.00364407
2665.61178955,0.00366829
2667.54059692,0.00354451
2669.46940430,0.00357811
2671.39821167,0.00369054
2673.32701904,0.00374273
2675.25582642,0.00361933
2677.18463379,0.00361245
2679.11344116,0.00355912
2681.04224854,0.00355510
2682.97105591,0.00377206
2684.89986328,0.00355972
2686.82867065,0.00356144
2688.75747803,0.00367311
2690.68628540,0.00360077
2692.61509277,0.00369170
2694.54390015,0.00367379
2696.47270752,0.00367471
2698.40151489,0.00363140
2700.33032227,0.00365549
2702.25912964,0.00360833
2704.18793701,0.00356575
2706.11674438,0.00370663
2708.04555176,0.00365369
2709.97435913,0.00365106
2711.90316650,0.00361765
2713.83197388,0.00362576
2715.76078125,0.00364051
2717.68958862,0.00356568
2719.61839600,0.00366368
2721.54720337,0.00367625
2723.47601074,0.00370892
2725.40481812,0.00360766
2727.33362549,0.00355772
2729.26243286,0.00370828
2731.19124023,0.00352156
2733.12004761,0.00353602
2735.04885498,0.00365000
2736.97766235,0.00354122
2738.90646973,0.00361697
2740.83527710,0.00358086
2742.76408447,0.00355010
2744.69289185,0.00359375
2746.62169922,0.00351556
2748.55050659,0.00354231
2750.47931396,0.00352134
2752.40812134,0.00349718
2754.33692871,0.00354266
2756.26573608,0.00356242
2758.19454346,0.00355351
2760.12335083,0.00343283
2762.05215820,0.00343149
2763.98096558,0.00351109
2765.90977295,0.00351287
2767.83858032,0.00352416
2769.76738770,0.00350350
2771.69619507,0.00350522
2773.62500244,0.00355461
2775.55380981,0.00351032
2777.48261719,0.00344425
2779.41142456,0.00348673
2781.34023193,0.00345118
2783.26903931,0.00343024
2785.19784668,0.00345780
2787.12665405,0.00343340
2789.05546143,0.00347634
2790.98426880,0.00341669
2792.91307617,0.00342651
2794.84188354,0.00355726
2796.77069092,0.00352942
2798.69949829,0.00345313
2800.62830566,0.00344236
2802.55711304,0.00349460
2804.48592041,0.00348629
2806.41472778,0.00343412
2808.34353516,0.00346042
2810.27234253,0.00349874
2812.20114990,0.00342090
2814.12995728,0.00339932
2816.05876465,0.00343436
2817.98757202,0.00342778
2819.91637939,0.00353732
2821.84518677,0.00346162
2823.77399414,0.00334175
2825.70280151,0.00338384
2827.63160889,0.00340255
2829.56041626,0.00344981
2831.48922363,0.00340463
2833.41803101,0.00333667
2835.34683838,0.00332550
2837.27564575,0.00339632
2839.20445312,0.00335686
2841.13326050,0.00327706
2843.06206787,0.00336671
2844.99087524,0.00335151
2846.91968262,0.00334461
2848.84848999,0.00329270
2850.77729736,0.00325261
2852.70610474,0.00327514
2854.63491211,0.00332642
2856.56371948,0.00342681
2858.49252686,0.00331132
2860.42133423,0.00331503
2862.35014160,0.00337337
2864.27894897,0.00333858
2866.20775635,0.00331033
2868.13656372,0.00327891
2870.06537109,0.00331618
2871.99417847,0.00328904
2873.92298584,0.00335456
2875.85179321,0.00328730
2877.78060059,0.00321244
2879.70940796,0.00329794
2881.63821533,0.00325998
2883.56702270,0.00321348
2885.49583008,0.00317648
2887.42463745,0.00325168
2889.35344482,0.00316684
2891.28225220,0.00315055
2893.21105957,0.00328821
2895.13986694,0.00322315
2897.06867432,0.00324486
2898.99748169,0.00318168
2900.92628906,0.00322778
2902.85509644,0.00323985
2904.78390381,0.00315657
2906.71271118,0.00322220
2908.64151855,0.00312072
2910.57032593,0.00318461
2912.49913330,0.00311868
2914.42794067,0.00304974
2916.35674805,0.00319505
2918.28555542,0.00310489
2920.21436279,0.00317175
2922.14317017,0.00322187
2924.07197754,0.00319036
2926.00078491,0.00313545
2927.92959229,0.00306223
2929.85839966,0.00314421
2931.78720703,0.00308074
2933.71601440,0.00311051
2935.64482178,0.00310530
2937.57362915,0.00305323
2939.50243652,0.00313083
2941.43124390,0.00306250
2943.36005127,0.00316244
2945.28885864,0.00320145
2947.21766602,0.00310436
2949.14647339,0.00311739
2951.07528076,0.00308123
2953.00408813,0.00312903
2954.93289551,0.00313170
2956.86170288,0.00313905
2958.79051025,0.00309712
2960.71931763,0.00303384
2962.64812500,0.00312184
2964.57693237,0.00304209
2966.50573975,0.00301624
2968.43454712,0.00303927
2970.36335449,0.00308843
2972.29216187,0.00315136
2974.22096924,0.00302998
2976.14977661,0.00310091
2978.07858398,0.00305542
2980.00739136,0.00297986
2981.93619873,0.00311035
2983.86500610,0.00303287
2985.79381348,0.00305272
2987.72262085,0.00312530
2989.65142822,0.00309855
2991.58023560,0.00306736
2993.50904297,0.00302430
2995.43785034,0.00309401
2997.36665771,0.00306820
2999.29546509,0.00305179
3001.22427246,0.00313167
3003.15307983,0.00306582
3005.08188721,0.00300174
3007.01069458,0.00307317
3008.93950195,0.00314653
3010.86830933,0.00303273
3012.79711670,0.00294020
3014.72592407,0.00297118
3016.65473145,0.00291528
3018.58353882,0.00298975
3020.51234619,0.00301129
3022.44115356,0.00292693
3024.36996094,0.00304306
3026.29876831,0.00302165
3028.22757568,0.00297891
3030.15638306,0.00303512
3032.08519043,0.00298954
3034.01399780,0.00298432
3035.94280518,0.00299728
3037.87161255,0.00296287
3039.80041992,0.00293280
3041.72922729,0.00300309
3043.65803467,0.00302399
3045.58684204,0.00303683
3047.51564941,0.00303157
3049.44445679,0.00290002
3051.37326416,0.00293198
3053.30207153,0.00294643
3055.23087891,0.00294537
3057.15968628,0.00296339
3059.08849365,0.00293992
3061.01730103,0.00295753
3062.94610840,0.00289347
3064.87491577,0.00295188
3066.80372314,0.00294364
3068.73253052,0.00290136
3070.66133789,0.00293672
3072.59014526,0.00284614
3074.51895264,0.00284276
3076.44776001,0.00288985
3078.37656738,0.00287319
3080.30537476,0.00280210
3082.23418213,0.00285900
3084.16298950,0.00286706
3086.09179687,0.00285602
3088.02060425,0.00291808
3089.94941162,0.00277519
3091.87821899,0.00284178
3093.80702637,0.00284944
3095.73583374,0.00281821
3097.66464111,0.00291602
3099.59344849,0.00275875
3101.52225586,0.00281271
3103.45106323,0.00289641
3105.37987061,0.00285473
3107.30867798,0.00288114
3109.23748535,0.00281872
3111.16629272,0.00277932
3113.09510010,0.00282795
3115.02390747,0.00279890
3116.95271484,0.00271699
3118.88152222,0.00284221
3120.81032959,0.00283348
3122.73913696,0.00276917
3124.66794434,0.00281601
3126.59675171,0.00277095
3128.52555908,0.00285832
3130.45436645,0.00282306
3132.38317383,0.00270141
3134.31198120,0.00274689
3136.24078857,0.00277365
3138.16959595,0.00274542
3140.09840332,0.00275116
3142.02721069,0.00272989
3143.95601807,0.00273339
3145.88482544,0.00276909
3147.81363281,0.00264195
3149.74244019,0.00272683
3151.67124756,0.00275919
3153.60005493,0.00261101
3155.52886230,0.00263445
3157.45766968,0.00264042
3159.38647705,0.00277393
3161.31528442,0.00267271
3163.24409180,0.00255573
3165.17289917,0.00259834
3167.10170654,0.00255622
3169.03051392,0.00272362
3170.95932129,0.00261535
3172.88812866,0.00259600
3174.81693604,0.00276261
3176.74574341,0.00267169
3178.67455078,0.00268272
3180.60335815,0.00262027
3182.53216553,0.00255679
3184.46097290,0.00256408
3186.38978027,0.00257100
3188.31858765,0.00259612
3190.24739502,0.00261057
3192.17620239,0.00269117
3194.10500977,0.00266462
3196.03381714,0.00260805
3197.96262451,0.00258611
3199.89143188,0.00259507
3201.82023926,0.00260371
3203.74904663,0.00254919
3205.67785400,0.00254933
3207.60666138,0.00252880
3209.53546875,0.00252217
3211.46427612,0.00254245
3213.39308350,0.00252619
3215.32189087,0.00252406
3217.25069824,0.00247621
3219.17950562,0.00250547
3221.10831299,0.00257460
3223.03712036,0.00252116
3224.96592773,0.00254917
3226.89473511,0.00256590
3228.82354248,0.00250643
3230.75234985,0.00245990
3232.68115723,0.00242699
3234.60996460,0.00249056
3236.53877197,0.00244931
3238.46757935,0.00246451
3240.39638672,0.00253521
3242.32519409,0.00250286
3244.25400146,0.00246944
3246.18280884,0.00241253
3248.11161621,0.00255516
3250.04042358,0.00254531
3251.96923096,0.00243728
3253.89803833,0.00246843
3255.82684570,0.00250030
3257.75565308,0.00257767
3259.68446045,0.00240954
3261.61326782,0.00243956
3263.54207520,0.00245936
3265.47088257,0.00232780
3267.39968994,0.00245855
3269.32849731,0.00245509
3271.25730469,0.00249797
3273.18611206,0.00243985
3275.11491943,0.00243356
3277.04372681,0.00255428
3278.97253418,0.00245854
3280.90134155,0.00240563
3282.83014893,0.00238623
3284.75895630,0.00245930
3286.68776367,0.00241080
3288.61657104,0.00246071
3290.54537842,0.00246409
3292.47418579,0.00232881
3294.40299316,0.00253384
3296.33180054,0.00254792
3298.26060791,0.00250614
3300.18941528,0.00243088
3302.11822266,0.00242197
3304.04703003,0.00249776
3305.97583740,0.00235557
3307.90464478,0.00247502
3309.83345215,0.00245170
3311.76225952,0.00239818
3313.69106689,0.00245758
3315.61987427,0.00242954
3317.54868164,0.00250233
3319.47748901,0.00245171
3321.40629639,0.00243374
3323.33510376,0.00237655
3325.26391113,0.00241843
3327.19271851,0.00244416
3329.12152588,0.00233064
3331.05033325,0.00241538
3332.97914062,0.00240810
3334.90794800,0.00239303
3336.83675537,0.00237703
3338.76556274,0.00240520
3340.69437012,0.00244041
3342.62317749,0.00234430
3344.55198486,0.00237843
3346.48079224,0.00238797
3348.40959961,0.00239050
3350.33840698,0.00236738
3352.26721436,0.00235110
3354.19602173,0.00232843
3356.12482910,0.00226893
3358.05363647,0.00237050
3359.98244385,0.00233646
3361.91125122,0.00231317
3363.84005859,0.00235863
3365.76886597,0.00228285
3367.69767334,0.00232111
3369.62648071,0.00235341
3371.55528809,0.00233647
3373.48409546,0.00237068
3375.41290283,0.00236944
3377.34171020,0.00233180
3379.27051758,0.00233463
3381.19932495,0.00230145
3383.12813232,0.00222113
3385.05693970,0.00223285
3386.98574707,0.00226850
3388.91455444,0.00234368
3390.84336182,0.00235859
3392.77216919,0.00227251
3394.70097656,0.00233387
3396.62978394,0.00232956
3398.55859131,0.00226206
3400.48739868,0.00231200
3402.41620605,0.00229099
3404.34501343,0.00230049
3406.27382080,0.00231966
3408.20262817,0.00228271
3410.13143555,0.00222798
3412.06024292,0.00220106
3413.98905029,0.00231589
3415.91785767,0.00231577
3417.84666504,0.00225802
3419.77547241,0.00223052
3421.70427979,0.00223614
3423.63308716,0.00233659
3425.56189453,0.00222311
3427.49070190,0.00217369
3429.41950928,0.00230320
3431.34831665,0.00227315
3433.27712402,0.00218223
3435.20593140,0.00213654
3437.13473877,0.00218921
3439.06354614,0.00228340
3440.99235352,0.00225186
3442.92116089,0.00216501
3444.84996826,0.00217107
3446.77877563,0.00217149
3448.70758301,0.00226446
3450.63639038,0.00232091
3452.56519775,0.00226117
3454.49400513,0.00229199
3456.42281250,0.00214440
3458.35161987,0.00221712
3460.28042725,0.00234348
3462.20923462,0.00219805
3464.13804199,0.00228596
3466.06684937,0.00218941
3467.99565674,0.00216535
3469.92446411,0.00227980
3471.85327148,0.00215613
3473.78207886,0.00219975
3475.71088623,0.00215483
3477.63969360,0.00216273
3479.56850098,0.00230291
3481.49730835,0.00215532
3483.42611572,0.00209948
3485.35492310,0.00223411
3487.28373047,0.00221426
3489.21253784,0.00217231
3491.14134521,0.00218352
3493.07015259,0.00215719
3494.99895996,0.00217132
3496.92776733,0.00218185
3498.85657471,0.00219865
3500.78538208,0.00211415
3502.71418945,0.00208429
3504.64299683,0.00218319
3506.57180420,0.00209861
3508.50061157,0.00212064
3510.42941895,0.00215519
3512.35822632,0.00214745
3514.28703369,0.00222890
3516.21584106,0.00212431
3518.14464844,0.00213025
3520.07345581,0.00225602
3522.00226318,0.00220246
3523.93107056,0.00210866
3525.85987793,0.00215299
3527.78868530,0.00216342
3529.71749268,0.00210547
3531.64630005,0.00215640
3533.57510742,0.00215248
3535.50391479,0.00220414
3537.43272217,0.00226230
3539.36152954,0.00224429
3541.29033691,0.00225967
3543.21914429,0.00214868
3545.14795166,0.00203591
3547.07675903,0.00202318
3549.00556641,0.00213331
3550.93437378,0.00215681
3552.86318115,0.00205983
3554.79198853,0.00215263
3556.72079590,0.00221647
3558.64960327,0.00220874
3560.57841064,0.00220574
3562.50721802,0.00215950
3564.43602539,0.00209929
3566.36483276,0.00197483
3568.29364014,0.00198795
3570.22244751,0.00218039
3572.15125488,0.00220274
3574.08006226,0.00208978
3576.00886963,0.00213139
3577.93767700,0.00213744
3579.86648437,0.00210134
3581.79529175,0.00215413
3583.72409912,0.00216338
3585.65290649,0.00214397
3587.58171387,0.00200992
3589.51052124,0.00198144
3591.43932861,0.00212281
3593.36813599,0.00211931
3595.29694336,0.00207888
3597.22575073,0.00214516
3599.15455811,0.00225356
3601.08336548,0.00214723
3603.01217285,0.00203024
3604.94098022,0.00216795
3606.86978760,0.00215859
3608.79859497,0.00198106
3610.72740234,0.00200077
3612.65620972,0.00208474
3614.58501709,0.00213444
3616.51382446,0.00223756
3618.44263184,0.00201690
3620.37143921,0.00196693
3622.30024658,0.00218141
3624.22905395,0.00211493
3626.15786133,0.00220364
3628.08666870,0.00187902
3630.01547607,0.00172123
3631.94428345,0.00218177
3633.87309082,0.00213500
3635.80189819,0.00219948
3637.73070557,0.00222680
3639.65951294,0.00211084
3641.58832031,0.00218500
3643.51712769,0.00208737
3645.44593506,0.00207585
3647.37474243,0.00194240
3649.30354980,0.00179678
3651.23235718,0.00190273
3653.16116455,0.00215809
3655.08997192,0.00210174
3657.01877930,0.00200559
3658.94758667,0.00222597
3660.87639404,0.00208497
3662.80520142,0.00211566
3664.73400879,0.00214775
3666.66281616,0.00211880
3668.59162354,0.00208771
3670.52043091,0.00177711
3672.44923828,0.00200323
3674.37804565,0.00192690
3676.30685303,0.00183260
3678.23566040,0.00213880
3680.16446777,0.00204833
3682.09327515,0.00209695
3684.02208252,0.00217701
3685.95088989,0.00215831
3687.87969727,0.00192456
3689.80850464,0.00181269
3691.73731201,0.00195195
3693.66611938,0.00203254
3695.59492676,0.00223720
3697.52373413,0.00208801
3699.45254150,0.00200305
3701.38134888,0.00197570
3703.31015625,0.00195110
3705.23896362,0.00214252
3707.16777100,0.00205843
3709.09657837,0.00201470
3711.02538574,0.00178406
3712.95419312,0.00177162
3714.88300049,0.00209240
3716.81180786,0.00203271
3718.74061523,0.00201497
3720.66942261,0.00199156
3722.59822998,0.00195751
3724.52703735,0.00191568
3726.45584473,0.00187823
3728.38465210,0.00202260
3730.31345947,0.00199920
3732.24226685,0.00184443
3734.17107422,0.00181244
3736.09988159,0.00188694
3738.02868896,0.00182044
3739.95749634,0.00190824
3741.88630371,0.00201096
3743.81511108,0.00163893
3745.74391846,0.00168557
3747.67272583,0.00197260
3749.60153320,0.00167788
3751.53034058,0.00154784
3753.45914795,0.00178615
3755.38795532,0.00198404
3757.31676270,0.00201228
3759.24557007,0.00182808
3761.17437744,0.00190741
3763.10318481,0.00207997
3765.03199219,0.00201969
3766.96079956,0.00199145
3768.88960693,0.00185976
3770.81841431,0.00190101
3772.74722168,0.00202526
3774.67602905,0.00195370
3776.60483643,0.00201177
3778.53364380,0.00198793
3780.46245117,0.00200250
3782.39125854,0.00202656
3784.32006592,0.00187250
3786.24887329,0.00186244
3788.17768066,0.00198745
3790.10648804,0.00198499
3792.03529541,0.00187314
3793.96410278,0.00201575
3795.89291016,0.00188640
3797.82171753,0.00180851
3799.75052490,0.00194575
3801.67933228,0.00152905
3803.60813965,0.00179083
3805.53694702,0.00194244
3807.46575439,0.00157544
3809.39456177,0.00191657
3811.32336914,0.00191256
3813.25217651,0.00191548
3815.18098389,0.00179649
3817.10979126,0.00162585
3819.03859863,0.00189059
3820.96740601,0.00163120
3822.89621338,0.00182054
3824.82502075,0.00198558
3826.75382812,0.00173984
3828.68263550,0.00194212
3830.61144287,0.00188341
3832.54025024,0.00179501
3834.46905762,0.00185303
3836.39786499,0.00175686
3838.32667236,0.00162522
3840.25547974,0.00175710
3842.18428711,0.00184929
3844.11309448,0.00176814
3846.04190186,0.00186013
3847.97070923,0.00182060
3849.89951660,0.00192967
3851.82832397,0.00170153
3853.75713135,0.00132880
3855.68593872,0.00163500
3857.61474609,0.00179082
3859.54355347,0.00177535
3861.47236084,0.00177107
3863.40116821,0.00168370
3865.32997559,0.00168437
3867.25878296,0.00180857
3869.18759033,0.00168687
3871.11639770,0.00160893
3873.04520508,0.00185129
3874.97401245,0.00167025
3876.90281982,0.00181827
3878.83162720,0.00187279
3880.76043457,0.00158904
3882.68924194,0.00194979
3884.61804932,0.00178015
3886.54685669,0.00153156
3888.47566406,0.00177023
3890.40447144,0.00169994
3892.33327881,0.00161606
3894.26208618,0.00167164
3896.19089355,0.00177820
3898.11970093,0.00172160
3900.04850830,0.00162152
3901.97731567,0.00164271
3903.90612305,0.00163889
3905.83493042,0.00163061
3907.76373779,0.00170533
3909.69254517,0.00181035
3911.62135254,0.00177284
3913.55015991,0.00172782
3915.47896728,0.00166447
3917.40777466,0.00164554
3919.33658203,0.00170190
3921.26538940,0.00166453
3923.19419678,0.00170758
3925.12300415,0.00175110
3927.05181152,0.00171440
3928.98061890,0.00178051
3930.90942627,0.00175153
3932.83823364,0.00162279
3934.76704102,0.00168225
3936.69584839,0.00171090
3938.62465576,0.00176542
3940.55346313,0.00181124
3942.48227051,0.00164363
3944.41107788,0.00170251
3946.33988525,0.00178004
3948.26869263,0.00168447
3950.19750000,0.00167587
3952.12630737,0.00169107
3954.05511475,0.00168538
3955.98392212,0.00170706
3957.91272949,0.00176387
3959.84153687,0.00166409
3961.77034424,0.00167135
3963.69915161,0.00174646
3965.62795898,0.00166759
3967.55676636,0.00170674
3969.48557373,0.00166193
3971.41438110,0.00167056
3973.34318848,0.00174875
3975.27199585,0.00165960
3977.20080322,0.00165065
3979.12961060,0.00164490
3981.05841797,0.00165092
3982.98722534,0.00164237
3984.91603271,0.00154405
3986.84484009,0.00156243
3988.77364746,0.00160728
3990.70245483,0.00158885
3992.63126221,0.00157769
3994.56006958,0.00160908
3996.48887695,0.00163812
3998.41768433,0.00163886
4000.34649170,0.00168132
4002.27529907,0.00167178
4004.20410645,0.00162514
4006.13291382,0.00154345
4008.06172119,0.00148453
4009.99052856,0.00157850
4011.91933594,0.00156596
4013.84814331,0.00157670
4015.77695068,0.00163720
4017.70575806,0.00158310
4019.63456543,0.00158094
4021.56337280,0.00151264
4023.49218018,0.00152275
4025.42098755,0.00155869
4027.34979492,0.00156888
4029.27860229,0.00166925
4031.20740967,0.00163323
4033.13621704,0.00161225
4035.06502441,0.00156570
4036.99383179,0.00153435
4038.92263916,0.00153129
4040.85144653,0.00148982
4042.78025391,0.00159753
4044.70906128,0.00159708
4046.63786865,0.00155043
4048.56667603,0.00150838
4050.49548340,0.00149377
4052.42429077,0.00159499
4054.35309814,0.00160042
4056.28190552,0.00160075
4058.21071289,0.00156571
4060.13952026,0.00153362
4062.06832764,0.00152928
4063.99713501,0.00156372
4065.92594238,0.00159744
4067.85474976,0.00147916
4069.78355713,0.00147883
4071.71236450,0.00149847
4073.64117187,0.00151737
4075.56997925,0.00153182
4077.49878662,0.00138721
4079.42759399,0.00139253
4081.35640137,0.00147495
4083.28520874,0.00152679
4085.21401611,0.00150203
4087.14282349,0.00147010
4089.07163086,0.00154577
4091.00043823,0.00146925
4092.92924561,0.00147839
4094.85805298,0.00155637
4096.78686035,0.00149310
4098.71566772,0.00150320
4100.64447510,0.00152398
4102.57328247,0.00148465
4104.50208984,0.00140734
4106.43089722,0.00145126
4108.35970459,0.00148399
4110.28851196,0.00141114
4112.21731934,0.00147777
4114.14612671,0.00149560
4116.07493408,0.00151172
4118.00374145,0.00148556
4119.93254883,0.00140849
4121.86135620,0.00146937
4123.79016357,0.00143267
4125.71897095,0.00142893
4127.64777832,0.00141540
4129.57658569,0.00138078
4131.50539307,0.00145659
4133.43420044,0.00141706
4135.36300781,0.00141854
4137.29181519,0.00145154
4139.22062256,0.00138771
4141.14942993,0.00132768
4143.07823730,0.00140238
4145.00704468,0.00148936
4146.93585205,0.00141606
4148.86465942,0.00145117
4150.79346680,0.00142989
4152.72227417,0.00135996
4154.65108154,0.00140526
4156.57988892,0.00130365
4158.50869629,0.00133931
4160.43750366,0.00136721
4162.36631103,0.00123945
4164.29511841,0.00137595
4166.22392578,0.00138758
4168.15273315,0.00129757
4170.08154053,0.00142065
4172.01034790,0.00140796
4173.93915527,0.00138647
4175.86796265,0.00139525
4177.79677002,0.00132642
4179.72557739,0.00135513
4181.65438477,0.00137928
4183.58319214,0.00137365
4185.51199951,0.00131978
4187.44080688,0.00129465
4189.36961426,0.00135968
4191.29842163,0.00134182
4193.22722900,0.00134816
4195.15603638,0.00132838
4197.08484375,0.00131771
4199.01365112,0.00139068
4200.94245850,0.00131716
4202.87126587,0.00133530
4204.80007324,0.00137579
4206.72888062,0.00129398
4208.65768799,0.00135713
4210.58649536,0.00134647
4212.51530273,0.00134757
4214.44411011,0.00133610
4216.37291748,0.00125306
4218.30172485,0.00140666
4220.23053223,0.00139155
4222.15933960,0.00133654
4224.08814697,0.00137090
4226.01695435,0.00127148
4227.94576172,0.00133297
4229.87456909,0.00131793
4231.80337646,0.00129809
4233.73218384,0.00134690
4235.66099121,0.00130253
4237.58979858,0.00132262
4239.51860596,0.00121592
4241.44741333,0.00123797
4243.37622070,0.00138297
4245.30502808,0.00130891
4247.23383545,0.00128688
4249.16264282,0.00126986
4251.09145020,0.00124741
4253.02025757,0.00136253
4254.94906494,0.00134144
4256.87787231,0.00125487
4258.80667969,0.00131347
4260.73548706,0.00132289
4262.66429443,0.00128300
4264.59310181,0.00130286
4266.52190918,0.00130898
4268.45071655,0.00126036
4270.37952393,0.00123339
4272.30833130,0.00121467
4274.23713867,0.00120750
4276.16594604,0.00122974
4278.09475342,0.00116380
4280.02356079,0.00115178
4281.95236816,0.00119944
4283.88117554,0.00126062
4285.80998291,0.00123403
4287.73879028,0.00119406
4289.66759766,0.00132842
4291.59640503,0.00123401
4293.52521240,0.00123324
4295.45401978,0.00128541
4297.38282715,0.00119603
4299.31163452,0.00128896
4301.24044189,0.00116104
4303.16924927,0.00116783
4305.09805664,0.00128417
4307.02686401,0.00120094
4308.95567139,0.00115844
4310.88447876,0.00114683
4312.81328613,0.00127711
4314.74209351,0.00121689
4316.67090088,0.00114366
4318.59970825,0.00118793
4320.52851562,0.00116382
4322.45732300,0.00119051
4324.38613037,0.00116087
4326.31493774,0.00114676
4328.24374512,0.00115295
4330.17255249,0.00124807
4332.10135986,0.00120479
4334.03016724,0.00113840
4335.95897461,0.00120807
4337.88778198,0.00109608
4339.81658936,0.00114717
4341.74539673,0.00116876
4343.67420410,0.00106389
4345.60301147,0.00114174
4347.53181885,0.00117152
4349.46062622,0.00113282
4351.38943359,0.00113303
4353.31824097,0.00114356
4355.24704834,0.00113050
4357.17585571,0.00114908
4359.10466309,0.00118705
4361.03347046,0.00118974
4362.96227783,0.00108067
4364.89108520,0.00107159
4366.81989258,0.00116984
4368.74869995,0.00112678
4370.67750732,0.00111335
4372.60631470,0.00109622
4374.53512207,0.00113149
4376.46392944,0.00112395
4378.39273682,0.00105920
4380.32154419,0.00108869
4382.25035156,0.00105699
4384.17915894,0.00108294
4386.10796631,0.00109887
4388.03677368,0.00112813
4389.96558105,0.00114119
4391.89438843,0.00109137
4393.82319580,0.00109818
4395.75200317,0.00110795
4397.68081055,0.00111245
4399.60961792,0.00106280
4401.53842529,0.00111744
4403.46723267,0.00113244
4405.39604004,0.00108901
4407.32484741,0.00105502
4409.25365478,0.00104174
4411.18246216,0.00114312
4413.11126953,0.00105350
4415.04007690,0.00103619
4416.96888428,0.00110578
4418.89769165,0.00104262
4420.82649902,0.00101216
4422.75530640,0.00109132
4424.68411377,0.00109559
4426.61292114,0.00095842
4428.54172852,0.00108355
4430.47053589,0.00110837
4432.39934326,0.00105106
4434.32815063,0.00106084
4436.25695801,0.00098101
4438.18576538,0.00107382
4440.11457275,0.00107052
4442.04338013,0.00106855
4443.97218750,0.00107759
4445.90099487,0.00103818
4447.82980225,0.00106655
4449.75860962,0.00103800
4451.68741699,0.00095048
4453.61622437,0.00090551
4455.54503174,0.00101518
4457.47383911,0.00094726
4459.40264648,0.00097732
4461.33145386,0.00106794
4463.26026123,0.00098691
4465.18906860,0.00098224
4467.11787598,0.00094560
4469.04668335,0.00105041
4470.97549072,0.00098943
4472.90429810,0.00094840
4474.83310547,0.00101035
4476.76191284,0.00096732
4478.69072021,0.00106780
4480.61952759,0.00096873
4482.54833496,0.00099654
4484.47714233,0.00104499
4486.40594971,0.00099195
4488.33475708,0.00104492
4490.26356445,0.00094221
4492.19237183,0.00094059
4494.12117920,0.00097102
4496.04998657,0.00103398
4497.97879395,0.00101243
4499.90760132,0.00095703
4501.83640869,0.00100389
4503.76521606,0.00091587
4505.69402344,0.00099189
4507.62283081,0.00101722
4509.55163818,0.00091678
4511.48044556,0.00098047
4513.40925293,0.00099656
4515.33806030,0.00093924
4517.26686768,0.00094112
4519.19567505,0.00094553
4521.12448242,0.00094042
4523.05328979,0.00096532
4524.98209717,0.00096224
4526.91090454,0.00099013
4528.83971191,0.00097766
4530.76851929,0.00095636
4532.69732666,0.00087662
4534.62613403,0.00083665
4536.55494141,0.00094431
4538.48374878,0.00086947
4540.41255615,0.00093755
4542.34136353,0.00097152
4544.27017090,0.00086717
4546.19897827,0.00096779
4548.12778564,0.00089980
4550.05659302,0.00085835
4551.98540039,0.00089073
4553.91420776,0.00090857
4555.84301514,0.00093089
4557.77182251,0.00088307
4559.70062988,0.00094984
4561.62943726,0.00088298
4563.55824463,0.00086916
4565.48705200,0.00094558
4567.41585937,0.00084044
4569.34466675,0.00088537
4571.27347412,0.00087933
4573.20228149,0.00078318
4575.13108887,0.00091796
4577.05989624,0.00093284
4578.98870361,0.00085498
4580.91751099,0.00095215
4582.84631836,0.00092937
4584.77512573,0.00087244
4586.70393311,0.00099173
4588.63274048,0.00097675
4590.56154785,0.00080117
4592.49035522,0.00081784
4594.41916260,0.00093628
4596.34796997,0.00087182
4598.27677734,0.00086265
4600.20558472,0.00093603
4602.13439209,0.00084659
4604.06319946,0.00081574
4605.99200684,0.00086994
4607.92081421,0.00083322
4609.84962158,0.00083477
4611.77842895,0.00084468
4613.70723633,0.00082648
4615.63604370,0.00089283
4617.56485107,0.00091890
4619.49365845,0.00087685
4621.42246582,0.00086355
4623.35127319,0.00083879
4625.28008057,0.00083674
4627.20888794,0.00088394
4629.13769531,0.00090668
4631.06650269,0.00086864
4632.99531006,0.00080652
4634.92411743,0.00082638
4636.85292480,0.00084570
4638.78173218,0.00080504
4640.71053955,0.00087944
4642.63934692,0.00082104
4644.56815430,0.00076801
4646.49696167,0.00095581
4648.42576904,0.00085174
4650.35457642,0.00077221
4652.28338379,0.00088651
4654.21219116,0.00082770
4656.14099853,0.00083017
4658.06980591,0.00082932
4659.99861328,0.00081314
4661.92742065,0.00084298
4663.85622803,0.00086244
4665.78503540,0.00086130
4667.71384277,0.00079803
4669.64265015,0.00080902
4671.57145752,0.00086189
4673.50026489,0.00083914
4675.42907227,0.00076262
4677.35787964,0.00079136
4679.28668701,0.00082156
4681.21549438,0.00081074
4683.14430176,0.00085928
4685.07310913,0.00082124
4687.00191650,0.00081220
4688.93072388,0.00079526
4690.85953125,0.00078053
4692.78833862,0.00080190
4694.71714600,0.00080995
4696.64595337,0.00088032
4698.57476074,0.00081343
4700.50356812,0.00077940
4702.43237549,0.00082262
4704.36118286,0.00079920
4706.28999023,0.00081455
4708.21879761,0.00079731
4710.14760498,0.00075337
4712.07641235,0.00073793
4714.00521973,0.00077222
4715.93402710,0.00074590
4717.86283447,0.00073009
4719.79164185,0.00077577
4721.72044922,0.00076767
4723.64925659,0.00077965
4725.57806396,0.00079300
4727.50687134,0.00079806
4729.43567871,0.00071033
4731.36448608,0.00066994
4733.29329346,0.00074879
4735.22210083,0.00073408
4737.15090820,0.00072768
4739.07971558,0.00078278
4741.00852295,0.00082131
4742.93733032,0.00073528
4744.86613770,0.00068711
4746.79494507,0.00074471
4748.72375244,0.00072316
4750.65255981,0.00070669
4752.58136719,0.00071018
4754.51017456,0.00074886
4756.43898193,0.00078120
4758.36778931,0.00077291
4760.29659668,0.00072425
4762.22540405,0.00069920
4764.15421143,0.00075070
4766.08301880,0.00073152
4768.01182617,0.00076798
4769.94063354,0.00078752
4771.86944092,0.00074033
4773.79824829,0.00071901
4775.72705566,0.00070792
4777.65586304,0.00078599
4779.58467041,0.00074182
4781.51347778,0.00068374
4783.44228516,0.00071015
4785.37109253,0.00069496
4787.29989990,0.00070495
4789.22870728,0.00067814
4791.15751465,0.00069291
4793.08632202,0.00070096
4795.01512939,0.00067828
4796.94393677,0.00070842
4798.87274414,0.00070682
4800.80155151,0.00066905
4802.73035889,0.00066058
4804.65916626,0.00067748
4806.58797363,0.00065522
4808.51678101,0.00072845
4810.44558838,0.00076484
4812.37439575,0.00068296
4814.30320312,0.00065050
4816.23201050,0.00061427
4818.16081787,0.00068591
4820.08962524,0.00069546
4822.01843262,0.00063389
4823.94723999,0.00070196
4825.87604736,0.00068702
4827.80485474,0.00063121
4829.73366211,0.00063915
4831.66246948,0.00067861
4833.59127686,0.00067508
4835.52008423,0.00068945
4837.44889160,0.00070449
4839.37769897,0.00062345
4841.30650635,0.00064971
4843.23531372,0.00067894
4845.16412109,0.00066255
4847.09292847,0.00067840
4849.02173584,0.00068411
4850.95054321,0.00072747
4852.87935059,0.00070648
4854.80815796,0.00068267
4856.73696533,0.00067956
4858.66577270,0.00061291
4860.59458008,0.00059521
4862.52338745,0.00063239
4864.45219482,0.00064802
4866.38100220,0.00065654
4868.30980957,0.00066026
4870.23861694,0.00063018
4872.16742432,0.00058540
4874.09623169,0.00061325
4876.02503906,0.00069375
4877.95384644,0.00066019
4879.88265381,0.00065148
4881.81146118,0.00067698
4883.74026855,0.00061510
4885.66907593,0.00060456
4887.59788330,0.00060115
4889.52669067,0.00063603
4891.45549805,0.00058504
4893.38430542,0.00056273
4895.31311279,0.00069150
4897.24192017,0.00062121
4899.17072754,0.00057839
4901.09953491,0.00057150
4903.02834228,0.00057525
4904.95714966,0.00063813
4906.88595703,0.00058370
4908.81476440,0.00063752
4910.74357178,0.00062532
4912.67237915,0.00059746
4914.60118652,0.00064202
4916.52999390,0.00058142
4918.45880127,0.00065888
4920.38760864,0.00067593
4922.31641602,0.00058055
4924.24522339,0.00061782
4926.17403076,0.00064038
4928.10283813,0.00061802
4930.03164551,0.00060079
4931.96045288,0.00055235
4933.88926025,0.00054165
4935.81806763,0.00061671
4937.74687500,0.00062800
4939.67568237,0.00054246
4941.60448975,0.00057178
4943.53329712,0.00063162
4945.46210449,0.00057742
4947.39091187,0.00061497
4949.31971924,0.00061802
4951.24852661,0.00054915
4953.17733398,0.00058995
4955.10614136,0.00054487
4957.03494873,0.00057494
4958.96375610,0.00068666
4960.89256348,0.00061681
4962.82137085,0.00058151
4964.75017822,0.00062988
4966.67898560,0.00062686
4968.60779297,0.00056491
4970.53660034,0.00053942
4972.46540771,0.00054592
4974.39421509,0.00050584
4976.32302246,0.00052363
4978.25182983,0.00053023
4980.18063721,0.00053347
4982.10944458,0.00062730
4984.03825195,0.00065076
4985.96705933,0.00061949
4987.89586670,0.00053390
4989.82467407,0.00049244
4991.75348145,0.00060250
4993.68228882,0.00057824
4995.61109619,0.00056049
4997.53990356,0.00059975
4999.46871094,0.00049896
5001.39751831,0.00051161
5003.32632568,0.00059755
5005.25513306,0.00057339
5007.18394043,0.00052150
5009.11274780,0.00057326
5011.04155518,0.00059416
5012.97036255,0.00053811
5014.89916992,0.00060783
5016.82797729,0.00057218
5018.75678467,0.00051444
5020.68559204,0.00062289
5022.61439941,0.00060291
5024.54320679,0.00051632
5026.47201416,0.00056172
5028.40082153,0.00054272
5030.32962891,0.00045862
5032.25843628,0.00050670
5034.18724365,0.00049048
5036.11605103,0.00053858
5038.04485840,0.00061722
5039.97366577,0.00050817
5041.90247314,0.00053464
5043.83128052,0.00052084
5045.76008789,0.00043299
5047.68889526,0.00048353
5049.61770264,0.00051041
5051.54651001,0.00049832
5053.47531738,0.00049291
5055.40412476,0.00048423
5057.33293213,0.00048180
5059.26173950,0.00053051
5061.19054687,0.00050879
5063.11935425,0.00051347
5065.04816162,0.00056378
5066.97696899,0.00049675
5068.90577637,0.00050250
5070.83458374,0.00049872
5072.76339111,0.00046122
5074.69219849,0.00050482
5076.62100586,0.00050979
5078.54981323,0.00049800
5080.47862061,0.00046020
5082.40742798,0.00042987
5084.33623535,0.00047731
5086.26504272,0.00045183
5088.19385010,0.00047275
5090.12265747,0.00054753
5092.05146484,0.00050863
5093.98027222,0.00053661
5095.90907959,0.00050208
5097.83788696,0.00050835
5099.76669434,0.00053221
5101.69550171,0.00047623
5103.62430908,0.00056057
5105.55311645,0.00044380
5107.48192383,0.00044501
5109.41073120,0.00050124
5111.33953857,0.00043174
5113.26834595,0.00052511
5115.19715332,0.00044166
5117.12596069,0.00051512
5119.05476807,0.00049829
5120.98357544,0.00038594
5122.91238281,0.00048490
5124.84119019,0.00042325
5126.76999756,0.00052161
5128.69880493,0.00054309
5130.62761230,0.00053449
5132.55641968,0.00056185
5134.48522705,0.00043195
5136.41403442,0.00041933
5138.34284180,0.00037755
5140.27164917,0.00047146
5142.20045654,0.00049076
5144.12926392,0.00041762
5146.05807129,0.00051304
5147.98687866,0.00050150
5149.91568603,0.00049279
5151.84449341,0.00048114
5153.77330078,0.00044264
5155.70210815,0.00041415
5157.63091553,0.00037459
5159.55972290,0.00044069
5161.48853027,0.00052288
5163.41733765,0.00049625
5165.34614502,0.00043580
5167.27495239,0.00040717
5169.20375977,0.00041909
5171.13256714,0.00041650
5173.06137451,0.00041451
5174.99018188,0.00046468
5176.91898926,0.00040234
5178.84779663,0.00045591
5180.77660400,0.00047381
5182.70541138,0.00035843
5184.63421875,0.00048572
5186.56302612,0.00045682
5188.49183350,0.00039886
5190.42064087,0.00040405
5192.34944824,0.00038055
5194.27825562,0.00048560
5196.20706299,0.00044217
5198.13587036,0.00041168
5200.06467773,0.00040470
5201.99348511,0.00039786
5203.92229248,0.00041601
5205.85109985,0.00039932
5207.77990723,0.00043244
5209.70871460,0.00042096
5211.63752197,0.00043716
5213.56632935,0.00043667
5215.49513672,0.00041482
5217.42394409,0.00039674
5219.35275146,0.00038361
5221.28155884,0.00038699
5223.21036621,0.00041272
5225.13917358,0.00043019
5227.06798096,0.00041103
5228.99678833,0.00050463
5230.92559570,0.00045259
5232.85440308,0.00039810
5234.78321045,0.00045134
5236.71201782,0.00041064
5238.64082520,0.00040203
5240.56963257,0.00039012
5242.49843994,0.00041560
5244.42724731,0.00033517
5246.35605469,0.00038236
5248.28486206,0.00048384
5250.21366943,0.00042304
5252.14247681,0.00046441
5254.07128418,0.00034792
5256.00009155,0.00034326
5257.92889893,0.00038777
5259.85770630,0.00031620
5261.78651367,0.00038752
5263.71532104,0.00038015
5265.64412842,0.00038889
5267.57293579,0.00038633
5269.50174316,0.00034613
5271.43055054,0.00033232
5273.35935791,0.00035296
5275.28816528,0.00034248
5277.21697266,0.00032530
5279.14578003,0.00044076
5281.07458740,0.00036604
5283.00339478,0.00031959
5284.93220215,0.00039039
5286.86100952,0.00036620
5288.78981689,0.00039843
5290.71862427,0.00041498
5292.64743164,0.00043343
5294.57623901,0.00039138
5296.50504639,0.00038147
5298.43385376,0.00039798
5300.36266113,0.00035229
5302.29146851,0.00039072
5304.22027588,0.00034658
5306.14908325,0.00035453
5308.07789062,0.00038443
5310.00669800,0.00032500
5311.93550537,0.00039684
5313.86431274,0.00038236
5315.79312012,0.00037407
5317.72192749,0.00042895
5319.65073486,0.00035273
5321.57954224,0.00036792
5323.50834961,0.00041539
5325.43715698,0.00037793
5327.36596436,0.00030548
5329.29477173,0.00033849
5331.22357910,0.00038739
5333.15238647,0.00031185
5335.08119385,0.00039781
5337.01000122,0.00034312
5338.93880859,0.00023175
5340.86761597,0.00036318
5342.79642334,0.00033489
5344.72523071,0.00028634
5346.65403809,0.00029075
5348.58284546,0.00031424
5350.51165283,0.00039659
5352.44046020,0.00039108
5354.36926758,0.00035137
5356.29807495,0.00035893
5358.22688232,0.00034081
5360.15568970,0.00027648
5362.08449707,0.00036136
5364.01330444,0.00036679
5365.94211182,0.00035784
5367.87091919,0.00036095
5369.79972656,0.00019324
5371.72853394,0.00032747
5373.65734131,0.00038687
5375.58614868,0.00028034
5377.51495605,0.00034666
5379.44376343,0.00028175
5381.37257080,0.00033413
5383.30137817,0.00041971
5385.23018555,0.00029027
5387.15899292,0.00027702
5389.08780029,0.00036300
5391.01660767,0.00031419
5392.94541504,0.00029858
5394.87422241,0.00037254
5396.80302978,0.00036448
5398.73183716,0.00033061
5400.66064453,0.00031387
5402.58945190,0.00036433
5404.51825928,0.00035580
5406.44706665,0.00027828
5408.37587402,0.00031824
5410.30468140,0.00034911
5412.23348877,0.00034560
5414.16229614,0.00036313
5416.09110352,0.00029052
5418.01991089,0.00023711
5419.94871826,0.00033423
5421.87752563,0.00033533
5423.80633301,0.00031392
5425.73514038,0.00034561
5427.66394775,0.00033534
5429.59275513,0.00031649
5431.52156250,0.00025750
5433.45036987,0.00035769
5435.37917725,0.00034090
5437.30798462,0.00025937
5439.23679199,0.00030740
5441.16559936,0.00025831
5443.09440674,0.00032387
5445.02321411,0.00028207
5446.95202148,0.00029342
5448.88082886,0.00034806
5450.80963623,0.00022328
5452.73844360,0.00032248
5454.66725098,0.00032836
5456.59605835,0.00028430
5458.52486572,0.00031394
5460.45367310,0.00026885
5462.38248047,0.00030723
5464.31128784,0.00024759
5466.24009521,0.00021806
5468.16890259,0.00031509
5470.09770996,0.00030057
5472.02651733,0.00029808
5473.95532471,0.00034203
5475.88413208,0.00026579
5477.81293945,0.00026379
5479.74174683,0.00032133
5481.67055420,0.00029077
5483.59936157,0.00032592
5485.52816895,0.00032285
5487.45697632,0.00025265
5489.38578369,0.00025122
5491.31459106,0.00031235
5493.24339844,0.00030847
5495.17220581,0.00028625
5497.10101318,0.00030551
5499.02982056,0.00029112
5500.95862793,0.00031559
5502.88743530,0.00026573
5504.81624268,0.00027444
5506.74505005,0.00030059
5508.67385742,0.00024617
5510.60266479,0.00031431
5512.53147217,0.00028395
5514.46027954,0.00027869
5516.38908691,0.00026659
5518.31789429,0.00022055
5520.24670166,0.00031810
5522.17550903,0.00027143
5524.10431641,0.00024289
5526.03312378,0.00027021
5527.96193115,0.00024868
5529.89073853,0.00031671
5531.81954590,0.00029387
5533.74835327,0.00020932
5535.67716064,0.00030144
5537.60596802,0.00030734
5539.53477539,0.00020458
5541.46358276,0.00030379
5543.39239014,0.00027138
5545.32119751,0.00023574
5547.25000488,0.00033484
5549.17881226,0.00022930
5551.10761963,0.00020966
5553.03642700,0.00027562
5554.96523437,0.00030981
5556.89404175,0.00033387
5558.82284912,0.00027167
5560.75165649,0.00027191
5562.68046387,0.00023434
5564.60927124,0.00022790
5566.53807861,0.00032190
5568.46688599,0.00029897
5570.39569336,0.00030435
5572.32450073,0.00031936
5574.25330811,0.00028049
5576.18211548,0.00027705
5578.11092285,0.00024329
5580.03973022,0.00029862
5581.96853760,0.00028144
5583.89734497,0.00020571
5585.82615234,0.00027641
5587.75495972,0.00028245
5589.68376709,0.00028188
5591.61257446,0.00023405
5593.54138184,0.00022973
5595.47018921,0.00031346
5597.39899658,0.00024627
5599.32780395,0.00023176
5601.25661133,0.00024110
5603.18541870,0.00023968
5605.11422607,0.00026913
5607.04303345,0.00028258
5608.97184082,0.00028013
5610.90064819,0.00021783
5612.82945557,0.00025320
5614.75826294,0.00022233
5616.68707031,0.00020452
5618.61587769,0.00032085
5620.54468506,0.00029574
5622.47349243,0.00026467
5624.40229980,0.00022136
5626.33110718,0.00022431
5628.25991455,0.00030435
5630.18872192,0.00025359
5632.11752930,0.00024506
5634.04633667,0.00027544
5635.97514404,0.00025048
5637.90395142,0.00025884
5639.83275879,0.00030712
5641.76156616,0.00028096
5643.69037353,0.00018817
5645.61918091,0.00022301
5647.54798828,0.00023950
5649.47679565,0.00020746
5651.40560303,0.00023241
5653.33441040,0.00023527
5655.26321777,0.00024284
5657.19202515,0.00016560
5659.12083252,0.00018411
5661.04963989,0.00024991
5662.97844727,0.00020150
5664.90725464,0.00026982
5666.83606201,0.00025329
5668.76486938,0.00024323
5670.69367676,0.00021932
5672.62248413,0.00012782
5674.55129150,0.00019935
5676.48009888,0.00016861
5678.40890625,0.00018800
5680.33771362,0.00020413
5682.26652100,0.00017713
5684.19532837,0.00022189
5686.12413574,0.00015476
5688.05294311,0.00020802
5689.98175049,0.00024263
5691.91055786,0.00024703
5693.83936523,0.00022694
5695.76817261,0.00018825
5697.69697998,0.00025270
5699.62578735,0.00018080
5701.55459473,0.00023947
5703.48340210,0.00031356
5705.41220947,0.00024627
5707.34101685,0.00021508
5709.26982422,0.00021654
5711.19863159,0.00025608
5713.12743896,0.00018303
5715.05624634,0.00016146
5716.98505371,0.00018806
5718.91386108,0.00026559
5720.84266846,0.00026318
5722.77147583,0.00012615
5724.70028320,0.00019157
5726.62909058,0.00020212
5728.55789795,0.00022256
5730.48670532,0.00024451
5732.41551270,0.00013997
5734.34432007,0.00013831
5736.27312744,0.00014698
5738.20193481,0.00019770
5740.13074219,0.00022971
5742.05954956,0.00021467
5743.98835693,0.00021739
5745.91716431,0.00022607
5747.84597168,0.00023870
5749.77477905,0.00022723
5751.70358643,0.00023212
5753.63239380,0.00019975
5755.56120117,0.00016179
5757.49000854,0.00013744
5759.41881592,0.00022802
5761.34762329,0.00025111
5763.27643066,0.00011424
5765.20523804,0.00017359
5767.13404541,0.00023413
5769.06285278,0.00021871
5770.99166016,0.00022057
5772.92046753,0.00023987
5774.84927490,0.00027718
5776.77808228,0.00021995
5778.70688965,0.00020375
5780.63569702,0.00018790
5782.56450439,0.00020949
5784.49331177,0.00026925
5786.42211914,0.00019099
5788.35092651,0.00015203
5790.27973389,0.00021382
5792.20854126,0.00022226
5794.13734863,0.00017907
5796.06615601,0.00019131
5797.99496338,0.00020876
5799.92377075,0.00016673
5801.85257812,0.00012533
5803.78138550,0.00018021
5805.71019287,0.00022184
5807.63900024,0.00016676
5809.56780762,0.00019180
5811.49661499,0.00018985
5813.42542236,0.00018313
5815.35422974,0.00017895
5817.28303711,0.00015233
5819.21184448,0.00024416
5821.14065186,0.00021283
5823.06945923,0.00018676
5824.99826660,0.00022874
5826.92707397,0.00018494
5828.85588135,0.00015948
5830.78468872,0.00010020
5832.71349609,0.00015320
5834.64230347,0.00020758
5836.57111084,0.00015988
5838.49991821,0.00016405
5840.42872559,0.00016185
5842.35753296,0.00019219
5844.28634033,0.00019133
5846.21514770,0.00018174
5848.14395508,0.00017939
5850.07276245,0.00017222
5852.00156982,0.00022526
5853.93037720,0.00019707
5855.85918457,0.00018199
5857.78799194,0.00022543
5859.71679932,0.00019377
5861.64560669,0.00015097
5863.57441406,0.00020211
5865.50322144,0.00019866
5867.43202881,0.00013490
5869.36083618,0.00021731
5871.28964355,0.00019344
5873.21845093,0.00014429
5875.14725830,0.00021331
5877.07606567,0.00019199
5879.00487305,0.00021338
5880.93368042,0.00018023
5882.86248779,0.00012098
5884.79129517,0.00015982
5886.72010254,0.00017270
5888.64890991,0.00021064
5890.57771728,0.00018082
5892.50652466,0.00015250
5894.43533203,0.00020566
5896.36413940,0.00018702
5898.29294678,0.00015396
5900.22175415,0.00015647
5902.15056152,0.00014123
5904.07936890,0.00011989
5906.00817627,0.00018006
5907.93698364,0.00022011
5909.86579102,0.00013131
5911.79459839,0.00014177
5913.72340576,0.00021534
5915.65221313,0.00012661
5917.58102051,0.00010484
5919.50982788,0.00020989
5921.43863525,0.00021295
5923.36744263,0.00018487
5925.29625000,0.00015464
5927.22505737,0.00016410
5929.15386475,0.00018073
5931.08267212,0.00011453
5933.01147949,0.00015490
5934.94028686,0.00019867
5936.86909424,0.00015199
5938.79790161,0.00007848
5940.72670898,0.00003477
5942.65551636,0.00013995
5944.58432373,0.00019591
5946.51313110,0.00015628
5948.44193848,0.00016333
5950.37074585,0.00017081
5952.29955322,0.00008890
5954.22836060,0.00008817
5956.15716797,0.00021055
5958.08597534,0.00015921
5960.01478271,0.00016066
5961.94359009,0.00020840
5963.87239746,0.00011269
5965.80120483,0.00013129
5967.73001221,0.00012597
5969.65881958,0.00013180
5971.58762695,0.00017407
5973.51643433,0.00012236
5975.44524170,0.00017068
5977.37404907,0.00017995
5979.30285645,0.00015708
5981.23166382,0.00015474
5983.16047119,0.00011791
5985.08927856,0.00015475
5987.01808594,0.00009226
5988.94689331,0.00009098
5990.87570068,0.00016699
5992.80450806,0.00010605
5994.73331543,0.00011622
5996.66212280,0.00012000
5998.59093018,0.00013847
6000.51973755,0.00016322
