399.26312622,0.00068590
401.19193359,0.00002242
403.12074097,0.00008408
405.04954834,0.00011636
406.97835571,0.00035881
408.90716309,0.00012578
410.83597046,0.00020638
412.76477783,0.00058720
414.69358521,0.00025769
416.62239258,0.00012352
418.55119995,0.00012970
420.48000732,0.00036256
422.40881470,0.00012819
424.33762207,0.00006372
426.26642944,0.00024702
428.19523682,0.00025756
430.12404419,0.00052265
432.05285156,0.00017466
433.98165894,0.00022322
435.91046631,0.00038387
437.83927368,0.00015059
439.76808105,0.00028641
441.69688843,0.00017014
443.62569580,0.00002556
445.55450317,0.00013210
447.48331055,0.00023838
449.41211792,0.00023707
451.34092529,0.00029788
453.26973267,0.00036649
455.19854004,0.00026435
457.12734741,0.00012558
459.05615479,0.00002072
460.98496216,0.00001561
462.91376953,-0.00007296
464.84257690,0.00027627
466.77138428,0.00044201
468.70019165,0.00010302
470.62899902,0.00021729
472.55780640,0.00013031
474.48661377,0.00032243
476.41542114,0.00023614
478.34422852,0.00005606
480.27303589,0.00023201
482.20184326,0.00011130
484.13065063,0.00003521
486.05945801,-0.00055106
487.98826538,-0.00021021
489.91707275,0.00033390
491.84588013,0.00004975
493.77468750,0.00037658
495.70349487,0.00047522
497.63230225,0.00010733
499.56110962,-0.00036245
501.48991699,-0.00011139
503.41872437,0.00026890
505.34753174,0.00005122
507.27633911,0.00038188
509.20514648,0.00005270
511.13395386,-0.00013661
513.06276123,0.00041297
514.99156860,-0.00008774
516.92037598,0.00003966
518.84918335,0.00021403
520.77799072,-0.00009209
522.70679810,0.00007298
524.63560547,0.00006552
526.56441284,0.00030014
528.49322021,0.00021380
530.42202759,0.00006198
532.35083496,0.00028046
534.27964233,0.00017629
536.20844971,0.00038464
538.13725708,0.00035964
540.06606445,0.00000617
541.99487183,0.00044679
543.92367920,0.00009170
545.85248657,-0.00029723
547.78129395,0.00027339
549.71010132,0.00043200
551.63890869,0.00040504
553.56771606,-0.00002868
555.49652344,-0.00005127
557.42533081,0.00036144
559.35413818,-0.00000620
561.28294556,0.00038113
563.21175293,0.00049029
565.14056030,0.00017342
567.06936768,0.00078411
568.99817505,0.00013529
570.92698242,-0.00028205
572.85578979,0.00034494
574.78459717,0.00031014
576.71340454,0.00033719
578.64221191,-0.00001524
580.57101929,0.00007554
582.49982666,0.00060118
584.42863403,0.00016752
586.35744141,-0.00001290
588.28624878,0.00030869
590.21505615,0.00039329
592.14386353,0.00029178
594.07267090,0.00009246
596.00147827,0.00006915
597.93028564,0.00037331
599.85909302,0.00033829
601.78790039,0.00017507
603.71670776,0.00020587
605.64551514,0.00000750
607.57432251,-0.00010791
609.50312988,-0.00017595
611.43193726,0.00017787
613.36074463,0.00047907
615.28955200,0.00007721
617.21835938,0.00014638
619.14716675,0.00020509
621.07597412,0.00005920
623.00478149,-0.00002824
624.93358887,0.00004094
626.86239624,0.00048435
628.79120361,0.00049211
630.72001099,0.00040435
632.64881836,0.00026641
634.57762573,0.00027652
636.50643311,0.00021524
638.43524048,0.00005426
640.36404785,0.00038456
642.29285522,0.00060745
644.22166260,0.00044387
646.15046997,-0.00001459
648.07927734,0.00017043
650.00808472,0.00052951
651.93689209,0.00036941
653.86569946,0.00017691
655.79450684,0.00047988
657.72331421,0.00047189
659.65212158,0.00023401
661.58092896,0.00059746
663.50973633,0.00052449
665.43854370,0.00073177
667.36735107,0.00034415
669.29615845,0.00017984
671.22496582,0.00100254
673.15377319,0.00052014
675.08258057,0.00065947
677.01138794,0.00070060
678.94019531,0.00041848
680.86900269,0.00074625
682.79781006,0.00050062
684.72661743,0.00036282
686.65542480,0.00028866
688.58423218,0.00065502
690.51303955,0.00078726
692.44184692,0.00076201
694.37065430,0.00061610
696.29946167,0.00073739
698.22826904,0.00135075
700.15707642,0.00062350
702.08588379,0.00063828
704.01469116,0.00088422
705.94349854,0.00067091
707.87230591,0.00082903
709.80111328,0.00044752
711.72992065,0.00045821
713.65872803,0.00016327
715.58753540,0.00017911
717.51634277,0.00025034
719.44515015,0.00010882
721.37395752,0.00056049
723.30276489,0.00006923
725.23157227,-0.00015722
727.16037964,0.00020152
729.08918701,0.00033298
731.01799438,0.00037727
732.94680176,0.00016553
734.87560913,0.00009671
736.80441650,0.00004509
738.73322388,0.00006853
740.66203125,0.00011043
742.59083862,0.00008498
744.51964600,0.00028626
746.44845337,0.00026922
748.37726074,0.00012765
750.30606812,0.00038722
752.23487549,0.00014700
754.16368286,0.00008813
756.09249023,0.00027991
758.02129761,0.00010861
759.95010498,0.00052107
761.87891235,0.00028807
763.80771973,0.00014447
765.73652710,0.00035349
767.66533447,0.00007783
769.59414185,0.00044955
771.52294922,0.00020450
773.45175659,-0.00003335
775.38056396,0.00014713
777.30937134,-0.00004357
779.23817871,0.00018859
781.16698608,0.00023447
783.09579346,0.00040248
785.02460083,0.00029677
786.95340820,-0.00009827
788.88221558,0.00027194
790.81102295,0.00042225
792.73983032,0.00000778
794.66863770,0.00004432
796.59744507,0.00038584
798.52625244,0.00028239
800.45505981,0.00041429
802.38386719,0.00039367
804.31267456,-0.00000385
806.24148193,0.00023374
808.17028931,0.00037317
810.09909668,0.00022023
812.02790405,0.00033555
813.95671143,0.00039414
815.88551880,0.00033140
817.81432617,0.00002716
819.74313354,-0.00003483
821.67194092,0.00030377
823.60074829,0.00034128
825.52955566,0.00044656
827.45836304,0.00036202
829.38717041,0.00013288
831.31597778,0.00024630
833.24478516,0.00024244
835.17359253,0.00024531
837.10239990,0.00016867
839.03120728,0.00035833
840.96001465,0.00030278
842.88882202,0.00006174
844.81762939,0.00044085
846.74643677,0.00037722
848.67524414,0.00045888
850.60405151,0.00040464
852.53285889,-0.00001406
854.46166626,0.00008336
856.39047363,0.00013930
858.31928101,0.00032685
860.24808838,0.00045507
862.17689575,0.00057521
864.10570313,0.00051935
866.03451050,0.00027432
867.96331787,0.00016288
869.89212524,0.00022475
871.82093262,0.00040867
873.74973999,0.00022017
875.67854736,0.00049036
877.60735474,0.00048692
879.53616211,0.00018534
881.46496948,0.00037893
883.39377686,0.00039679
885.32258423,0.00041575
887.25139160,0.00018726
889.18019897,0.00016471
891.10900635,0.00025413
893.03781372,0.00028820
894.96662109,0.00034252
896.89542847,0.00032181
898.82423584,0.00054244
900.75304321,0.00020497
902.68185059,0.00016453
904.61065796,0.00036378
906.53946533,0.00017301
908.46827271,0.00040319
910.39708008,0.00055126
912.32588745,0.00049910
914.25469482,0.00046617
916.18350220,0.00058695
918.11230957,0.00063827
920.04111694,0.00035392
921.96992432,0.00021723
923.89873169,0.00036182
925.82753906,0.00030071
927.75634644,0.00025318
929.68515381,0.00058847
931.61396118,0.00050548
933.54276855,0.00025534
935.47157593,0.00042361
937.40038330,0.00066213
939.32919067,0.00048292
941.25799805,0.00029625
943.18680542,0.00051930
945.11561279,0.00042355
947.04442017,0.00032281
948.97322754,0.00045384
950.90203491,0.00051251
952.83084229,0.00050841
954.75964966,0.00061543
956.68845703,0.00071669
958.61726440,0.00055545
960.54607178,0.00051012
962.47487915,0.00054617
964.40368652,0.00063741
966.33249390,0.00051833
968.26130127,0.00048698
970.19010864,0.00060320
972.11891602,0.00042992
974.04772339,0.00057586
975.97653076,0.00067573
977.90533813,0.00066342
979.83414551,0.00080728
981.76295288,0.00081769
983.69176025,0.00085763
985.62056763,0.00092805
987.54937500,0.00084313
989.47818237,0.00095866
991.40698975,0.00126654
993.33579712,0.00118303
995.26460449,0.00132803
997.19341187,0.00151907
999.12221924,0.00147787
1001.05102661,0.00178506
1002.97983398,0.00186068
1004.90864136,0.00176076
1006.83744873,0.00190626
1008.76625610,0.00203918
1010.69506348,0.00207897
1012.62387085,0.00230283
1014.55267822,0.00246254
1016.48148560,0.00259880
1018.41029297,0.00288622
1020.33910034,0.00287948
1022.26790771,0.00293874
1024.19671509,0.00294608
1026.12552246,0.00318177
1028.05432983,0.00333590
1029.98313721,0.00298677
1031.91194458,0.00332054
1033.84075195,0.00351120
1035.76955933,0.00355420
1037.69836670,0.00372953
1039.62717407,0.00346783
1041.55598145,0.00352547
1043.48478882,0.00349208
1045.41359619,0.00347112
1047.34240356,0.00356342
1049.27121094,0.00333301
1051.20001831,0.00330833
1053.12882568,0.00339044
1055.05763306,0.00335737
1056.98644043,0.00327074
1058.91524780,0.00314211
1060.84405518,0.00305470
1062.77286255,0.00304498
1064.70166992,0.00291928
1066.63047729,0.00289064
1068.55928467,0.00276612
1070.48809204,0.00238042
1072.41689941,0.00242427
1074.34570679,0.00243359
1076.27451416,0.00236297
1078.20332153,0.00229625
1080.13212891,0.00215508
1082.06093628,0.00226292
1083.98974365,0.00207536
1085.91855103,0.00191902
1087.84735840,0.00177469
1089.77616577,0.00169114
1091.70497314,0.00191016
1093.63378052,0.00181053
1095.56258789,0.00171700
1097.49139526,0.00156476
1099.42020264,0.00153847
1101.34901001,0.00155647
1103.27781738,0.00130246
1105.20662476,0.00146935
1107.13543213,0.00153317
1109.06423950,0.00145186
1110.99304687,0.00152495
1112.92185425,0.00144760
1114.85066162,0.00151651
1116.77946899,0.00142942
1118.70827637,0.00134836
1120.63708374,0.00150976
1122.56589111,0.00133948
1124.49469849,0.00132141
1126.42350586,0.00148124
1128.35231323,0.00146444
1130.28112061,0.00168819
1132.20992798,0.00166334
1134.13873535,0.00157363
1136.06754272,0.00189894
1137.99635010,0.00193125
1139.92515747,0.00203318
1141.85396484,0.00219126
1143.78277222,0.00197455
1145.71157959,0.00206197
1147.64038696,0.00215294
1149.56919434,0.00228931
1151.49800171,0.00261470
1153.42680908,0.00266685
1155.35561646,0.00281632
1157.28442383,0.00279978
1159.21323120,0.00278725
1161.14203857,0.00294139
1163.07084595,0.00295666
1164.99965332,0.00336651
1166.92846069,0.00346433
1168.85726807,0.00316434
1170.78607544,0.00347533
1172.71488281,0.00366197
1174.64369019,0.00364997
1176.57249756,0.00401192
1178.50130493,0.00402301
1180.43011230,0.00396905
1182.35891968,0.00443883
1184.28772705,0.00471595
1186.21653442,0.00470185
1188.14534180,0.00495613
1190.07414917,0.00514896
1192.00295654,0.00517545
1193.93176392,0.00574206
1195.86057129,0.00601248
1197.78937866,0.00591985
1199.71818604,0.00642709
1201.64699341,0.00677351
1203.57580078,0.00705389
1205.50460815,0.00727774
1207.43341553,0.00744917
1209.36222290,0.00795860
1211.29103027,0.00808623
1213.21983765,0.00813409
1215.14864502,0.00840367
1217.07745239,0.00867634
1219.00625977,0.00877598
1220.93506714,0.00886194
1222.86387451,0.00914392
1224.79268188,0.00906473
1226.72148926,0.00893437
1228.65029663,0.00911202
1230.57910400,0.00931675
1232.50791138,0.00921425
1234.43671875,0.00912659
1236.36552612,0.00936111
1238.29433350,0.00935272
1240.22314087,0.00924042
1242.15194824,0.00923705
1244.08075562,0.00926823
1246.00956299,0.00914183
1247.93837036,0.00897639
1249.86717773,0.00899234
1251.79598511,0.00893642
1253.72479248,0.00895248
1255.65359985,0.00885569
1257.58240723,0.00857674
1259.51121460,0.00843744
1261.44002197,0.00864443
1263.36882935,0.00866664
1265.29763672,0.00834932
1267.22644409,0.00832258
1269.15525146,0.00807604
1271.08405884,0.00793238
1273.01286621,0.00793481
1274.94167358,0.00775352
1276.87048096,0.00772786
1278.79928833,0.00742308
1280.72809570,0.00731395
1282.65690308,0.00729120
1284.58571045,0.00711313
1286.51451782,0.00699039
1288.44332520,0.00678930
1290.37213257,0.00684197
1292.30093994,0.00675503
1294.22974731,0.00661563
1296.15855469,0.00658758
1298.08736206,0.00670205
1300.01616943,0.00682563
1301.94497681,0.00660957
1303.87378418,0.00658403
1305.80259155,0.00676784
1307.73139893,0.00704958
1309.66020630,0.00697817
1311.58901367,0.00704960
1313.51782104,0.00748074
1315.44662842,0.00738801
1317.37543579,0.00758335
1319.30424316,0.00774305
1321.23305054,0.00787495
1323.16185791,0.00840664
1325.09066528,0.00859123
1327.01947266,0.00881470
1328.94828003,0.00902637
1330.87708740,0.00933632
1332.80589478,0.00960800
1334.73470215,0.00948184
1336.66350952,0.00957016
1338.59231689,0.00962043
1340.52112427,0.00969322
1342.44993164,0.01016319
1344.37873901,0.01039989
1346.30754639,0.01028233
1348.23635376,0.01022386
1350.16516113,0.01017890
1352.09396851,0.01024079
1354.02277588,0.01017260
1355.95158325,0.00998634
1357.88039062,0.01004909
1359.80919800,0.00984965
1361.73800537,0.00953864
1363.66681274,0.00954475
1365.59562012,0.00965489
1367.52442749,0.00964987
1369.45323486,0.00969271
1371.38204224,0.00964792
1373.31084961,0.00926438
1375.23965698,0.00913253
1377.16846436,0.00924321
1379.09727173,0.00938871
1381.02607910,0.00937246
1382.95488647,0.00944127
1384.88369385,0.00945812
1386.81250122,0.00901154
1388.74130859,0.00930328
1390.67011597,0.00992629
1392.59892334,0.00978483
1394.52773071,0.00927899
1396.45653809,0.00940046
1398.38534546,0.00951806
1400.31415283,0.00956621
1402.24296021,0.01027233
1404.17176758,0.00980571
1406.10057495,0.00977077
1408.02938232,0.01014380
1409.95818970,0.00973238
1411.88699707,0.00992284
1413.81580444,0.00961418
1415.74461182,0.00985244
1417.67341919,0.00904579
1419.60222656,0.00800159
1421.53103394,0.00924529
1423.45984131,0.00910347
1425.38864868,0.00869340
1427.31745605,0.00880907
1429.24626343,0.00823181
1431.17507080,0.00800243
1433.10387817,0.00806911
1435.03268555,0.00731488
1436.96149292,0.00648104
1438.89030029,0.00746958
1440.81910767,0.00735933
1442.74791504,0.00681145
1444.67672241,0.00732595
1446.60552979,0.00675448
1448.53433716,0.00671884
1450.46314453,0.00697503
1452.39195190,0.00724708
1454.32075928,0.00732883
1456.24956665,0.00611367
1458.17837402,0.00662438
1460.10718140,0.00849182
1462.03598877,0.00888690
1463.96479614,0.00899075
1465.89360352,0.00930920
1467.82241089,0.01049567
1469.75121826,0.01130492
1471.68002563,0.00995687
1473.60883301,0.01061662
1475.53764038,0.01214102
1477.46644775,0.01277799
1479.39525513,0.01403043
1481.32406250,0.01420384
1483.25286987,0.01517975
1485.18167725,0.01574677
1487.11048462,0.01545036
1489.03929199,0.01549246
1490.96809937,0.01553896
1492.89690674,0.01786053
1494.82571411,0.01734216
1496.75452148,0.01576561
1498.68332886,0.01785203
1500.61213623,0.01841268
1502.54094360,0.01973771
1504.46975098,0.01826428
1506.39855835,0.01366365
1508.32736572,0.01686561
1510.25617310,0.01930248
1512.18498047,0.01889652
1514.11378784,0.02025955
1516.04259521,0.01835257
1517.97140259,0.01936793
1519.90020996,0.01842124
1521.82901733,0.01636436
1523.75782471,0.01984173
1525.68663208,0.01925670
1527.61543945,0.01953988
1529.54424683,0.02129386
1531.47305420,0.02042434
1533.40186157,0.01905593
1535.33066895,0.02009284
1537.25947632,0.02121982
1539.18828369,0.01542508
1541.11709106,0.01637857
1543.04589844,0.01925682
1544.97470581,0.01851471
1546.90351318,0.02178421
1548.83232056,0.02036471
1550.76112793,0.02128667
1552.68993530,0.02095562
1554.61874268,0.01911922
1556.54755005,0.02034721
1558.47635742,0.01470913
1560.40516479,0.01636821
1562.33397217,0.02219594
1564.26277954,0.02089601
1566.19158691,0.02176073
1568.12039429,0.02138126
1570.04920166,0.01912430
1571.97800903,0.02183867
1573.90681641,0.02207876
1575.83562378,0.01796933
1577.76443115,0.02013074
1579.69323853,0.02238652
1581.62204590,0.02141093
1583.55085327,0.02210427
1585.47966064,0.02186497
1587.40846802,0.02184463
1589.33727539,0.02174924
1591.26608276,0.02184911
1593.19489014,0.02178873
1595.12369751,0.02158233
1597.05250488,0.02182505
1598.98131226,0.02179431
1600.91011963,0.02194578
1602.83892700,0.02157966
1604.76773437,0.02208951
1606.69654175,0.02165164
1608.62534912,0.02161452
1610.55415649,0.02161479
1612.48296387,0.02177196
1614.41177124,0.02196820
1616.34057861,0.01818286
1618.26938599,0.01984378
1620.19819336,0.02265741
1622.12700073,0.02051150
1624.05580811,0.02070314
1625.98461548,0.02152915
1627.91342285,0.02148827
1629.84223022,0.02098400
1631.77103760,0.02255690
1633.69984497,0.02087696
1635.62865234,0.01751808
1637.55745972,0.02059498
1639.48626709,0.02213938
1641.41507446,0.02166072
1643.34388184,0.02227603
1645.27268921,0.02006164
1647.20149658,0.01790849
1649.13030396,0.02192153
1651.05911133,0.02060831
1652.98791870,0.01399631
1654.91672607,0.01890128
1656.84553345,0.02277439
1658.77434082,0.02180107
1660.70314819,0.02246542
1662.63195557,0.02056457
1664.56076294,0.02187888
1666.48957031,0.02318441
1668.41837769,0.02042737
1670.34718506,0.02001567
1672.27599243,0.02242446
1674.20479980,0.02084322
1676.13360718,0.02025459
1678.06241455,0.02289394
1679.99122192,0.02197847
1681.92002930,0.02193666
1683.84883667,0.01785119
1685.77764404,0.01803063
1687.70645142,0.02406574
1689.63525879,0.02084717
1691.56406616,0.02324437
1693.49287354,0.02322739
1695.42168091,0.01749104
1697.35048828,0.02146218
1699.27929565,0.01894888
1701.20810303,0.01742905
1703.13691040,0.02265461
1705.06571777,0.02109285
1706.99452515,0.02152448
1708.92333252,0.02296371
1710.85213989,0.02206483
1712.78094727,0.02244304
1714.70975464,0.02107348
1716.63856201,0.01902733
1718.56736938,0.01889982
1720.49617676,0.02207224
1722.42498413,0.02269746
1724.35379150,0.02128389
1726.28259888,0.02285652
1728.21140625,0.02147077
1730.14021362,0.02172048
1732.06902100,0.02092277
1733.99782837,0.01647009
1735.92663574,0.02017619
1737.85544312,0.02203975
1739.78425049,0.01972447
1741.71305786,0.02148184
1743.64186523,0.02180732
1745.57067261,0.02180521
1747.49947998,0.02214564
1749.42828735,0.02094720
1751.35709473,0.02014612
1753.28590210,0.02244116
1755.21470947,0.02316800
1757.14351685,0.02146600
1759.07232422,0.02338144
1761.00113159,0.02200672
1762.92993896,0.02153266
1764.85874634,0.02422748
1766.78755371,0.02207806
1768.71636108,0.02232395
1770.64516846,0.02205434
1772.57397583,0.01993881
1774.50278320,0.02212414
1776.43159058,0.02340487
1778.36039795,0.02304531
1780.28920532,0.02279012
1782.21801270,0.02299657
1784.14682007,0.02301428
1786.07562744,0.02263657
1788.00443481,0.02379609
1789.93324219,0.02318552
1791.86204956,0.02107071
1793.79085693,0.02197678
1795.71966431,0.02337114
1797.64847168,0.02327768
1799.57727905,0.02290026
1801.50608643,0.02239108
1803.43489380,0.02321103
1805.36370117,0.02368177
1807.29250854,0.02359856
1809.22131592,0.02358942
1811.15012329,0.02292865
1813.07893066,0.02368207
1815.00773804,0.02369734
1816.93654541,0.02349762
1818.86535278,0.02370136
1820.79416016,0.02368071
1822.72296753,0.02391306
1824.65177490,0.02256407
1826.58058228,0.02339034
1828.50938965,0.02323914
1830.43819702,0.02211558
1832.36700439,0.02391144
1834.29581177,0.02363619
1836.22461914,0.02362067
1838.15342651,0.02360922
1840.08223389,0.02388310
1842.01104126,0.02376170
1843.93984863,0.02109935
1845.86865601,0.02243041
1847.79746338,0.02373107
1849.72627075,0.02331227
1851.65507812,0.02393430
1853.58388550,0.02352345
1855.51269287,0.02380648
1857.44150024,0.02377556
1859.37030762,0.02366481
1861.29911499,0.02376154
1863.22792236,0.02349556
1865.15672974,0.02370284
1867.08553711,0.02299416
1869.01434448,0.02216049
1870.94315186,0.02287296
1872.87195923,0.02368876
1874.80076660,0.02337438
1876.72957397,0.02360343
1878.65838135,0.02350778
1880.58718872,0.02322911
1882.51599609,0.02359825
1884.44480347,0.02313864
1886.37361084,0.02352501
1888.30241821,0.02312186
1890.23122559,0.02260165
1892.16003296,0.02361518
1894.08884033,0.02310989
1896.01764771,0.02315392
1897.94645508,0.02339994
1899.87526245,0.02311513
1901.80406982,0.02343664
1903.73287720,0.02306767
1905.66168457,0.02325900
1907.59049194,0.02311259
1909.51929932,0.02295195
1911.44810669,0.02319994
1913.37691406,0.02300022
1915.30572144,0.02333742
1917.23452881,0.02241833
1919.16333618,0.02249949
1921.09214355,0.02332686
1923.02095093,0.02249725
1924.94975830,0.02305349
1926.87856567,0.02327795
1928.80737305,0.02302588
1930.73618042,0.02314736
1932.66498779,0.02289217
1934.59379517,0.02324074
1936.52260254,0.02297583
1938.45140991,0.02316805
1940.38021729,0.02315415
1942.30902466,0.02250443
1944.23783203,0.02289717
1946.16663940,0.02298769
1948.09544678,0.02310297
1950.02425415,0.02326355
1951.95306152,0.02317948
1953.88186890,0.02304394
1955.81067627,0.02298898
1957.73948364,0.02323418
1959.66829102,0.02309173
1961.59709839,0.02307306
1963.52590576,0.02298642
1965.45471313,0.02282732
1967.38352051,0.02286805
1969.31232788,0.02291843
1971.24113525,0.02307602
1973.16994263,0.02304991
1975.09875000,0.02304168
1977.02755737,0.02303466
1978.95636475,0.02315481
1980.88517212,0.02303572
1982.81397949,0.02295904
1984.74278687,0.02308818
1986.67159424,0.02279272
1988.60040161,0.02287845
1990.52920898,0.02272039
1992.45801636,0.02253158
1994.38682373,0.02289093
1996.31563110,0.02276403
1998.24443848,0.02271939
2000.17324585,0.02274840
2002.10205322,0.02260385
2004.03086060,0.02281758
2005.95966797,0.02286421
2007.88847534,0.02265108
2009.81728271,0.02269991
2011.74609009,0.02260925
2013.67489746,0.02250170
2015.60370483,0.02252235
2017.53251221,0.02231322
2019.46131958,0.02231933
2021.39012695,0.02238077
2023.31893433,0.02242506
2025.24774170,0.02243649
2027.17654907,0.02236235
2029.10535645,0.02237019
2031.03416382,0.02227756
2032.96297119,0.02234954
2034.89177856,0.02215507
2036.82058594,0.02203920
2038.74939331,0.02219963
2040.67820068,0.02207410
2042.60700806,0.02213481
2044.53581543,0.02207056
2046.46462280,0.02209061
2048.39343018,0.02205409
2050.32223755,0.02179137
2052.25104492,0.02189873
2054.17985229,0.02179874
2056.10865967,0.02189103
2058.03746704,0.02199917
2059.96627441,0.02172749
2061.89508179,0.02176896
2063.82388916,0.02170514
2065.75269653,0.02170132
2067.68150391,0.02184332
2069.61031128,0.02165724
2071.53911865,0.02154187
2073.46792603,0.02164369
2075.39673340,0.02164509
2077.32554077,0.02154926
2079.25434814,0.02158310
2081.18315552,0.02148536
2083.11196289,0.02150324
2085.04077026,0.02164247
2086.96957764,0.02132712
2088.89838501,0.02131231
2090.82719238,0.02145408
2092.75599976,0.02126978
2094.68480713,0.02130550
2096.61361450,0.02127983
2098.54242187,0.02118088
2100.47122925,0.02122825
2102.40003662,0.02125296
2104.32884399,0.02122583
2106.25765137,0.02122680
2108.18645874,0.02118889
2110.11526611,0.02111904
2112.04407349,0.02119105
2113.97288086,0.02112301
2115.90168823,0.02111160
2117.83049561,0.02112056
2119.75930298,0.02097476
2121.68811035,0.02109407
2123.61691772,0.02109256
2125.54572510,0.02098016
2127.47453247,0.02101229
2129.40333984,0.02096654
2131.33214722,0.02095341
2133.26095459,0.02092773
2135.18976196,0.02083559
2137.11856934,0.02086001
2139.04737671,0.02092353
2140.97618408,0.02087865
2142.90499146,0.02088590
2144.83379883,0.02085057
2146.76260620,0.02081858
2148.69141357,0.02090634
2150.62022095,0.02087895
2152.54902832,0.02080007
2154.47783569,0.02073901
2156.40664307,0.02075509
2158.33545044,0.02078047
2160.26425781,0.02071736
2162.19306519,0.02063985
2164.12187256,0.02067451
2166.05067993,0.02076600
2167.97948730,0.02069384
2169.90829468,0.02076872
2171.83710205,0.02081584
2173.76590942,0.02066077
2175.69471680,0.02069751
2177.62352417,0.02076162
2179.55233154,0.02070745
2181.48113892,0.02060847
2183.40994629,0.02062982
2185.33875366,0.02067848
2187.26756104,0.02061272
2189.19636841,0.02058813
2191.12517578,0.02052049
2193.05398315,0.02048905
2194.98279053,0.02054596
2196.91159790,0.02059047
2198.84040527,0.02058261
2200.76921265,0.02050896
2202.69802002,0.02059253
2204.62682739,0.02057049
2206.55563477,0.02038647
2208.48444214,0.02049548
2210.41324951,0.02052708
2212.34205688,0.02052416
2214.27086426,0.02051856
2216.19967163,0.02030224
2218.12847900,0.02045664
2220.05728638,0.02048114
2221.98609375,0.02030682
2223.91490112,0.02037537
2225.84370850,0.02026067
2227.77251587,0.02030433
2229.70132324,0.02035585
2231.63013062,0.02018448
2233.55893799,0.02026431
2235.48774536,0.02033928
2237.41655273,0.02023264
2239.34536011,0.02024064
2241.27416748,0.02025419
2243.20297485,0.02018135
2245.13178223,0.02009373
2247.06058960,0.02001197
2248.98939697,0.02007576
2250.91820435,0.02006201
2252.84701172,0.02012850
2254.77581909,0.02014049
2256.70462646,0.02001137
2258.63343384,0.02014131
2260.56224121,0.02003651
2262.49104858,0.02003001
2264.41985596,0.02005080
2266.34866333,0.01992073
2268.27747070,0.02000777
2270.20627808,0.01991298
2272.13508545,0.01996121
2274.06389282,0.01995812
2275.99270020,0.01989399
2277.92150757,0.01992978
2279.85031494,0.01992596
2281.77912231,0.01998936
2283.70792969,0.01982828
2285.63673706,0.01979975
2287.56554443,0.01974108
2289.49435181,0.01976820
2291.42315918,0.01989497
2293.35196655,0.01974970
2295.28077393,0.01973518
2297.20958130,0.01969300
2299.13838867,0.01968061
2301.06719604,0.01948181
2302.99600342,0.01937434
2304.92481079,0.01945492
2306.85361816,0.01919962
2308.78242554,0.01913750
2310.71123291,0.01904914
2312.64004028,0.01881735
2314.56884766,0.01863763
2316.49765503,0.01851015
2318.42646240,0.01832813
2320.35526978,0.01794137
2322.28407715,0.01778895
2324.21288452,0.01765478
2326.14169189,0.01745031
2328.07049927,0.01725179
2329.99930664,0.01700803
2331.92811401,0.01704025
2333.85692139,0.01705114
2335.78572876,0.01685719
2337.71453613,0.01680972
2339.64334351,0.01684947
2341.57215088,0.01688175
2343.50095825,0.01703315
2345.42976562,0.01738461
2347.35857300,0.01807847
2349.28738037,0.01858026
2351.21618774,0.01813954
2353.14499512,0.01719420
2355.07380249,0.01667857
2357.00260986,0.01623030
2358.93141724,0.01568269
2360.86022461,0.01576783
2362.78903198,0.01586382
2364.71783936,0.01588667
2366.64664673,0.01603409
2368.57545410,0.01618224
2370.50426147,0.01666484
2372.43306885,0.01713222
2374.36187622,0.01767894
2376.29068359,0.01809775
2378.21949097,0.01846464
2380.14829834,0.01881136
2382.07710571,0.01889300
2384.00591309,0.01912303
2385.93472046,0.01909012
2387.86352783,0.01908909
2389.79233521,0.01906059
2391.72114258,0.01904093
2393.64994995,0.01924398
2395.57875732,0.01902590
2397.50756470,0.01901817
2399.43637207,0.01906249
2401.36517944,0.01900659
2403.29398682,0.01910688
2405.22279419,0.01900430
2407.15160156,0.01897754
2409.08040894,0.01898406
2411.00921631,0.01886608
2412.93802368,0.01881393
2414.86683105,0.01891665
2416.79563843,0.01895636
2418.72444580,0.01890079
2420.65325317,0.01880194
2422.58206055,0.01881095
2424.51086792,0.01889543
2426.43967529,0.01882400
2428.36848267,0.01878655
2430.29729004,0.01874633
2432.22609741,0.01881947
2434.15490479,0.01876672
2436.08371216,0.01872494
2438.01251953,0.01881420
2439.94132690,0.01867629
2441.87013428,0.01874278
2443.79894165,0.01875658
2445.72774902,0.01865138
2447.65655640,0.01864067
2449.58536377,0.01870002
2451.51417114,0.01862372
2453.44297852,0.01853378
2455.37178589,0.01865737
2457.30059326,0.01849890
2459.22940063,0.01861865
2461.15820801,0.01858880
2463.08701538,0.01848802
2465.01582275,0.01873098
2466.94463013,0.01844776
2468.87343750,0.01848740
2470.80224487,0.01857820
2472.73105225,0.01839041
2474.65985962,0.01839639
2476.58866699,0.01830136
2478.51747437,0.01835165
2480.44628174,0.01841664
2482.37508911,0.01834353
2484.30389648,0.01834498
2486.23270386,0.01843824
2488.16151123,0.01830596
2490.09031860,0.01835706
2492.01912598,0.01842673
2493.94793335,0.01825671
2495.87674072,0.01841580
2497.80554810,0.01830167
2499.73435547,0.01822577
2501.66316284,0.01825725
2503.59197021,0.01817415
2505.52077759,0.01833233
2507.44958496,0.01824407
2509.37839233,0.01819791
2511.30719971,0.01819362
2513.23600708,0.01810498
2515.16481445,0.01816683
2517.09362183,0.01819416
2519.02242920,0.01815928
2520.95123657,0.01810440
2522.88004395,0.01801945
2524.80885132,0.01798844
2526.73765869,0.01807893
2528.66646606,0.01803732
2530.59527344,0.01804365
2532.52408081,0.01803947
2534.45288818,0.01796359
2536.38169556,0.01800741
2538.31050293,0.01797335
2540.23931030,0.01800187
2542.16811768,0.01801982
2544.09692505,0.01800335
2546.02573242,0.01795014
2547.95453979,0.01791998
2549.88334717,0.01788433
2551.81215454,0.01781341
2553.74096191,0.01794155
2555.66976929,0.01792834
2557.59857666,0.01784738
2559.52738403,0.01780897
2561.45619141,0.01775997
2563.38499878,0.01770333
2565.31380615,0.01775159
2567.24261353,0.01778281
2569.17142090,0.01765246
2571.10022827,0.01780214
2573.02903564,0.01768814
2574.95784302,0.01759861
2576.88665039,0.01765130
2578.81545776,0.01748734
2580.74426514,0.01767423
2582.67307251,0.01757777
2584.60187988,0.01744450
2586.53068726,0.01761093
2588.45949463,0.01764017
2590.38830200,0.01764713
2592.31710937,0.01757106
2594.24591675,0.01749163
2596.17472412,0.01750963
2598.10353149,0.01756835
2600.03233887,0.01743289
2601.96114624,0.01743878
2603.88995361,0.01749025
2605.81876099,0.01745236
2607.74756836,0.01747844
2609.67637573,0.01733270
2611.60518311,0.01741711
2613.53399048,0.01735183
2615.46279785,0.01721624
2617.39160522,0.01734181
2619.32041260,0.01734612
2621.24921997,0.01734877
2623.17802734,0.01730010
2625.10683472,0.01733134
2627.03564209,0.01727075
2628.96444946,0.01722922
2630.89325684,0.01734320
2632.82206421,0.01728512
2634.75087158,0.01716199
2636.67967895,0.01716271
2638.60848633,0.01728094
2640.53729370,0.01717304
2642.46610107,0.01708332
2644.39490845,0.01706268
2646.32371582,0.01704916
2648.25252319,0.01708165
2650.18133057,0.01705606
2652.11013794,0.01715702
2654.03894531,0.01701080
2655.96775269,0.01696377
2657.89656006,0.01704926
2659.82536743,0.01692180
2661.75417480,0.01696433
2663.68298218,0.01700064
2665.61178955,0.01697925
2667.54059692,0.01693093
2669.46940430,0.01690976
2671.39821167,0.01689765
2673.32701904,0.01687352
2675.25582642,0.01684977
2677.18463379,0.01684621
2679.11344116,0.01692009
2681.04224854,0.01676468
2682.97105591,0.01674887
2684.89986328,0.01688654
2686.82867065,0.01678249
2688.75747803,0.01664614
2690.68628540,0.01671873
2692.61509277,0.01682120
2694.54390015,0.01664974
2696.47270752,0.01667827
2698.40151489,0.01675794
2700.33032227,0.01663105
2702.25912964,0.01662988
2704.18793701,0.01660707
2706.11674438,0.01654729
2708.04555176,0.01651863
2709.97435913,0.01653550
2711.90316650,0.01655036
2713.83197388,0.01653901
2715.76078125,0.01642296
2717.68958862,0.01637304
2719.61839600,0.01652127
2721.54720337,0.01645810
2723.47601074,0.01634098
2725.40481812,0.01641661
2727.33362549,0.01654243
2729.26243286,0.01648221
2731.19124023,0.01629736
2733.12004761,0.01628858
2735.04885498,0.01632421
2736.97766235,0.01628860
2738.90646973,0.01622492
2740.83527710,0.01620502
2742.76408447,0.01618559
2744.69289185,0.01617975
2746.62169922,0.01617835
2748.55050659,0.01612855
2750.47931396,0.01614286
2752.40812134,0.01616232
2754.33692871,0.01617184
2756.26573608,0.01610963
2758.19454346,0.01607182
2760.12335083,0.01609020
2762.05215820,0.01602862
2763.98096558,0.01604055
2765.90977295,0.01608934
2767.83858032,0.01610024
2769.76738770,0.01604487
2771.69619507,0.01594298
2773.62500244,0.01593420
2775.55380981,0.01604243
2777.48261719,0.01599894
2779.41142456,0.01588149
2781.34023193,0.01597399
2783.26903931,0.01585844
2785.19784668,0.01576830
2787.12665405,0.01587104
2789.05546143,0.01575317
2790.98426880,0.01576267
2792.91307617,0.01581674
2794.84188354,0.01574764
2796.77069092,0.01576650
2798.69949829,0.01571333
2800.62830566,0.01560323
2802.55711304,0.01559507
2804.48592041,0.01562665
2806.41472778,0.01557716
2808.34353516,0.01552848
2810.27234253,0.01553288
2812.20114990,0.01546596
2814.12995728,0.01542649
2816.05876465,0.01549108
2817.98757202,0.01547587
2819.91637939,0.01544327
2821.84518677,0.01547012
2823.77399414,0.01540605
2825.70280151,0.01533130
2827.63160889,0.01529678
2829.56041626,0.01522817
2831.48922363,0.01525176
2833.41803101,0.01530437
2835.34683838,0.01522269
2837.27564575,0.01521489
2839.20445312,0.01524315
2841.13326050,0.01513638
2843.06206787,0.01500838
2844.99087524,0.01500505
2846.91968262,0.01512291
2848.84848999,0.01493851
2850.77729736,0.01480628
2852.70610474,0.01504225
2854.63491211,0.01491742
2856.56371948,0.01472759
2858.49252686,0.01480117
2860.42133423,0.01480452
2862.35014160,0.01481119
2864.27894897,0.01482216
2866.20775635,0.01482147
2868.13656372,0.01475615
2870.06537109,0.01472636
2871.99417847,0.01477721
2873.92298584,0.01471326
2875.85179321,0.01470861
2877.78060059,0.01473373
2879.70940796,0.01464625
2881.63821533,0.01466671
2883.56702270,0.01468375
2885.49583008,0.01460311
2887.42463745,0.01461476
2889.35344482,0.01455975
2891.28225220,0.01450428
2893.21105957,0.01454090
2895.13986694,0.01442457
2897.06867432,0.01442032
2898.99748169,0.01448182
2900.92628906,0.01434808
2902.85509644,0.01437918
2904.78390381,0.01441201
2906.71271118,0.01431510
2908.64151855,0.01431998
2910.57032593,0.01424485
2912.49913330,0.01417603
2914.42794067,0.01409196
2916.35674805,0.01397510
2918.28555542,0.01395666
2920.21436279,0.01391345
2922.14317017,0.01398887
2924.07197754,0.01392034
2926.00078491,0.01380123
2927.92959229,0.01398749
2929.85839966,0.01401149
2931.78720703,0.01393693
2933.71601440,0.01389165
2935.64482178,0.01389654
2937.57362915,0.01396910
2939.50243652,0.01389962
2941.43124390,0.01398964
2943.36005127,0.01398687
2945.28885864,0.01389168
2947.21766602,0.01403571
2949.14647339,0.01390192
2951.07528076,0.01383705
2953.00408813,0.01394270
2954.93289551,0.01380041
2956.86170288,0.01383737
2958.79051025,0.01379233
2960.71931763,0.01365698
2962.64812500,0.01370997
2964.57693237,0.01364657
2966.50573975,0.01365020
2968.43454712,0.01367421
2970.36335449,0.01370931
2972.29216187,0.01370921
2974.22096924,0.01364538
2976.14977661,0.01376043
2978.07858398,0.01366198
2980.00739136,0.01355203
2981.93619873,0.01365034
2983.86500610,0.01371033
2985.79381348,0.01373542
2987.72262085,0.01367607
2989.65142822,0.01370520
2991.58023560,0.01363748
2993.50904297,0.01359630
2995.43785034,0.01371728
2997.36665771,0.01359913
2999.29546509,0.01357923
3001.22427246,0.01367431
3003.15307983,0.01358093
3005.08188721,0.01356415
3007.01069458,0.01359154
3008.93950195,0.01350607
3010.86830933,0.01342753
3012.79711670,0.01340145
3014.72592407,0.01340479
3016.65473145,0.01334296
3018.58353882,0.01330185
3020.51234619,0.01334489
3022.44115356,0.01330076
3024.36996094,0.01330058
3026.29876831,0.01323956
3028.22757568,0.01322113
3030.15638306,0.01330742
3032.08519043,0.01316295
3034.01399780,0.01322783
3035.94280518,0.01325085
3037.87161255,0.01302629
3039.80041992,0.01308791
3041.72922729,0.01309117
3043.65803467,0.01301386
3045.58684204,0.01305744
3047.51564941,0.01312954
3049.44445679,0.01307470
3051.37326416,0.01288879
3053.30207153,0.01295640
3055.23087891,0.01297626
3057.15968628,0.01283494
3059.08849365,0.01285451
3061.01730103,0.01287442
3062.94610840,0.01289378
3064.87491577,0.01285733
3066.80372314,0.01277953
3068.73253052,0.01282367
3070.66133789,0.01284565
3072.59014526,0.01278283
3074.51895264,0.01273906
3076.44776001,0.01276103
3078.37656738,0.01272550
3080.30537476,0.01272534
3082.23418213,0.01272926
3084.16298950,0.01263185
3086.09179687,0.01267505
3088.02060425,0.01265002
3089.94941162,0.01255677
3091.87821899,0.01256109
3093.80702637,0.01260371
3095.73583374,0.01260651
3097.66464111,0.01243144
3099.59344849,0.01247056
3101.52225586,0.01247645
3103.45106323,0.01232019
3105.37987061,0.01247835
3107.30867798,0.01252927
3109.23748535,0.01237153
3111.16629272,0.01229081
3113.09510010,0.01228552
3115.02390747,0.01233956
3116.95271484,0.01231664
3118.88152222,0.01212621
3120.81032959,0.01211280
3122.73913696,0.01220580
3124.66794434,0.01212634
3126.59675171,0.01217756
3128.52555908,0.01203795
3130.45436645,0.01201515
3132.38317383,0.01215233
3134.31198120,0.01187557
3136.24078857,0.01192940
3138.16959595,0.01200921
3140.09840332,0.01187416
3142.02721069,0.01195323
3143.95601807,0.01191886
3145.88482544,0.01186835
3147.81363281,0.01183727
3149.74244019,0.01174072
3151.67124756,0.01173917
3153.60005493,0.01180013
3155.52886230,0.01169799
3157.45766968,0.01169217
3159.38647705,0.01172191
3161.31528442,0.01156768
3163.24409180,0.01155170
3165.17289917,0.01149679
3167.10170654,0.01153404
3169.03051392,0.01152313
3170.95932129,0.01143778
3172.88812866,0.01154808
3174.81693604,0.01134940
3176.74574341,0.01126408
3178.67455078,0.01149398
3180.60335815,0.01145785
3182.53216553,0.01128691
3184.46097290,0.01129207
3186.38978027,0.01130945
3188.31858765,0.01133563
3190.24739502,0.01140352
3192.17620239,0.01118578
3194.10500977,0.01113262
3196.03381714,0.01121715
3197.96262451,0.01116223
3199.89143188,0.01122436
3201.82023926,0.01109651
3203.74904663,0.01100030
3205.67785400,0.01104299
3207.60666138,0.01099923
3209.53546875,0.01099325
3211.46427612,0.01094034
3213.39308350,0.01091608
3215.32189087,0.01094112
3217.25069824,0.01097016
3219.17950562,0.01100864
3221.10831299,0.01097414
3223.03712036,0.01096617
3224.96592773,0.01093262
3226.89473511,0.01089653
3228.82354248,0.01092702
3230.75234985,0.01075703
3232.68115723,0.01072733
3234.60996460,0.01082142
3236.53877197,0.01070201
3238.46757935,0.01077340
3240.39638672,0.01080282
3242.32519409,0.01078922
3244.25400146,0.01080949
3246.18280884,0.01070956
3248.11161621,0.01075286
3250.04042358,0.01074435
3251.96923096,0.01076368
3253.89803833,0.01070368
3255.82684570,0.01060129
3257.75565308,0.01067482
3259.68446045,0.01064433
3261.61326782,0.01067123
3263.54207520,0.01066198
3265.47088257,0.01060851
3267.39968994,0.01059243
3269.32849731,0.01060027
3271.25730469,0.01062172
3273.18611206,0.01054542
3275.11491943,0.01060656
3277.04372681,0.01055521
3278.97253418,0.01051875
3280.90134155,0.01061826
3282.83014893,0.01050263
3284.75895630,0.01052227
3286.68776367,0.01060217
3288.61657104,0.01052924
3290.54537842,0.01048143
3292.47418579,0.01049494
3294.40299316,0.01049980
3296.33180054,0.01047166
3298.26060791,0.01051271
3300.18941528,0.01050610
3302.11822266,0.01048625
3304.04703003,0.01046597
3305.97583740,0.01039595
3307.90464478,0.01040222
3309.83345215,0.01036279
3311.76225952,0.01035662
3313.69106689,0.01035234
3315.61987427,0.01028349
3317.54868164,0.01032079
3319.47748901,0.01033962
3321.40629639,0.01038032
3323.33510376,0.01037880
3325.26391113,0.01031723
3327.19271851,0.01029330
3329.12152588,0.01028288
3331.05033325,0.01031841
3332.97914062,0.01022497
3334.90794800,0.01023482
3336.83675537,0.01024190
3338.76556274,0.01018574
3340.69437012,0.01029551
3342.62317749,0.01021130
3344.55198486,0.01013473
3346.48079224,0.01014587
3348.40959961,0.01019131
3350.33840698,0.01016929
3352.26721436,0.01007917
3354.19602173,0.01018716
3356.12482910,0.01011582
3358.05363647,0.01006008
3359.98244385,0.01009082
3361.91125122,0.01007872
3363.84005859,0.01009274
3365.76886597,0.01009576
3367.69767334,0.01015416
3369.62648071,0.01005570
3371.55528809,0.01004852
3373.48409546,0.01005493
3375.41290283,0.01002579
3377.34171020,0.00996529
3379.27051758,0.00986831
3381.19932495,0.01000059
3383.12813232,0.00991046
3385.05693970,0.00985462
3386.98574707,0.00993102
3388.91455444,0.00992328
3390.84336182,0.00984198
3392.77216919,0.00971769
3394.70097656,0.00982372
3396.62978394,0.00975947
3398.55859131,0.00968863
3400.48739868,0.00973959
3402.41620605,0.00975108
3404.34501343,0.00973819
3406.27382080,0.00969325
3408.20262817,0.00971243
3410.13143555,0.00959892
3412.06024292,0.00963125
3413.98905029,0.00968027
3415.91785767,0.00972359
3417.84666504,0.00970979
3419.77547241,0.00950893
3421.70427979,0.00959458
3423.63308716,0.00954987
3425.56189453,0.00947255
3427.49070190,0.00962339
3429.41950928,0.00964004
3431.34831665,0.00945991
3433.27712402,0.00937618
3435.20593140,0.00950228
3437.13473877,0.00949741
3439.06354614,0.00950925
3440.99235352,0.00942673
3442.92116089,0.00933872
3444.84996826,0.00940869
3446.77877563,0.00936626
3448.70758301,0.00936602
3450.63639038,0.00938152
3452.56519775,0.00939869
3454.49400513,0.00945270
3456.42281250,0.00941015
3458.35161987,0.00929862
3460.28042725,0.00928941
3462.20923462,0.00930177
3464.13804199,0.00940357
3466.06684937,0.00937849
3467.99565674,0.00918385
3469.92446411,0.00937540
3471.85327148,0.00937748
3473.78207886,0.00925078
3475.71088623,0.00927895
3477.63969360,0.00930209
3479.56850098,0.00932039
3481.49730835,0.00911964
3483.42611572,0.00927392
3485.35492310,0.00930755
3487.28373047,0.00913499
3489.21253784,0.00917303
3491.14134521,0.00907118
3493.07015259,0.00920236
3494.99895996,0.00928671
3496.92776733,0.00918813
3498.85657471,0.00916255
3500.78538208,0.00913454
3502.71418945,0.00903577
3504.64299683,0.00909714
3506.57180420,0.00924400
3508.50061157,0.00905916
3510.42941895,0.00905273
3512.35822632,0.00909994
3514.28703369,0.00907773
3516.21584106,0.00918941
3518.14464844,0.00918336
3520.07345581,0.00911740
3522.00226318,0.00904051
3523.93107056,0.00902469
3525.85987793,0.00901046
3527.78868530,0.00902178
3529.71749268,0.00899128
3531.64630005,0.00907052
3533.57510742,0.00918650
3535.50391479,0.00905746
3537.43272217,0.00906778
3539.36152954,0.00910545
3541.29033691,0.00906257
3543.21914429,0.00905743
3545.14795166,0.00890813
3547.07675903,0.00871839
3549.00556641,0.00898955
3550.93437378,0.00911682
3552.86318115,0.00886445
3554.79198853,0.00904726
3556.72079590,0.00907381
3558.64960327,0.00904462
3560.57841064,0.00897717
3562.50721802,0.00886326
3564.43602539,0.00900923
3566.36483276,0.00844471
3568.29364014,0.00822931
3570.22244751,0.00892720
3572.15125488,0.00913801
3574.08006226,0.00899320
3576.00886963,0.00897200
3577.93767700,0.00898057
3579.86648437,0.00904852
3581.79529175,0.00897634
3583.72409912,0.00899756
3585.65290649,0.00879406
3587.58171387,0.00806315
3589.51052124,0.00849316
3591.43932861,0.00909512
3593.36813599,0.00875388
3595.29694336,0.00873375
3597.22575073,0.00880888
3599.15455811,0.00892486
3601.08336548,0.00884801
3603.01217285,0.00884072
3604.94098022,0.00898813
3606.86978760,0.00864995
3608.79859497,0.00824186
3610.72740234,0.00843909
3612.65620972,0.00858624
3614.58501709,0.00845785
3616.51382446,0.00898959
3618.44263184,0.00829245
3620.37143921,0.00811963
3622.30024658,0.00897603
3624.22905395,0.00876184
3626.15786133,0.00920607
3628.08666870,0.00779719
3630.01547607,0.00728381
3631.94428345,0.00896391
3633.87309082,0.00870583
3635.80189819,0.00883231
3637.73070557,0.00891992
3639.65951294,0.00893670
3641.58832031,0.00894687
3643.51712769,0.00882575
3645.44593506,0.00889410
3647.37474243,0.00795051
3649.30354980,0.00749504
3651.23235718,0.00760409
3653.16116455,0.00888246
3655.08997192,0.00870964
3657.01877930,0.00794169
3658.94758667,0.00916022
3660.87639404,0.00886548
3662.80520142,0.00902420
3664.73400879,0.00892598
3666.66281616,0.00884009
3668.59162354,0.00857519
3670.52043091,0.00701238
3672.44923828,0.00858819
3674.37804565,0.00810901
3676.30685303,0.00679047
3678.23566040,0.00848263
3680.16446777,0.00852476
3682.09327515,0.00865427
3684.02208252,0.00887841
3685.95088989,0.00865072
3687.87969727,0.00791627
3689.80850464,0.00733120
3691.73731201,0.00831660
3693.66611938,0.00854326
3695.59492676,0.00870749
3697.52373413,0.00864505
3699.45254150,0.00856607
3701.38134888,0.00844847
3703.31015625,0.00810892
3705.23896362,0.00875589
3707.16777100,0.00837176
3709.09657837,0.00826548
3711.02538574,0.00783738
3712.95419312,0.00747674
3714.88300049,0.00864518
3716.81180786,0.00838983
3718.74061523,0.00847873
3720.66942261,0.00833935
3722.59822998,0.00800538
3724.52703735,0.00825904
3726.45584473,0.00776098
3728.38465210,0.00836108
3730.31345947,0.00821189
3732.24226685,0.00761910
3734.17107422,0.00750590
3736.09988159,0.00720079
3738.02868896,0.00752768
3739.95749634,0.00812528
3741.88630371,0.00849780
3743.81511108,0.00661481
3745.74391846,0.00638405
3747.67272583,0.00816443
3749.60153320,0.00698077
3751.53034058,0.00652610
3753.45914795,0.00744714
3755.38795532,0.00793381
3757.31676270,0.00821883
3759.24557007,0.00756658
3761.17437744,0.00784932
3763.10318481,0.00833125
3765.03199219,0.00774517
3766.96079956,0.00796915
3768.88960693,0.00792656
3770.81841431,0.00761517
3772.74722168,0.00824859
3774.67602905,0.00820023
3776.60483643,0.00811383
3778.53364380,0.00790614
3780.46245117,0.00768277
3782.39125854,0.00818065
3784.32006592,0.00795186
3786.24887329,0.00783487
3788.17768066,0.00801117
3790.10648804,0.00798763
3792.03529541,0.00797567
3793.96410278,0.00811180
3795.89291016,0.00764354
3797.82171753,0.00762683
3799.75052490,0.00786490
3801.67933228,0.00633219
3803.60813965,0.00742476
3805.53694702,0.00792312
3807.46575439,0.00670645
3809.39456177,0.00799955
3811.32336914,0.00777314
3813.25217651,0.00800785
3815.18098389,0.00727879
3817.10979126,0.00650533
3819.03859863,0.00797004
3820.96740601,0.00661303
3822.89621338,0.00695154
3824.82502075,0.00796009
3826.75382812,0.00725339
3828.68263550,0.00775496
3830.61144287,0.00755567
3832.54025024,0.00730201
3834.46905762,0.00743415
3836.39786499,0.00701299
3838.32667236,0.00643216
3840.25547974,0.00699405
3842.18428711,0.00735244
3844.11309448,0.00715687
3846.04190186,0.00763136
3847.97070923,0.00746783
3849.89951660,0.00762298
3851.82832397,0.00676735
3853.75713135,0.00518509
3855.68593872,0.00613189
3857.61474609,0.00750722
3859.54355347,0.00738366
3861.47236084,0.00728513
3863.40116821,0.00707207
3865.32997559,0.00669378
3867.25878296,0.00742998
3869.18759033,0.00676998
3871.11639770,0.00633873
3873.04520508,0.00742421
3874.97401245,0.00690220
3876.90281982,0.00738714
3878.83162720,0.00750697
3880.76043457,0.00656013
3882.68924194,0.00734367
3884.61804932,0.00699071
3886.54685669,0.00648798
3888.47566406,0.00730517
3890.40447144,0.00700437
3892.33327881,0.00661431
3894.26208618,0.00721360
3896.19089355,0.00739421
3898.11970093,0.00699026
3900.04850830,0.00671029
3901.97731567,0.00666091
3903.90612305,0.00649087
3905.83493042,0.00667378
3907.76373779,0.00725247
3909.69254517,0.00712252
3911.62135254,0.00703865
3913.55015991,0.00720301
3915.47896728,0.00706294
3917.40777466,0.00679000
3919.33658203,0.00670096
3921.26538940,0.00707631
3923.19419678,0.00697882
3925.12300415,0.00682888
3927.05181152,0.00699905
3928.98061890,0.00703084
3930.90942627,0.00686518
3932.83823364,0.00665952
3934.76704102,0.00698794
3936.69584839,0.00697679
3938.62465576,0.00696703
3940.55346313,0.00710068
3942.48227051,0.00669417
3944.41107788,0.00673594
3946.33988525,0.00691126
3948.26869263,0.00682280
3950.19750000,0.00675362
3952.12630737,0.00676452
3954.05511475,0.00687277
3955.98392212,0.00681984
3957.91272949,0.00676982
3959.84153687,0.00677749
3961.77034424,0.00670425
3963.69915161,0.00670419
3965.62795898,0.00680256
3967.55676636,0.00676499
3969.48557373,0.00677775
3971.41438110,0.00683080
3973.34318848,0.00673920
3975.27199585,0.00669829
3977.20080322,0.00662712
3979.12961060,0.00657598
3981.05841797,0.00669063
3982.98722534,0.00669485
3984.91603271,0.00660099
3986.84484009,0.00668479
3988.77364746,0.00664119
3990.70245483,0.00661032
3992.63126221,0.00666787
3994.56006958,0.00653821
3996.48887695,0.00656809
3998.41768433,0.00662198
4000.34649170,0.00661130
4002.27529907,0.00651912
4004.20410645,0.00652744
4006.13291382,0.00663320
4008.06172119,0.00651325
4009.99052856,0.00653857
4011.91933594,0.00647805
4013.84814331,0.00643907
4015.77695068,0.00646965
4017.70575806,0.00639833
4019.63456543,0.00646343
4021.56337280,0.00639263
4023.49218018,0.00640876
4025.42098755,0.00646912
4027.34979492,0.00640864
4029.27860229,0.00637947
4031.20740967,0.00641523
4033.13621704,0.00641678
4035.06502441,0.00630034
4036.99383179,0.00634467
4038.92263916,0.00632575
4040.85144653,0.00620574
4042.78025391,0.00616153
4044.70906128,0.00627021
4046.63786865,0.00637163
4048.56667603,0.00622467
4050.49548340,0.00622283
4052.42429077,0.00627267
4054.35309814,0.00624205
4056.28190552,0.00625183
4058.21071289,0.00620365
4060.13952026,0.00619676
4062.06832764,0.00625568
4063.99713501,0.00619269
4065.92594238,0.00620123
4067.85474976,0.00624286
4069.78355713,0.00606080
4071.71236450,0.00610762
4073.64117187,0.00617673
4075.56997925,0.00613458
4077.49878662,0.00609146
4079.42759399,0.00598197
4081.35640137,0.00605377
4083.28520874,0.00599084
4085.21401611,0.00600601
4087.14282349,0.00605321
4089.07163086,0.00597173
4091.00043823,0.00599946
4092.92924561,0.00592233
4094.85805298,0.00590770
4096.78686035,0.00594298
4098.71566772,0.00597761
4100.64447510,0.00592967
4102.57328247,0.00593735
4104.50208984,0.00596847
4106.43089722,0.00584723
4108.35970459,0.00593428
4110.28851196,0.00589563
4112.21731934,0.00577532
4114.14612671,0.00581172
4116.07493408,0.00582304
4118.00374145,0.00575597
4119.93254883,0.00575946
4121.86135620,0.00586917
4123.79016357,0.00574161
4125.71897095,0.00572346
4127.64777832,0.00577378
4129.57658569,0.00574845
4131.50539307,0.00577012
4133.43420044,0.00571779
4135.36300781,0.00578549
4137.29181519,0.00572031
4139.22062256,0.00563379
4141.14942993,0.00571397
4143.07823730,0.00571344
4145.00704468,0.00566649
4146.93585205,0.00562752
4148.86465942,0.00566839
4150.79346680,0.00572032
4152.72227417,0.00569756
4154.65108154,0.00558118
4156.57988892,0.00551246
4158.50869629,0.00553928
4160.43750366,0.00552297
4162.36631103,0.00552119
4164.29511841,0.00555132
4166.22392578,0.00550580
4168.15273315,0.00546998
4170.08154053,0.00554460
4172.01034790,0.00555327
4173.93915527,0.00546397
4175.86796265,0.00538399
4177.79677002,0.00545009
4179.72557739,0.00546700
4181.65438477,0.00539654
4183.58319214,0.00547599
4185.51199951,0.00544565
4187.44080688,0.00539820
4189.36961426,0.00541905
4191.29842163,0.00541962
4193.22722900,0.00535618
4195.15603638,0.00531261
4197.08484375,0.00537069
4199.01365112,0.00533171
4200.94245850,0.00537894
4202.87126587,0.00533082
4204.80007324,0.00530102
4206.72888062,0.00529710
4208.65768799,0.00520100
4210.58649536,0.00533251
4212.51530273,0.00524086
4214.44411011,0.00523524
4216.37291748,0.00530950
4218.30172485,0.00516661
4220.23053223,0.00525246
4222.15933960,0.00526888
4224.08814697,0.00519919
4226.01695435,0.00519972
4227.94576172,0.00516177
4229.87456909,0.00513366
4231.80337646,0.00517388
4233.73218384,0.00508635
4235.66099121,0.00508201
4237.58979858,0.00525185
4239.51860596,0.00512846
4241.44741333,0.00508588
4243.37622070,0.00506758
4245.30502808,0.00507224
4247.23383545,0.00522940
4249.16264282,0.00511080
4251.09145020,0.00504546
4253.02025757,0.00505871
4254.94906494,0.00500098
4256.87787231,0.00503910
4258.80667969,0.00506363
4260.73548706,0.00496793
4262.66429443,0.00503005
4264.59310181,0.00506106
4266.52190918,0.00491268
4268.45071655,0.00501586
4270.37952393,0.00499089
4272.30833130,0.00494137
4274.23713867,0.00492172
4276.16594604,0.00486497
4278.09475342,0.00498168
4280.02356079,0.00487424
4281.95236816,0.00490302
4283.88117554,0.00488998
4285.80998291,0.00477556
4287.73879028,0.00485964
4289.66759766,0.00483104
4291.59640503,0.00485315
4293.52521240,0.00476852
4295.45401978,0.00480283
4297.38282715,0.00486456
4299.31163452,0.00473585
4301.24044189,0.00483101
4303.16924927,0.00480212
4305.09805664,0.00469552
4307.02686401,0.00471728
4308.95567139,0.00471055
4310.88447876,0.00471103
4312.81328613,0.00473901
4314.74209351,0.00469170
4316.67090088,0.00464017
4318.59970825,0.00476170
4320.52851562,0.00475116
4322.45732300,0.00470038
4324.38613037,0.00470268
4326.31493774,0.00464320
4328.24374512,0.00470174
4330.17255249,0.00467621
4332.10135986,0.00464124
4334.03016724,0.00464499
4335.95897461,0.00459914
4337.88778198,0.00460657
4339.81658936,0.00450119
4341.74539673,0.00448497
4343.67420410,0.00456571
4345.60301147,0.00452225
4347.53181885,0.00452800
4349.46062622,0.00453011
4351.38943359,0.00450112
4353.31824097,0.00451416
4355.24704834,0.00452381
4357.17585571,0.00448073
4359.10466309,0.00442609
4361.03347046,0.00442644
4362.96227783,0.00443937
4364.89108520,0.00447041
4366.81989258,0.00440524
4368.74869995,0.00436223
4370.67750732,0.00445633
4372.60631470,0.00443634
4374.53512207,0.00439764
4376.46392944,0.00437659
4378.39273682,0.00432106
4380.32154419,0.00434223
4382.25035156,0.00430898
4384.17915894,0.00428445
4386.10796631,0.00436103
4388.03677368,0.00434768
4389.96558105,0.00435827
4391.89438843,0.00435704
4393.82319580,0.00425045
4395.75200317,0.00429473
4397.68081055,0.00425221
4399.60961792,0.00416932
4401.53842529,0.00430252
4403.46723267,0.00434380
4405.39604004,0.00423363
4407.32484741,0.00417869
4409.25365478,0.00426456
4411.18246216,0.00420294
4413.11126953,0.00414882
4415.04007690,0.00421886
4416.96888428,0.00413627
4418.89769165,0.00416388
4420.82649902,0.00420019
4422.75530640,0.00417895
4424.68411377,0.00412282
4426.61292114,0.00409490
4428.54172852,0.00413538
4430.47053589,0.00403719
4432.39934326,0.00413620
4434.32815063,0.00414010
4436.25695801,0.00403404
4438.18576538,0.00408893
4440.11457275,0.00403016
4442.04338013,0.00409309
4443.97218750,0.00409239
4445.90099487,0.00400808
4447.82980225,0.00406225
4449.75860962,0.00409277
4451.68741699,0.00400932
4453.61622437,0.00391852
4455.54503174,0.00402874
4457.47383911,0.00397941
4459.40264648,0.00392786
4461.33145386,0.00404991
4463.26026123,0.00391865
4465.18906860,0.00393151
4467.11787598,0.00401699
4469.04668335,0.00386471
4470.97549072,0.00396057
4472.90429810,0.00400130
4474.83310547,0.00387787
4476.76191284,0.00395504
4478.69072021,0.00388833
4480.61952759,0.00388487
4482.54833496,0.00392053
4484.47714233,0.00378562
4486.40594971,0.00383876
4488.33475708,0.00381544
4490.26356445,0.00376651
4492.19237183,0.00384296
4494.12117920,0.00381201
4496.04998657,0.00381909
4497.97879395,0.00390615
4499.90760132,0.00383798
4501.83640869,0.00372279
4503.76521606,0.00377385
4505.69402344,0.00372501
4507.62283081,0.00372052
4509.55163818,0.00380591
4511.48044556,0.00377224
4513.40925293,0.00378542
4515.33806030,0.00375996
4517.26686768,0.00373393
4519.19567505,0.00369874
4521.12448242,0.00367223
4523.05328979,0.00366068
4524.98209717,0.00363400
4526.91090454,0.00370279
4528.83971191,0.00366774
4530.76851929,0.00363576
4532.69732666,0.00364063
4534.62613403,0.00365171
4536.55494141,0.00369103
4538.48374878,0.00361746
4540.41255615,0.00361325
4542.34136353,0.00364012
4544.27017090,0.00365450
4546.19897827,0.00368795
4548.12778564,0.00362035
4550.05659302,0.00355039
4551.98540039,0.00357616
4553.91420776,0.00356826
4555.84301514,0.00353783
4557.77182251,0.00359757
4559.70062988,0.00359772
4561.62943726,0.00355941
4563.55824463,0.00352584
4565.48705200,0.00349521
4567.41585937,0.00347070
4569.34466675,0.00344639
4571.27347412,0.00351257
4573.20228149,0.00351848
4575.13108887,0.00349382
4577.05989624,0.00342491
4578.98870361,0.00334225
4580.91751099,0.00340620
4582.84631836,0.00342681
4584.77512573,0.00342663
4586.70393311,0.00342607
4588.63274048,0.00339558
4590.56154785,0.00338733
4592.49035522,0.00337056
4594.41916260,0.00338810
4596.34796997,0.00340351
4598.27677734,0.00338381
4600.20558472,0.00338668
4602.13439209,0.00338731
4604.06319946,0.00332854
4605.99200684,0.00327184
4607.92081421,0.00324641
4609.84962158,0.00333261
4611.77842895,0.00338262
4613.70723633,0.00327719
4615.63604370,0.00333839
4617.56485107,0.00342796
4619.49365845,0.00334806
4621.42246582,0.00325752
4623.35127319,0.00329147
4625.28008057,0.00337906
4627.20888794,0.00333416
4629.13769531,0.00327552
4631.06650269,0.00324115
4632.99531006,0.00322134
4634.92411743,0.00323022
4636.85292480,0.00324971
4638.78173218,0.00321341
4640.71053955,0.00313547
4642.63934692,0.00318178
4644.56815430,0.00321882
4646.49696167,0.00322811
4648.42576904,0.00322614
4650.35457642,0.00323348
4652.28338379,0.00318713
4654.21219116,0.00306569
4656.14099853,0.00310768
4658.06980591,0.00310751
4659.99861328,0.00311976
4661.92742065,0.00315372
4663.85622803,0.00310629
4665.78503540,0.00314648
4667.71384277,0.00312190
4669.64265015,0.00305227
4671.57145752,0.00301656
4673.50026489,0.00307532
4675.42907227,0.00304773
4677.35787964,0.00300929
4679.28668701,0.00307255
4681.21549438,0.00296039
4683.14430176,0.00302559
4685.07310913,0.00307630
4687.00191650,0.00302147
4688.93072388,0.00309980
4690.85953125,0.00303259
4692.78833862,0.00295004
4694.71714600,0.00295191
4696.64595337,0.00306720
4698.57476074,0.00299516
4700.50356812,0.00290934
4702.43237549,0.00303693
4704.36118286,0.00297878
4706.28999023,0.00302293
4708.21879761,0.00297660
4710.14760498,0.00292250
4712.07641235,0.00302414
4714.00521973,0.00292094
4715.93402710,0.00289548
4717.86283447,0.00285646
4719.79164185,0.00290414
4721.72044922,0.00295606
4723.64925659,0.00288519
4725.57806396,0.00293355
4727.50687134,0.00283845
4729.43567871,0.00283025
4731.36448608,0.00285201
4733.29329346,0.00284780
4735.22210083,0.00295388
4737.15090820,0.00286116
4739.07971558,0.00285336
4741.00852295,0.00286332
4742.93733032,0.00277147
4744.86613770,0.00282104
4746.79494507,0.00280638
4748.72375244,0.00277055
4750.65255981,0.00277678
4752.58136719,0.00276240
4754.51017456,0.00278764
4756.43898193,0.00275494
4758.36778931,0.00275474
4760.29659668,0.00280748
4762.22540405,0.00277255
4764.15421143,0.00277456
4766.08301880,0.00269173
4768.01182617,0.00262675
4769.94063354,0.00275963
4771.86944092,0.00271487
4773.79824829,0.00271921
4775.72705566,0.00282712
4777.65586304,0.00272081
4779.58467041,0.00272810
4781.51347778,0.00271740
4783.44228516,0.00261270
4785.37109253,0.00269264
4787.29989990,0.00266593
4789.22870728,0.00259146
4791.15751465,0.00264246
4793.08632202,0.00262106
4795.01512939,0.00262503
4796.94393677,0.00267552
4798.87274414,0.00270623
4800.80155151,0.00267639
4802.73035889,0.00263229
4804.65916626,0.00267685
4806.58797363,0.00264677
4808.51678101,0.00265374
4810.44558838,0.00263946
4812.37439575,0.00257267
4814.30320312,0.00262579
4816.23201050,0.00258695
4818.16081787,0.00261453
4820.08962524,0.00262793
4822.01843262,0.00254821
4823.94723999,0.00254661
4825.87604736,0.00247828
4827.80485474,0.00252482
4829.73366211,0.00258702
4831.66246948,0.00256125
4833.59127686,0.00254202
4835.52008423,0.00252523
4837.44889160,0.00251581
4839.37769897,0.00249806
4841.30650635,0.00260884
4843.23531372,0.00250871
4845.16412109,0.00242594
4847.09292847,0.00255555
4849.02173584,0.00242283
4850.95054321,0.00241382
4852.87935059,0.00245626
4854.80815796,0.00244301
4856.73696533,0.00255643
4858.66577270,0.00240762
4860.59458008,0.00230790
4862.52338745,0.00241934
4864.45219482,0.00240281
4866.38100220,0.00240105
4868.30980957,0.00238300
4870.23861694,0.00232269
4872.16742432,0.00242232
4874.09623169,0.00243736
4876.02503906,0.00239647
4877.95384644,0.00246389
4879.88265381,0.00237307
4881.81146118,0.00232184
4883.74026855,0.00241731
4885.66907593,0.00240568
4887.59788330,0.00227875
4889.52669067,0.00227072
4891.45549805,0.00236510
4893.38430542,0.00230054
4895.31311279,0.00236606
4897.24192017,0.00240449
4899.17072754,0.00228343
4901.09953491,0.00233704
4903.02834228,0.00228513
4904.95714966,0.00229535
4906.88595703,0.00238456
4908.81476440,0.00229309
4910.74357178,0.00228791
4912.67237915,0.00227944
4914.60118652,0.00223507
4916.52999390,0.00226772
4918.45880127,0.00230723
4920.38760864,0.00230856
4922.31641602,0.00232872
4924.24522339,0.00234417
4926.17403076,0.00228176
4928.10283813,0.00229258
4930.03164551,0.00229382
4931.96045288,0.00220972
4933.88926025,0.00217269
4935.81806763,0.00223320
4937.74687500,0.00227102
4939.67568237,0.00222995
4941.60448975,0.00225925
4943.53329712,0.00217198
4945.46210449,0.00211226
4947.39091187,0.00221695
4949.31971924,0.00217203
4951.24852661,0.00218177
4953.17733398,0.00223012
4955.10614136,0.00217247
4957.03494873,0.00215101
4958.96375610,0.00213938
4960.89256348,0.00216920
4962.82137085,0.00217857
4964.75017822,0.00214974
4966.67898560,0.00217669
4968.60779297,0.00217774
4970.53660034,0.00209790
4972.46540771,0.00205829
4974.39421509,0.00211800
4976.32302246,0.00213936
4978.25182983,0.00212476
4980.18063721,0.00213939
4982.10944458,0.00210804
4984.03825195,0.00208189
4985.96705933,0.00209027
4987.89586670,0.00211090
4989.82467407,0.00211319
4991.75348145,0.00199114
4993.68228882,0.00195834
4995.61109619,0.00201471
4997.53990356,0.00199097
4999.46871094,0.00201700
5001.39751831,0.00200430
5003.32632568,0.00205115
5005.25513306,0.00210479
5007.18394043,0.00202464
5009.11274780,0.00199820
5011.04155518,0.00194489
5012.97036255,0.00193851
5014.89916992,0.00194834
5016.82797729,0.00195605
5018.75678467,0.00202245
5020.68559204,0.00198917
5022.61439941,0.00197007
5024.54320679,0.00193560
5026.47201416,0.00189422
5028.40082153,0.00190393
5030.32962891,0.00191293
5032.25843628,0.00190922
5034.18724365,0.00191634
5036.11605103,0.00198138
5038.04485840,0.00192017
5039.97366577,0.00188746
5041.90247314,0.00192490
5043.83128052,0.00188315
5045.76008789,0.00187752
5047.68889526,0.00188496
5049.61770264,0.00193462
5051.54651001,0.00191671
5053.47531738,0.00185864
5055.40412476,0.00188348
5057.33293213,0.00193273
5059.26173950,0.00194602
5061.19054687,0.00187614
5063.11935425,0.00185887
5065.04816162,0.00185929
5066.97696899,0.00188149
5068.90577637,0.00189365
5070.83458374,0.00187194
5072.76339111,0.00192510
5074.69219849,0.00186748
5076.62100586,0.00182198
5078.54981323,0.00188828
5080.47862061,0.00185725
5082.40742798,0.00178674
5084.33623535,0.00180483
5086.26504272,0.00184055
5088.19385010,0.00179350
5090.12265747,0.00177263
5092.05146484,0.00176661
5093.98027222,0.00173396
5095.90907959,0.00178689
5097.83788696,0.00182994
5099.76669434,0.00181238
5101.69550171,0.00183189
5103.62430908,0.00182853
5105.55311645,0.00184023
5107.48192383,0.00182175
5109.41073120,0.00170012
5111.33953857,0.00170390
5113.26834595,0.00173199
5115.19715332,0.00171288
5117.12596069,0.00170454
5119.05476807,0.00169867
5120.98357544,0.00176808
5122.91238281,0.00170300
5124.84119019,0.00165578
5126.76999756,0.00170992
5128.69880493,0.00171958
5130.62761230,0.00177723
5132.55641968,0.00172230
5134.48522705,0.00167483
5136.41403442,0.00172444
5138.34284180,0.00171210
5140.27164917,0.00169476
5142.20045654,0.00168930
5144.12926392,0.00169793
5146.05807129,0.00169505
5147.98687866,0.00166493
5149.91568603,0.00166133
5151.84449341,0.00167074
5153.77330078,0.00162554
5155.70210815,0.00161229
5157.63091553,0.00161895
5159.55972290,0.00159829
5161.48853027,0.00164337
5163.41733765,0.00161450
5165.34614502,0.00156593
5167.27495239,0.00164399
5169.20375977,0.00164285
5171.13256714,0.00154745
5173.06137451,0.00160275
5174.99018188,0.00164943
5176.91898926,0.00156809
5178.84779663,0.00157536
5180.77660400,0.00155946
5182.70541138,0.00160522
5184.63421875,0.00162711
5186.56302612,0.00150329
5188.49183350,0.00157486
5190.42064087,0.00160040
5192.34944824,0.00158027
5194.27825562,0.00159980
5196.20706299,0.00149939
5198.13587036,0.00157108
5200.06467773,0.00161472
5201.99348511,0.00150787
5203.92229248,0.00151514
5205.85109985,0.00151964
5207.77990723,0.00150214
5209.70871460,0.00153888
5211.63752197,0.00155448
5213.56632935,0.00153236
5215.49513672,0.00151154
5217.42394409,0.00149377
5219.35275146,0.00152051
5221.28155884,0.00155421
5223.21036621,0.00152936
5225.13917358,0.00151834
5227.06798096,0.00149330
5228.99678833,0.00147782
5230.92559570,0.00150318
5232.85440308,0.00145376
5234.78321045,0.00143408
5236.71201782,0.00146322
5238.64082520,0.00145413
5240.56963257,0.00149482
5242.49843994,0.00148024
5244.42724731,0.00141144
5246.35605469,0.00144113
5248.28486206,0.00145479
5250.21366943,0.00144564
5252.14247681,0.00148277
5254.07128418,0.00145267
5256.00009155,0.00143505
5257.92889893,0.00145730
5259.85770630,0.00142718
5261.78651367,0.00148989
5263.71532104,0.00147459
5265.64412842,0.00139982
5267.57293579,0.00149799
5269.50174316,0.00146839
5271.43055054,0.00141792
5273.35935791,0.00145136
5275.28816528,0.00140073
5277.21697266,0.00142067
5279.14578003,0.00143390
5281.07458740,0.00141977
5283.00339478,0.00141457
5284.93220215,0.00134021
5286.86100952,0.00133199
5288.78981689,0.00137293
5290.71862427,0.00135083
5292.64743164,0.00134037
5294.57623901,0.00134529
5296.50504639,0.00132365
5298.43385376,0.00133330
5300.36266113,0.00134415
5302.29146851,0.00128972
5304.22027588,0.00128503
5306.14908325,0.00138165
5308.07789062,0.00138230
5310.00669800,0.00134035
5311.93550537,0.00134916
5313.86431274,0.00131402
5315.79312012,0.00132715
5317.72192749,0.00134279
5319.65073486,0.00132114
5321.57954224,0.00129467
5323.50834961,0.00131303
5325.43715698,0.00133578
5327.36596436,0.00125805
5329.29477173,0.00131560
5331.22357910,0.00131188
5333.15238647,0.00121301
5335.08119385,0.00132974
5337.01000122,0.00133080
5338.93880859,0.00120939
5340.86761597,0.00128849
5342.79642334,0.00134113
5344.72523071,0.00122125
5346.65403809,0.00126428
5348.58284546,0.00128917
5350.51165283,0.00122323
5352.44046020,0.00131070
5354.36926758,0.00126434
5356.29807495,0.00122826
5358.22688232,0.00122556
5360.15568970,0.00121307
5362.08449707,0.00128464
5364.01330444,0.00117847
5365.94211182,0.00117118
5367.87091919,0.00127364
5369.79972656,0.00123589
5371.72853394,0.00121867
5373.65734131,0.00125179
5375.58614868,0.00121305
5377.51495605,0.00117595
5379.44376343,0.00121207
5381.37257080,0.00120560
5383.30137817,0.00125736
5385.23018555,0.00122815
5387.15899292,0.00120174
5389.08780029,0.00131101
5391.01660767,0.00124717
5392.94541504,0.00115237
5394.87422241,0.00113044
5396.80302978,0.00117853
5398.73183716,0.00116507
5400.66064453,0.00115829
5402.58945190,0.00124362
5404.51825928,0.00111750
5406.44706665,0.00111347
5408.37587402,0.00117502
5410.30468140,0.00112545
5412.23348877,0.00115029
5414.16229614,0.00111387
5416.09110352,0.00116326
5418.01991089,0.00120077
5419.94871826,0.00115580
5421.87752563,0.00112384
5423.80633301,0.00110677
5425.73514038,0.00118356
5427.66394775,0.00111164
5429.59275513,0.00103168
5431.52156250,0.00115139
5433.45036987,0.00118843
5435.37917725,0.00109039
5437.30798462,0.00106613
5439.23679199,0.00109647
5441.16559936,0.00107601
5443.09440674,0.00112911
5445.02321411,0.00111186
5446.95202148,0.00105318
5448.88082886,0.00112012
5450.80963623,0.00111128
5452.73844360,0.00111336
5454.66725098,0.00109128
5456.59605835,0.00106922
5458.52486572,0.00109783
5460.45367310,0.00099760
5462.38248047,0.00104708
5464.31128784,0.00109119
5466.24009521,0.00101435
5468.16890259,0.00109944
5470.09770996,0.00111122
5472.02651733,0.00109125
5473.95532471,0.00109946
5475.88413208,0.00102897
5477.81293945,0.00101200
5479.74174683,0.00102632
5481.67055420,0.00104450
5483.59936157,0.00102259
5485.52816895,0.00100617
5487.45697632,0.00103319
5489.38578369,0.00102338
5491.31459106,0.00107304
5493.24339844,0.00109575
5495.17220581,0.00103541
5497.10101318,0.00098643
5499.02982056,0.00097119
5500.95862793,0.00103265
5502.88743530,0.00099269
5504.81624268,0.00098562
5506.74505005,0.00104637
5508.67385742,0.00097199
5510.60266479,0.00107432
5512.53147217,0.00105862
5514.46027954,0.00089190
5516.38908691,0.00102053
5518.31789429,0.00103888
5520.24670166,0.00094552
5522.17550903,0.00094897
5524.10431641,0.00098017
5526.03312378,0.00098376
5527.96193115,0.00088108
5529.89073853,0.00091340
5531.81954590,0.00102978
5533.74835327,0.00096868
5535.67716064,0.00089281
5537.60596802,0.00098743
5539.53477539,0.00106348
5541.46358276,0.00101978
5543.39239014,0.00092770
5545.32119751,0.00091349
5547.25000488,0.00099086
5549.17881226,0.00093349
5551.10761963,0.00092600
5553.03642700,0.00092495
5554.96523437,0.00086528
5556.89404175,0.00094797
5558.82284912,0.00094616
5560.75165649,0.00092207
5562.68046387,0.00097145
5564.60927124,0.00100154
5566.53807861,0.00096967
5568.46688599,0.00088722
5570.39569336,0.00084394
5572.32450073,0.00094002
5574.25330811,0.00105203
5576.18211548,0.00091685
5578.11092285,0.00090857
5580.03973022,0.00096228
5581.96853760,0.00086756
5583.89734497,0.00087031
5585.82615234,0.00088350
5587.75495972,0.00093136
5589.68376709,0.00093274
5591.61257446,0.00090945
5593.54138184,0.00084303
5595.47018921,0.00082816
5597.39899658,0.00092453
5599.32780395,0.00087556
5601.25661133,0.00088722
5603.18541870,0.00086839
5605.11422607,0.00088134
5607.04303345,0.00091469
5608.97184082,0.00080836
5610.90064819,0.00081269
5612.82945557,0.00084080
5614.75826294,0.00090575
5616.68707031,0.00088375
5618.61587769,0.00087244
5620.54468506,0.00092829
5622.47349243,0.00086166
5624.40229980,0.00088353
5626.33110718,0.00088575
5628.25991455,0.00082881
5630.18872192,0.00080697
5632.11752930,0.00087461
5634.04633667,0.00089668
5635.97514404,0.00081127
5637.90395142,0.00083624
5639.83275879,0.00087149
5641.76156616,0.00083573
5643.69037353,0.00074927
5645.61918091,0.00083085
5647.54798828,0.00090374
5649.47679565,0.00079977
5651.40560303,0.00080239
5653.33441040,0.00081748
5655.26321777,0.00085987
5657.19202515,0.00084349
5659.12083252,0.00080925
5661.04963989,0.00087325
5662.97844727,0.00086469
5664.90725464,0.00086214
5666.83606201,0.00084003
5668.76486938,0.00081508
5670.69367676,0.00083190
5672.62248413,0.00083331
5674.55129150,0.00083383
5676.48009888,0.00080318
5678.40890625,0.00077637
5680.33771362,0.00077808
5682.26652100,0.00074684
5684.19532837,0.00076628
5686.12413574,0.00081267
5688.05294311,0.00076514
5689.98175049,0.00080399
5691.91055786,0.00082345
5693.83936523,0.00079166
5695.76817261,0.00083311
5697.69697998,0.00076360
5699.62578735,0.00068896
5701.55459473,0.00074656
5703.48340210,0.00080528
5705.41220947,0.00073733
5707.34101685,0.00075918
5709.26982422,0.00081478
5711.19863159,0.00076440
5713.12743896,0.00079468
5715.05624634,0.00072338
5716.98505371,0.00069483
5718.91386108,0.00075596
5720.84266846,0.00074798
5722.77147583,0.00072223
5724.70028320,0.00067354
5726.62909058,0.00071636
5728.55789795,0.00068438
5730.48670532,0.00065994
5732.41551270,0.00071754
5734.34432007,0.00071515
5736.27312744,0.00070910
5738.20193481,0.00071481
5740.13074219,0.00073767
5742.05954956,0.00069841
5743.98835693,0.00071844
5745.91716431,0.00074706
5747.84597168,0.00069778
5749.77477905,0.00070241
5751.70358643,0.00071900
5753.63239380,0.00068970
5755.56120117,0.00070935
5757.49000854,0.00075611
5759.41881592,0.00069282
5761.34762329,0.00072671
5763.27643066,0.00069231
5765.20523804,0.00069433
5767.13404541,0.00079141
5769.06285278,0.00066237
5770.99166016,0.00072048
5772.92046753,0.00071133
5774.84927490,0.00060965
5776.77808228,0.00066811
5778.70688965,0.00068402
5780.63569702,0.00068629
5782.56450439,0.00064334
5784.49331177,0.00069701
5786.42211914,0.00061823
5788.35092651,0.00066592
5790.27973389,0.00071014
5792.20854126,0.00055344
5794.13734863,0.00071668
5796.06615601,0.00065787
5797.99496338,0.00060880
5799.92377075,0.00066844
5801.85257812,0.00060709
5803.78138550,0.00065233
5805.71019287,0.00056623
5807.63900024,0.00060495
5809.56780762,0.00060863
5811.49661499,0.00061707
5813.42542236,0.00069138
5815.35422974,0.00064112
5817.28303711,0.00065221
5819.21184448,0.00064425
5821.14065186,0.00067681
5823.06945923,0.00058158
5824.99826660,0.00059980
5826.92707397,0.00068313
5828.85588135,0.00059589
5830.78468872,0.00063899
5832.71349609,0.00059515
5834.64230347,0.00061387
5836.57111084,0.00065238
5838.49991821,0.00062817
5840.42872559,0.00065681
5842.35753296,0.00065217
5844.28634033,0.00068287
5846.21514770,0.00062275
5848.14395508,0.00067342
5850.07276245,0.00066104
5852.00156982,0.00055573
5853.93037720,0.00066440
5855.85918457,0.00065503
5857.78799194,0.00059397
5859.71679932,0.00064681
5861.64560669,0.00066001
5863.57441406,0.00056661
5865.50322144,0.00055968
5867.43202881,0.00064030
5869.36083618,0.00064043
5871.28964355,0.00061657
5873.21845093,0.00057847
5875.14725830,0.00061922
5877.07606567,0.00057041
5879.00487305,0.00053169
5880.93368042,0.00061065
5882.86248779,0.00054927
5884.79129517,0.00055167
5886.72010254,0.00057935
5888.64890991,0.00057352
5890.57771728,0.00056860
5892.50652466,0.00056697
5894.43533203,0.00059648
5896.36413940,0.00050187
5898.29294678,0.00057498
5900.22175415,0.00065662
5902.15056152,0.00050635
5904.07936890,0.00052571
5906.00817627,0.00059297
5907.93698364,0.00057771
5909.86579102,0.00059901
5911.79459839,0.00055271
5913.72340576,0.00049670
5915.65221313,0.00055589
5917.58102051,0.00058977
5919.50982788,0.00053003
5921.43863525,0.00051345
5923.36744263,0.00057590
5925.29625000,0.00063690
5927.22505737,0.00058095
5929.15386475,0.00053754
5931.08267212,0.00056338
5933.01147949,0.00052608
5934.94028686,0.00055608
5936.86909424,0.00054946
5938.79790161,0.00049693
5940.72670898,0.00052430
5942.65551636,0.00046922
5944.58432373,0.00052164
5946.51313110,0.00059090
5948.44193848,0.00048393
5950.37074585,0.00047906
5952.29955322,0.00054791
5954.22836060,0.00058299
5956.15716797,0.00051337
5958.08597534,0.00046625
5960.01478271,0.00053481
5961.94359009,0.00052272
5963.87239746,0.00052019
5965.80120483,0.00048343
5967.73001221,0.00047307
5969.65881958,0.00054204
5971.58762695,0.00050941
5973.51643433,0.00047699
5975.44524170,0.00048174
5977.37404907,0.00054084
5979.30285645,0.00048858
5981.23166382,0.00045321
5983.16047119,0.00058708
5985.08927856,0.00053654
5987.01808594,0.00049406
5988.94689331,0.00050109
5990.87570068,0.00049218
5992.80450806,0.00052998
5994.73331543,0.00052568
5996.66212280,0.00054868
5998.59093018,0.00045849
6000.51973755,0.00048026
