399.26312622,0.00016280
401.19193359,0.00027941
403.12074097,0.00031460
405.04954834,-0.00015608
406.97835571,0.00007537
408.90716309,0.00068711
410.83597046,0.00048711
412.76477783,0.00037319
414.69358521,0.00074413
416.62239258,0.00031913
418.55119995,0.00046975
420.48000732,0.00077106
422.40881470,0.00018212
424.33762207,0.00041621
426.26642944,0.00078504
428.19523682,0.00062138
430.12404419,0.00048870
432.05285156,0.00039218
433.98165894,0.00028352
435.91046631,0.00056039
437.83927368,0.00075950
439.76808105,0.00031759
441.69688843,0.00067439
443.62569580,0.00089605
445.55450317,0.00035845
447.48331055,0.00052421
449.41211792,0.00056460
451.34092529,0.00031519
453.26973267,0.00034046
455.19854004,0.00029742
457.12734741,0.00047914
459.05615479,0.00072619
460.98496216,0.00034226
462.91376953,0.00015346
464.84257690,0.00036819
466.77138428,0.00045874
468.70019165,0.00054108
470.62899902,0.00059422
472.55780640,0.00060052
474.48661377,0.00008154
476.41542114,-0.00003146
478.34422852,0.00044801
480.27303589,0.00034907
482.20184326,0.00036167
484.13065063,0.00064299
486.05945801,0.00056817
487.98826538,0.00021049
489.91707275,0.00007378
491.84588013,0.00003046
493.77468750,0.00024140
495.70349487,0.00053479
497.63230225,0.00047758
499.56110962,0.00028317
501.48991699,0.00005465
503.41872437,0.00044031
505.34753174,0.00026112
507.27633911,0.00018537
509.20514648,0.00061272
511.13395386,0.00018917
513.06276123,0.00007622
514.99156860,0.00014760
516.92037598,0.00025316
518.84918335,0.00005657
520.77799072,0.00047721
522.70679810,0.00074585
524.63560547,-0.00020496
526.56441284,0.00013944
528.49322021,0.00062923
530.42202759,0.00022339
532.35083496,0.00041971
534.27964233,0.00035876
536.20844971,0.00015569
538.13725708,0.00025882
540.06606445,0.00020143
541.99487183,0.00031990
543.92367920,0.00032797
545.85248657,0.00012917
547.78129395,0.00025999
549.71010132,0.00009671
551.63890869,-0.00018843
553.56771606,0.00031136
555.49652344,0.00020514
557.42533081,0.00006266
559.35413818,0.00052908
561.28294556,0.00019367
563.21175293,-0.00007705
565.14056030,0.00004796
567.06936768,0.00026569
568.99817505,0.00026030
570.92698242,-0.00002086
572.85578979,0.00016557
574.78459717,0.00012991
576.71340454,-0.00003812
578.64221191,0.00019596
580.57101929,0.00019727
582.49982666,0.00037124
584.42863403,0.00012668
586.35744141,0.00001607
588.28624878,0.00020824
590.21505615,-0.00010799
592.14386353,0.00014832
594.07267090,0.00039685
596.00147827,0.00016596
597.93028564,-0.00021699
599.85909302,0.00030091
601.78790039,0.00043469
603.71670776,0.00004834
605.64551514,0.00034151
607.57432251,-0.00016687
609.50312988,-0.00026545
611.43193726,-0.00008646
613.36074463,0.00017643
615.28955200,-0.00020241
617.21835938,-0.00031430
619.14716675,0.00004745
621.07597412,-0.00011208
623.00478149,0.00002641
624.93358887,-0.00019473
626.86239624,0.00009647
628.79120361,0.00002274
630.72001099,-0.00010845
632.64881836,0.00044068
634.57762573,0.00043358
636.50643311,0.00078726
638.43524048,0.00066412
640.36404785,0.00057763
642.29285522,0.00102347
644.22166260,0.00057275
646.15046997,0.00080167
648.07927734,0.00092615
650.00808472,0.00068884
651.93689209,0.00100858
653.86569946,0.00088038
655.79450684,0.00084409
657.72331421,0.00105289
659.65212158,0.00119624
661.58092896,0.00109196
663.50973633,0.00104819
665.43854370,0.00109581
667.36735107,0.00096262
669.29615845,0.00108056
671.22496582,0.00106592
673.15377319,0.00123149
675.08258057,0.00145888
677.01138794,0.00129241
678.94019531,0.00151532
680.86900269,0.00171898
682.79781006,0.00145933
684.72661743,0.00148535
686.65542480,0.00146440
688.58423218,0.00113384
690.51303955,0.00126210
692.44184692,0.00145106
694.37065430,0.00148169
696.29946167,0.00159704
698.22826904,0.00173826
700.15707642,0.00202871
702.08588379,0.00211979
704.01469116,0.00200482
705.94349854,0.00162186
707.87230591,0.00118597
709.80111328,0.00119615
711.72992065,0.00108643
713.65872803,0.00056729
715.58753540,0.00026239
717.51634277,0.00022185
719.44515015,0.00004985
721.37395752,0.00009983
723.30276489,0.00016045
725.23157227,0.00015918
727.16037964,0.00036164
729.08918701,0.00029102
731.01799438,0.00024090
732.94680176,0.00021790
734.87560913,-0.00004508
736.80441650,-0.00003715
738.73322388,0.00014828
740.66203125,0.00024908
742.59083862,0.00013169
744.51964600,0.00004286
746.44845337,0.00013900
748.37726074,0.00010000
750.30606812,-0.00010931
752.23487549,0.00025376
754.16368286,0.00040703
756.09249023,0.00004856
758.02129761,0.00015351
759.95010498,0.00030230
761.87891235,0.00026173
763.80771973,-0.00002837
765.73652710,0.00008557
767.66533447,0.00026262
769.59414185,0.00014531
771.52294922,0.00025997
773.45175659,0.00000562
775.38056396,0.00027984
777.30937134,0.00025831
779.23817871,0.00010252
781.16698608,0.00047173
783.09579346,0.00005909
785.02460083,0.00011285
786.95340820,0.00027999
788.88221558,0.00018434
790.81102295,0.00029273
792.73983032,0.00025188
794.66863770,0.00032476
796.59744507,0.00019167
798.52625244,0.00018141
800.45505981,0.00028483
802.38386719,0.00022142
804.31267456,0.00032450
806.24148193,0.00041576
808.17028931,0.00023475
810.09909668,0.00022830
812.02790405,0.00030842
813.95671143,0.00045260
815.88551880,0.00063451
817.81432617,0.00027336
819.74313354,0.00019676
821.67194092,0.00021980
823.60074829,0.00022680
825.52955566,0.00035384
827.45836304,0.00031013
829.38717041,0.00039293
831.31597778,0.00035855
833.24478516,0.00056461
835.17359253,0.00023537
837.10239990,0.00021164
839.03120728,0.00065751
840.96001465,0.00024843
842.88882202,0.00050358
844.81762939,0.00060931
846.74643677,0.00036420
848.67524414,0.00044815
850.60405151,0.00040333
852.53285889,0.00047732
854.46166626,0.00035091
856.39047363,0.00046668
858.31928101,0.00059903
860.24808838,0.00045261
862.17689575,0.00021813
864.10570313,0.00027651
866.03451050,0.00051204
867.96331787,0.00017082
869.89212524,0.00016714
871.82093262,0.00039802
873.74973999,0.00033565
875.67854736,0.00042051
877.60735474,0.00040489
879.53616211,0.00013421
881.46496948,0.00008237
883.39377686,0.00011529
885.32258423,0.00010800
887.25139160,0.00048465
889.18019897,0.00029401
891.10900635,0.00005315
893.03781372,0.00030873
894.96662109,0.00006736
896.89542847,0.00022929
898.82423584,0.00050022
900.75304321,0.00010935
902.68185059,0.00011682
904.61065796,0.00050427
906.53946533,0.00057559
908.46827271,0.00041695
910.39708008,0.00015886
912.32588745,0.00003864
914.25469482,0.00035450
916.18350220,0.00068698
918.11230957,0.00059783
920.04111694,0.00037669
921.96992432,0.00066768
923.89873169,0.00073508
925.82753906,0.00064569
927.75634644,0.00083417
929.68515381,0.00052736
931.61396118,0.00053437
933.54276855,0.00086885
935.47157593,0.00090612
937.40038330,0.00074000
939.32919067,0.00057119
941.25799805,0.00068806
943.18680542,0.00077153
945.11561279,0.00081097
947.04442017,0.00085485
948.97322754,0.00119863
950.90203491,0.00106682
952.83084229,0.00055267
954.75964966,0.00087051
956.68845703,0.00084401
958.61726440,0.00055673
960.54607178,0.00085244
962.47487915,0.00088841
964.40368652,0.00076410
966.33249390,0.00093912
968.26130127,0.00075373
970.19010864,0.00076560
972.11891602,0.00115085
974.04772339,0.00094232
975.97653076,0.00114097
977.90533813,0.00144998
979.83414551,0.00126097
981.76295288,0.00133547
983.69176025,0.00150410
985.62056763,0.00168178
987.54937500,0.00182341
989.47818237,0.00204973
991.40698975,0.00225724
993.33579712,0.00239453
995.26460449,0.00266956
997.19341187,0.00315059
999.12221924,0.00340401
1001.05102661,0.00329651
1002.97983398,0.00367431
1004.90864136,0.00384884
1006.83744873,0.00386791
1008.76625610,0.00447744
1010.69506348,0.00471257
1012.62387085,0.00466699
1014.55267822,0.00510996
1016.48148560,0.00542067
1018.41029297,0.00554103
1020.33910034,0.00615687
1022.26790771,0.00638838
1024.19671509,0.00626640
1026.12552246,0.00645176
1028.05432983,0.00668916
1029.98313721,0.00688789
1031.91194458,0.00707529
1033.84075195,0.00741235
1035.76955933,0.00739153
1037.69836670,0.00761384
1039.62717407,0.00782255
1041.55598145,0.00746808
1043.48478882,0.00755796
1045.41359619,0.00755575
1047.34240356,0.00743713
1049.27121094,0.00715931
1051.20001831,0.00703262
1053.12882568,0.00713850
1055.05763306,0.00665221
1056.98644043,0.00650746
1058.91524780,0.00655295
1060.84405518,0.00646979
1062.77286255,0.00627902
1064.70166992,0.00601246
1066.63047729,0.00609259
1068.55928467,0.00584269
1070.48809204,0.00544040
1072.41689941,0.00519027
1074.34570679,0.00496193
1076.27451416,0.00484546
1078.20332153,0.00461289
1080.13212891,0.00446508
1082.06093628,0.00427969
1083.98974365,0.00389535
1085.91855103,0.00373603
1087.84735840,0.00351087
1089.77616577,0.00351163
1091.70497314,0.00357036
1093.63378052,0.00314319
1095.56258789,0.00315841
1097.49139526,0.00292215
1099.42020264,0.00280736
1101.34901001,0.00323649
1103.27781738,0.00294707
1105.20662476,0.00270574
1107.13543213,0.00258605
1109.06423950,0.00256475
1110.99304687,0.00261927
1112.92185425,0.00264556
1114.85066162,0.00271899
1116.77946899,0.00261823
1118.70827637,0.00275245
1120.63708374,0.00260927
1122.56589111,0.00273261
1124.49469849,0.00272033
1126.42350586,0.00243939
1128.35231323,0.00285288
1130.28112061,0.00280844
1132.20992798,0.00294004
1134.13873535,0.00319125
1136.06754272,0.00297120
1137.99635010,0.00330780
1139.92515747,0.00361967
1141.85396484,0.00359819
1143.78277222,0.00386886
1145.71157959,0.00408681
1147.64038696,0.00421474
1149.56919434,0.00474625
1151.49800171,0.00509699
1153.42680908,0.00527331
1155.35561646,0.00537832
1157.28442383,0.00553715
1159.21323120,0.00594124
1161.14203857,0.00589762
1163.07084595,0.00600117
1164.99965332,0.00641550
1166.92846069,0.00679332
1168.85726807,0.00688114
1170.78607544,0.00696738
1172.71488281,0.00766325
1174.64369019,0.00805344
1176.57249756,0.00812538
1178.50130493,0.00823931
1180.43011230,0.00867900
1182.35891968,0.00916379
1184.28772705,0.00938464
1186.21653442,0.00979650
1188.14534180,0.01011070
1190.07414917,0.01068242
1192.00295654,0.01113061
1193.93176392,0.01158174
1195.86057129,0.01240859
1197.78937866,0.01288284
1199.71818604,0.01348896
1201.64699341,0.01410513
1203.57580078,0.01464430
1205.50460815,0.01529361
1207.43341553,0.01580348
1209.36222290,0.01628720
1211.29103027,0.01664029
1213.21983765,0.01712066
1215.14864502,0.01782736
1217.07745239,0.01819095
1219.00625977,0.01827917
1220.93506714,0.01852716
1222.86387451,0.01874756
1224.79268188,0.01905292
1226.72148926,0.01934361
1228.65029663,0.01939015
1230.57910400,0.01943822
1232.50791138,0.01944693
1234.43671875,0.01962720
1236.36552612,0.01968481
1238.29433350,0.01929498
1240.22314087,0.01927561
1242.15194824,0.01958397
1244.08075562,0.01935889
1246.00956299,0.01925715
1247.93837036,0.01923754
1249.86717773,0.01890716
1251.79598511,0.01907145
1253.72479248,0.01888984
1255.65359985,0.01856534
1257.58240723,0.01849965
1259.51121460,0.01800051
1261.44002197,0.01771400
1263.36882935,0.01755252
1265.29763672,0.01735514
1267.22644409,0.01706621
1269.15525146,0.01683520
1271.08405884,0.01672812
1273.01286621,0.01641016
1274.94167358,0.01612210
1276.87048096,0.01576648
1278.79928833,0.01555076
1280.72809570,0.01532747
1282.65690308,0.01500902
1284.58571045,0.01487141
1286.51451782,0.01468826
1288.44332520,0.01426169
1290.37213257,0.01390530
1292.30093994,0.01392653
1294.22974731,0.01388666
1296.15855469,0.01386946
1298.08736206,0.01384170
1300.01616943,0.01390510
1301.94497681,0.01400700
1303.87378418,0.01393754
1305.80259155,0.01416406
1307.73139893,0.01437646
1309.66020630,0.01454032
1311.58901367,0.01474048
1313.51782104,0.01510128
1315.44662842,0.01543356
1317.37543579,0.01570089
1319.30424316,0.01624657
1321.23305054,0.01675478
1323.16185791,0.01732240
1325.09066528,0.01770435
1327.01947266,0.01832090
1328.94828003,0.01890453
1330.87708740,0.01919310
1332.80589478,0.01970447
1334.73470215,0.01988251
1336.66350952,0.02017647
1338.59231689,0.02010612
1340.52112427,0.02024576
1342.44993164,0.02121679
1344.37873901,0.02147014
1346.30754639,0.02150860
1348.23635376,0.02151875
1350.16516113,0.02130072
1352.09396851,0.02118250
1354.02277588,0.02105997
1355.95158325,0.02092877
1357.88039062,0.02068147
1359.80919800,0.02028978
1361.73800537,0.01946175
1363.66681274,0.01936567
1365.59562012,0.02019414
1367.52442749,0.01990215
1369.45323486,0.01974234
1371.38204224,0.01994153
1373.31084961,0.01892054
1375.23965698,0.01899716
1377.16846436,0.01964837
1379.09727173,0.01938224
1381.02607910,0.01952107
1382.95488647,0.01963113
1384.88369385,0.01947939
1386.81250122,0.01877762
1388.74130859,0.01895813
1390.67011597,0.02066109
1392.59892334,0.01998105
1394.52773071,0.01854848
1396.45653809,0.01991072
1398.38534546,0.01978432
1400.31415283,0.01941710
1402.24296021,0.02109599
1404.17176758,0.02015784
1406.10057495,0.02024365
1408.02938232,0.02091972
1409.95818970,0.02002990
1411.88699707,0.02049653
1413.81580444,0.02000772
1415.74461182,0.02031465
1417.67341919,0.01829492
1419.60222656,0.01630022
1421.53103394,0.01879631
1423.45984131,0.01830151
1425.38864868,0.01772898
1427.31745605,0.01796291
1429.24626343,0.01669299
1431.17507080,0.01636331
1433.10387817,0.01656278
1435.03268555,0.01509193
1436.96149292,0.01272829
1438.89030029,0.01441245
1440.81910767,0.01483276
1442.74791504,0.01368001
1444.67672241,0.01440359
1446.60552979,0.01351515
1448.53433716,0.01375778
1450.46314453,0.01408906
1452.39195190,0.01446332
1454.32075928,0.01496560
1456.24956665,0.01260735
1458.17837402,0.01310822
1460.10718140,0.01702581
1462.03598877,0.01823207
1463.96479614,0.01803820
1465.89360352,0.01893291
1467.82241089,0.02144448
1469.75121826,0.02295405
1471.68002563,0.02068030
1473.60883301,0.02168393
1475.53764038,0.02477374
1477.46644775,0.02638527
1479.39525513,0.02883247
1481.32406250,0.02948128
1483.25286987,0.03133174
1485.18167725,0.03218688
1487.11048462,0.03176735
1489.03929199,0.03186877
1490.96809937,0.03192762
1492.89690674,0.03695533
1494.82571411,0.03611773
1496.75452148,0.03272177
1498.68332886,0.03689117
1500.61213623,0.03786080
1502.54094360,0.04083344
1504.46975098,0.03878375
1506.39855835,0.02838805
1508.32736572,0.03422313
1510.25617310,0.04025047
1512.18498047,0.03889681
1514.11378784,0.04209229
1516.04259521,0.03845344
1517.97140259,0.03983985
1519.90020996,0.03857349
1521.82901733,0.03351188
1523.75782471,0.04075444
1525.68663208,0.04015197
1527.61543945,0.03989755
1529.54424683,0.04409736
1531.47305420,0.04253193
1533.40186157,0.03941048
1535.33066895,0.04142081
1537.25947632,0.04435170
1539.18828369,0.03233794
1541.11709106,0.03329746
1543.04589844,0.04008640
1544.97470581,0.03836036
1546.90351318,0.04512871
1548.83232056,0.04256303
1550.76112793,0.04351977
1552.68993530,0.04335842
1554.61874268,0.03952491
1556.54755005,0.04232206
1558.47635742,0.03047145
1560.40516479,0.03234161
1562.33397217,0.04561773
1564.26277954,0.04354643
1566.19158691,0.04459566
1568.12039429,0.04436392
1570.04920166,0.03950245
1571.97800903,0.04508901
1573.90681641,0.04582352
1575.83562378,0.03656098
1577.76443115,0.04117739
1579.69323853,0.04646039
1581.62204590,0.04439553
1583.55085327,0.04569220
1585.47966064,0.04501591
1587.40846802,0.04530627
1589.33727539,0.04502574
1591.26608276,0.04500723
1593.19489014,0.04523650
1595.12369751,0.04467206
1597.05250488,0.04516327
1598.98131226,0.04499117
1600.91011963,0.04537402
1602.83892700,0.04460422
1604.76773437,0.04523023
1606.69654175,0.04456703
1608.62534912,0.04464078
1610.55415649,0.04467937
1612.48296387,0.04499475
1614.41177124,0.04584040
1616.34057861,0.03766211
1618.26938599,0.04055006
1620.19819336,0.04715527
1622.12700073,0.04190467
1624.05580811,0.04219721
1625.98461548,0.04422494
1627.91342285,0.04397120
1629.84223022,0.04386920
1631.77103760,0.04660979
1633.69984497,0.04343542
1635.62865234,0.03619598
1637.55745972,0.04150911
1639.48626709,0.04584320
1641.41507446,0.04467894
1643.34388184,0.04575288
1645.27268921,0.04177680
1647.20149658,0.03664624
1649.13030396,0.04502288
1651.05911133,0.04329576
1652.98791870,0.02823225
1654.91672607,0.03752020
1656.84553345,0.04716513
1658.77434082,0.04509725
1660.70314819,0.04651618
1662.63195557,0.04244554
1664.56076294,0.04447995
1666.48957031,0.04775192
1668.41837769,0.04192752
1670.34718506,0.04088484
1672.27599243,0.04599658
1674.20479980,0.04285445
1676.13360718,0.04103795
1678.06241455,0.04681636
1679.99122192,0.04538681
1681.92002930,0.04489357
1683.84883667,0.03701681
1685.77764404,0.03620137
1687.70645142,0.04936470
1689.63525879,0.04334882
1691.56406616,0.04705499
1693.49287354,0.04837935
1695.42168091,0.03552452
1697.35048828,0.04346685
1699.27929565,0.03880022
1701.20810303,0.03485053
1703.13691040,0.04716422
1705.06571777,0.04333272
1706.99452515,0.04352042
1708.92333252,0.04733147
1710.85213989,0.04552846
1712.78094727,0.04630652
1714.70975464,0.04304252
1716.63856201,0.03880281
1718.56736938,0.03814723
1720.49617676,0.04506484
1722.42498413,0.04697176
1724.35379150,0.04364533
1726.28259888,0.04736201
1728.21140625,0.04403549
1730.14021362,0.04418729
1732.06902100,0.04316805
1733.99782837,0.03330451
1735.92663574,0.04058743
1737.85544312,0.04492909
1739.78425049,0.04039578
1741.71305786,0.04380031
1743.64186523,0.04438934
1745.57067261,0.04446056
1747.49947998,0.04507027
1749.42828735,0.04320205
1751.35709473,0.04118767
1753.28590210,0.04557071
1755.21470947,0.04762276
1757.14351685,0.04348905
1759.07232422,0.04785868
1761.00113159,0.04519456
1762.92993896,0.04345929
1764.85874634,0.04953104
1766.78755371,0.04489814
1768.71636108,0.04514062
1770.64516846,0.04505662
1772.57397583,0.04075646
1774.50278320,0.04506801
1776.43159058,0.04784442
1778.36039795,0.04722788
1780.28920532,0.04653374
1782.21801270,0.04697813
1784.14682007,0.04683840
1786.07562744,0.04597340
1788.00443481,0.04833852
1789.93324219,0.04732341
1791.86204956,0.04282517
1793.79085693,0.04447849
1795.71966431,0.04782344
1797.64847168,0.04717493
1799.57727905,0.04657807
1801.50608643,0.04571322
1803.43489380,0.04717659
1805.36370117,0.04840863
1807.29250854,0.04768480
1809.22131592,0.04798551
1811.15012329,0.04686568
1813.07893066,0.04819226
1815.00773804,0.04828095
1816.93654541,0.04767676
1818.86535278,0.04809318
1820.79416016,0.04792887
1822.72296753,0.04885874
1824.65177490,0.04570955
1826.58058228,0.04717988
1828.50938965,0.04748182
1830.43819702,0.04452625
1832.36700439,0.04831679
1834.29581177,0.04821654
1836.22461914,0.04813014
1838.15342651,0.04806657
1840.08223389,0.04840923
1842.01104126,0.04841194
1843.93984863,0.04311728
1845.86865601,0.04584587
1847.79746338,0.04832901
1849.72627075,0.04725755
1851.65507812,0.04872143
1853.58388550,0.04786669
1855.51269287,0.04837332
1857.44150024,0.04813252
1859.37030762,0.04760531
1861.29911499,0.04805412
1863.22792236,0.04770419
1865.15672974,0.04803821
1867.08553711,0.04658542
1869.01434448,0.04480293
1870.94315186,0.04636507
1872.87195923,0.04809443
1874.80076660,0.04750189
1876.72957397,0.04786062
1878.65838135,0.04773802
1880.58718872,0.04732045
1882.51599609,0.04768885
1884.44480347,0.04718149
1886.37361084,0.04793330
1888.30241821,0.04679771
1890.23122559,0.04602148
1892.16003296,0.04776339
1894.08884033,0.04697044
1896.01764771,0.04695008
1897.94645508,0.04751234
1899.87526245,0.04715215
1901.80406982,0.04734222
1903.73287720,0.04701710
1905.66168457,0.04736162
1907.59049194,0.04696852
1909.51929932,0.04653188
1911.44810669,0.04681183
1913.37691406,0.04681752
1915.30572144,0.04743744
1917.23452881,0.04553096
1919.16333618,0.04535181
1921.09214355,0.04721330
1923.02095093,0.04582113
1924.94975830,0.04664414
1926.87856567,0.04729502
1928.80737305,0.04664212
1930.73618042,0.04720805
1932.66498779,0.04659247
1934.59379517,0.04688329
1936.52260254,0.04663437
1938.45140991,0.04684221
1940.38021729,0.04690627
1942.30902466,0.04546024
1944.23783203,0.04633424
1946.16663940,0.04677098
1948.09544678,0.04680669
1950.02425415,0.04719165
1951.95306152,0.04677439
1953.88186890,0.04682956
1955.81067627,0.04672084
1957.73948364,0.04675525
1959.66829102,0.04677916
1961.59709839,0.04676145
1963.52590576,0.04682851
1965.45471313,0.04646451
1967.38352051,0.04607821
1969.31232788,0.04642010
1971.24113525,0.04686896
1973.16994263,0.04669330
1975.09875000,0.04676599
1977.02755737,0.04664115
1978.95636475,0.04671148
1980.88517212,0.04671099
1982.81397949,0.04648679
1984.74278687,0.04669323
1986.67159424,0.04631094
1988.60040161,0.04637856
1990.52920898,0.04608358
1992.45801636,0.04551441
1994.38682373,0.04623050
1996.31563110,0.04629532
1998.24443848,0.04609696
2000.17324585,0.04623794
2002.10205322,0.04612081
2004.03086060,0.04617840
2005.95966797,0.04610470
2007.88847534,0.04611713
2009.81728271,0.04617015
2011.74609009,0.04590202
2013.67489746,0.04584401
2015.60370483,0.04554859
2017.53251221,0.04520362
2019.46131958,0.04560632
2021.39012695,0.04567914
2023.31893433,0.04547911
2025.24774170,0.04555075
2027.17654907,0.04547374
2029.10535645,0.04530231
2031.03416382,0.04513967
2032.96297119,0.04521150
2034.89177856,0.04511002
2036.82058594,0.04498611
2038.74939331,0.04499977
2040.67820068,0.04478759
2042.60700806,0.04490725
2044.53581543,0.04485652
2046.46462280,0.04461905
2048.39343018,0.04470924
2050.32223755,0.04461917
2052.25104492,0.04461988
2054.17985229,0.04459138
2056.10865967,0.04440451
2058.03746704,0.04439472
2059.96627441,0.04433723
2061.89508179,0.04428530
2063.82388916,0.04413450
2065.75269653,0.04409323
2067.68150391,0.04420686
2069.61031128,0.04400524
2071.53911865,0.04388313
2073.46792603,0.04386640
2075.39673340,0.04385138
2077.32554077,0.04383793
2079.25434814,0.04367831
2081.18315552,0.04371800
2083.11196289,0.04365145
2085.04077026,0.04351463
2086.96957764,0.04371424
2088.89838501,0.04359414
2090.82719238,0.04331722
2092.75599976,0.04343756
2094.68480713,0.04336043
2096.61361450,0.04322090
2098.54242187,0.04325744
2100.47122925,0.04319492
2102.40003662,0.04324546
2104.32884399,0.04318650
2106.25765137,0.04315037
2108.18645874,0.04312643
2110.11526611,0.04297257
2112.04407349,0.04301448
2113.97288086,0.04292051
2115.90168823,0.04280569
2117.83049561,0.04275841
2119.75930298,0.04276663
2121.68811035,0.04280651
2123.61691772,0.04269296
2125.54572510,0.04270977
2127.47453247,0.04263047
2129.40333984,0.04252613
2131.33214722,0.04255211
2133.26095459,0.04257402
2135.18976196,0.04263213
2137.11856934,0.04261363
2139.04737671,0.04256929
2140.97618408,0.04248004
2142.90499146,0.04241236
2144.83379883,0.04239894
2146.76260620,0.04236586
2148.69141357,0.04234150
2150.62022095,0.04236062
2152.54902832,0.04235471
2154.47783569,0.04220079
2156.40664307,0.04209249
2158.33545044,0.04218781
2160.26425781,0.04222108
2162.19306519,0.04212487
2164.12187256,0.04211153
2166.05067993,0.04203908
2167.97948730,0.04201242
2169.90829468,0.04193540
2171.83710205,0.04195206
2173.76590942,0.04212386
2175.69471680,0.04190691
2177.62352417,0.04192310
2179.55233154,0.04189072
2181.48113892,0.04179908
2183.40994629,0.04202709
2185.33875366,0.04183029
2187.26756104,0.04176307
2189.19636841,0.04181820
2191.12517578,0.04176673
2193.05398315,0.04171783
2194.98279053,0.04169422
2196.91159790,0.04175345
2198.84040527,0.04154126
2200.76921265,0.04156633
2202.69802002,0.04168280
2204.62682739,0.04158926
2206.55563477,0.04151752
2208.48444214,0.04154775
2210.41324951,0.04154334
2212.34205688,0.04136652
2214.27086426,0.04136907
2216.19967163,0.04134887
2218.12847900,0.04132345
2220.05728638,0.04122612
2221.98609375,0.04115427
2223.91490112,0.04127799
2225.84370850,0.04119903
2227.77251587,0.04118115
2229.70132324,0.04118247
2231.63013062,0.04109479
2233.55893799,0.04106718
2235.48774536,0.04101711
2237.41655273,0.04088306
2239.34536011,0.04089271
2241.27416748,0.04097080
2243.20297485,0.04092360
2245.13178223,0.04088702
2247.06058960,0.04077318
2248.98939697,0.04078717
2250.91820435,0.04072563
2252.84701172,0.04072409
2254.77581909,0.04067907
2256.70462646,0.04048276
2258.63343384,0.04058772
2260.56224121,0.04058054
2262.49104858,0.04064319
2264.41985596,0.04050737
2266.34866333,0.04046353
2268.27747070,0.04046312
2270.20627808,0.04021970
2272.13508545,0.04040397
2274.06389282,0.04025543
2275.99270020,0.04029784
2277.92150757,0.04024235
2279.85031494,0.04002204
2281.77912231,0.04032037
2283.70792969,0.04023375
2285.63673706,0.04025222
2287.56554443,0.04019777
2289.49435181,0.04005798
2291.42315918,0.04000451
2293.35196655,0.03994269
2295.28077393,0.03989049
2297.20958130,0.03961896
2299.13838867,0.03959604
2301.06719604,0.03941636
2302.99600342,0.03933813
2304.92481079,0.03922330
2306.85361816,0.03894503
2308.78242554,0.03874854
2310.71123291,0.03834778
2312.64004028,0.03814274
2314.56884766,0.03781164
2316.49765503,0.03737497
2318.42646240,0.03677968
2320.35526978,0.03648376
2322.28407715,0.03620030
2324.21288452,0.03547084
2326.14169189,0.03531279
2328.07049927,0.03492335
2329.99930664,0.03440871
2331.92811401,0.03430026
2333.85692139,0.03421737
2335.78572876,0.03398267
2337.71453613,0.03390536
2339.64334351,0.03406173
2341.57215088,0.03408584
2343.50095825,0.03467315
2345.42976562,0.03526281
2347.35857300,0.03654711
2349.28738037,0.03770928
2351.21618774,0.03655259
2353.14499512,0.03496921
2355.07380249,0.03371885
2357.00260986,0.03277420
2358.93141724,0.03209157
2360.86022461,0.03167612
2362.78903198,0.03175291
2364.71783936,0.03175246
2366.64664673,0.03223477
2368.57545410,0.03297052
2370.50426147,0.03371336
2372.43306885,0.03451177
2374.36187622,0.03541807
2376.29068359,0.03650524
2378.21949097,0.03720846
2380.14829834,0.03773528
2382.07710571,0.03813717
2384.00591309,0.03841261
2385.93472046,0.03867617
2387.86352783,0.03873746
2389.79233521,0.03860244
2391.72114258,0.03857519
2393.64994995,0.03862549
2395.57875732,0.03860540
2397.50756470,0.03851645
2399.43637207,0.03837634
2401.36517944,0.03853625
2403.29398682,0.03849667
2405.22279419,0.03836928
2407.15160156,0.03839211
2409.08040894,0.03823393
2411.00921631,0.03821944
2412.93802368,0.03820261
2414.86683105,0.03832413
2416.79563843,0.03831336
2418.72444580,0.03812516
2420.65325317,0.03815181
2422.58206055,0.03815831
2424.51086792,0.03815312
2426.43967529,0.03806839
2428.36848267,0.03811243
2430.29729004,0.03808162
2432.22609741,0.03791607
2434.15490479,0.03789269
2436.08371216,0.03798245
2438.01251953,0.03795765
2439.94132690,0.03774390
2441.87013428,0.03788926
2443.79894165,0.03789677
2445.72774902,0.03770486
2447.65655640,0.03766882
2449.58536377,0.03759239
2451.51417114,0.03765639
2453.44297852,0.03764459
2455.37178589,0.03759267
2457.30059326,0.03757727
2459.22940063,0.03756819
2461.15820801,0.03751579
2463.08701538,0.03749280
2465.01582275,0.03755100
2466.94463013,0.03746878
2468.87343750,0.03738780
2470.80224487,0.03733338
2472.73105225,0.03738534
2474.65985962,0.03736464
2476.58866699,0.03733282
2478.51747437,0.03732138
2480.44628174,0.03719037
2482.37508911,0.03722223
2484.30389648,0.03720441
2486.23270386,0.03713498
2488.16151123,0.03697975
2490.09031860,0.03702498
2492.01912598,0.03711509
2493.94793335,0.03693797
2495.87674072,0.03706129
2497.80554810,0.03700318
2499.73435547,0.03694319
2501.66316284,0.03696400
2503.59197021,0.03677318
2505.52077759,0.03687595
2507.44958496,0.03685601
2509.37839233,0.03673782
2511.30719971,0.03671579
2513.23600708,0.03666975
2515.16481445,0.03668576
2517.09362183,0.03662793
2519.02242920,0.03657071
2520.95123657,0.03660145
2522.88004395,0.03668595
2524.80885132,0.03660730
2526.73765869,0.03651589
2528.66646606,0.03655548
2530.59527344,0.03644368
2532.52408081,0.03644064
2534.45288818,0.03645717
2536.38169556,0.03626482
2538.31050293,0.03632367
2540.23931030,0.03635012
2542.16811768,0.03624212
2544.09692505,0.03628671
2546.02573242,0.03618371
2547.95453979,0.03620789
2549.88334717,0.03617193
2551.81215454,0.03604683
2553.74096191,0.03614542
2555.66976929,0.03600755
2557.59857666,0.03601477
2559.52738403,0.03605060
2561.45619141,0.03593275
2563.38499878,0.03602277
2565.31380615,0.03600598
2567.24261353,0.03596226
2569.17142090,0.03588538
2571.10022827,0.03589085
2573.02903564,0.03583392
2574.95784302,0.03565534
2576.88665039,0.03580756
2578.81545776,0.03579454
2580.74426514,0.03570830
2582.67307251,0.03568587
2584.60187988,0.03560315
2586.53068726,0.03577676
2588.45949463,0.03573989
2590.38830200,0.03553014
2592.31710937,0.03547928
2594.24591675,0.03543338
2596.17472412,0.03542289
2598.10353149,0.03543423
2600.03233887,0.03534673
2601.96114624,0.03526045
2603.88995361,0.03539025
2605.81876099,0.03533882
2607.74756836,0.03524291
2609.67637573,0.03532258
2611.60518311,0.03521881
2613.53399048,0.03523913
2615.46279785,0.03516269
2617.39160522,0.03499278
2619.32041260,0.03506958
2621.24921997,0.03506028
2623.17802734,0.03501450
2625.10683472,0.03499156
2627.03564209,0.03498752
2628.96444946,0.03490429
2630.89325684,0.03485477
2632.82206421,0.03491464
2634.75087158,0.03486523
2636.67967895,0.03481399
2638.60848633,0.03477406
2640.53729370,0.03481061
2642.46610107,0.03477003
2644.39490845,0.03473007
2646.32371582,0.03470719
2648.25252319,0.03461772
2650.18133057,0.03464138
2652.11013794,0.03445354
2654.03894531,0.03447398
2655.96775269,0.03463970
2657.89656006,0.03449483
2659.82536743,0.03439417
2661.75417480,0.03433578
2663.68298218,0.03440669
2665.61178955,0.03440896
2667.54059692,0.03434278
2669.46940430,0.03426919
2671.39821167,0.03412719
2673.32701904,0.03421278
2675.25582642,0.03419795
2677.18463379,0.03405744
2679.11344116,0.03409231
2681.04224854,0.03414309
2682.97105591,0.03409528
2684.89986328,0.03402693
2686.82867065,0.03399193
2688.75747803,0.03404291
2690.68628540,0.03396164
2692.61509277,0.03380687
2694.54390015,0.03394185
2696.47270752,0.03387938
2698.40151489,0.03376223
2700.33032227,0.03377122
2702.25912964,0.03363763
2704.18793701,0.03377640
2706.11674438,0.03386539
2708.04555176,0.03368981
2709.97435913,0.03359212
2711.90316650,0.03353547
2713.83197388,0.03348693
2715.76078125,0.03353013
2717.68958862,0.03356977
2719.61839600,0.03353646
2721.54720337,0.03343344
2723.47601074,0.03329255
2725.40481812,0.03337023
2727.33362549,0.03336670
2729.26243286,0.03333317
2731.19124023,0.03331950
2733.12004761,0.03320023
2735.04885498,0.03323060
2736.97766235,0.03305658
2738.90646973,0.03306168
2740.83527710,0.03310427
2742.76408447,0.03297886
2744.69289185,0.03311931
2746.62169922,0.03298624
2748.55050659,0.03289431
2750.47931396,0.03294056
2752.40812134,0.03283767
2754.33692871,0.03279337
2756.26573608,0.03281818
2758.19454346,0.03278774
2760.12335083,0.03261412
2762.05215820,0.03268702
2763.98096558,0.03268820
2765.90977295,0.03255272
2767.83858032,0.03260837
2769.76738770,0.03255758
2771.69619507,0.03252077
2773.62500244,0.03253502
2775.55380981,0.03244184
2777.48261719,0.03228824
2779.41142456,0.03221979
2781.34023193,0.03222093
2783.26903931,0.03221354
2785.19784668,0.03220960
2787.12665405,0.03218080
2789.05546143,0.03209936
2790.98426880,0.03206644
2792.91307617,0.03216721
2794.84188354,0.03211131
2796.77069092,0.03199083
2798.69949829,0.03197398
2800.62830566,0.03195601
2802.55711304,0.03181886
2804.48592041,0.03168700
2806.41472778,0.03173759
2808.34353516,0.03169892
2810.27234253,0.03175617
2812.20114990,0.03168149
2814.12995728,0.03150877
2816.05876465,0.03158222
2817.98757202,0.03149268
2819.91637939,0.03144926
2821.84518677,0.03138169
2823.77399414,0.03131106
2825.70280151,0.03131747
2827.63160889,0.03122299
2829.56041626,0.03115472
2831.48922363,0.03109498
2833.41803101,0.03115814
2835.34683838,0.03098509
2837.27564575,0.03090985
2839.20445312,0.03100949
2841.13326050,0.03074557
2843.06206787,0.03071797
2844.99087524,0.03074916
2846.91968262,0.03057063
2848.84848999,0.03045792
2850.77729736,0.03034996
2852.70610474,0.03032910
2854.63491211,0.03035244
2856.56371948,0.03030471
2858.49252686,0.03022198
2860.42133423,0.03017538
2862.35014160,0.03017347
2864.27894897,0.03018077
2866.20775635,0.03014232
2868.13656372,0.03011382
2870.06537109,0.03000848
2871.99417847,0.02997824
2873.92298584,0.03001792
2875.85179321,0.02983611
2877.78060059,0.02986477
2879.70940796,0.02989579
2881.63821533,0.02975520
2883.56702270,0.02980383
2885.49583008,0.02980014
2887.42463745,0.02974949
2889.35344482,0.02976196
2891.28225220,0.02976129
2893.21105957,0.02959254
2895.13986694,0.02945043
2897.06867432,0.02947478
2898.99748169,0.02948819
2900.92628906,0.02949722
2902.85509644,0.02935015
2904.78390381,0.02924858
2906.71271118,0.02918449
2908.64151855,0.02907531
2910.57032593,0.02907645
2912.49913330,0.02892205
2914.42794067,0.02880897
2916.35674805,0.02874718
2918.28555542,0.02863814
2920.21436279,0.02867542
2922.14317017,0.02857287
2924.07197754,0.02855985
2926.00078491,0.02859811
2927.92959229,0.02840135
2929.85839966,0.02843665
2931.78720703,0.02845145
2933.71601440,0.02840111
2935.64482178,0.02849756
2937.57362915,0.02848921
2939.50243652,0.02850947
2941.43124390,0.02848834
2943.36005127,0.02855979
2945.28885864,0.02861725
2947.21766602,0.02847396
2949.14647339,0.02833436
2951.07528076,0.02818353
2953.00408813,0.02823804
2954.93289551,0.02822551
2956.86170288,0.02811367
2958.79051025,0.02808751
2960.71931763,0.02799266
2962.64812500,0.02796962
2964.57693237,0.02793915
2966.50573975,0.02786388
2968.43454712,0.02779000
2970.36335449,0.02789701
2972.29216187,0.02800763
2974.22096924,0.02796983
2976.14977661,0.02798321
2978.07858398,0.02797403
2980.00739136,0.02798929
2981.93619873,0.02800312
2983.86500610,0.02809215
2985.79381348,0.02802365
2987.72262085,0.02795836
2989.65142822,0.02801828
2991.58023560,0.02786093
2993.50904297,0.02786466
2995.43785034,0.02785800
2997.36665771,0.02779853
2999.29546509,0.02778907
3001.22427246,0.02774607
3003.15307983,0.02769434
3005.08188721,0.02768913
3007.01069458,0.02769260
3008.93950195,0.02746764
3010.86830933,0.02756429
3012.79711670,0.02751975
3014.72592407,0.02733644
3016.65473145,0.02736299
3018.58353882,0.02727617
3020.51234619,0.02744859
3022.44115356,0.02730866
3024.36996094,0.02728897
3026.29876831,0.02732242
3028.22757568,0.02713318
3030.15638306,0.02721602
3032.08519043,0.02699550
3034.01399780,0.02701039
3035.94280518,0.02694637
3037.87161255,0.02682628
3039.80041992,0.02694141
3041.72922729,0.02685611
3043.65803467,0.02693339
3045.58684204,0.02673580
3047.51564941,0.02663380
3049.44445679,0.02670158
3051.37326416,0.02666729
3053.30207153,0.02667291
3055.23087891,0.02651555
3057.15968628,0.02648704
3059.08849365,0.02648859
3061.01730103,0.02648832
3062.94610840,0.02642520
3064.87491577,0.02635002
3066.80372314,0.02623320
3068.73253052,0.02619705
3070.66133789,0.02628816
3072.59014526,0.02621872
3074.51895264,0.02630211
3076.44776001,0.02617323
3078.37656738,0.02613542
3080.30537476,0.02608968
3082.23418213,0.02583587
3084.16298950,0.02605720
3086.09179687,0.02603379
3088.02060425,0.02588117
3089.94941162,0.02583419
3091.87821899,0.02580204
3093.80702637,0.02585183
3095.73583374,0.02568931
3097.66464111,0.02570669
3099.59344849,0.02572569
3101.52225586,0.02558396
3103.45106323,0.02551027
3105.37987061,0.02550445
3107.30867798,0.02548721
3109.23748535,0.02548425
3111.16629272,0.02545349
3113.09510010,0.02524275
3115.02390747,0.02525912
3116.95271484,0.02529296
3118.88152222,0.02512367
3120.81032959,0.02509433
3122.73913696,0.02505995
3124.66794434,0.02498665
3126.59675171,0.02493706
3128.52555908,0.02484941
3130.45436645,0.02487816
3132.38317383,0.02487931
3134.31198120,0.02467772
3136.24078857,0.02466705
3138.16959595,0.02469562
3140.09840332,0.02461071
3142.02721069,0.02452969
3143.95601807,0.02443194
3145.88482544,0.02451470
3147.81363281,0.02446119
3149.74244019,0.02436239
3151.67124756,0.02432357
3153.60005493,0.02420823
3155.52886230,0.02425907
3157.45766968,0.02419038
3159.38647705,0.02409664
3161.31528442,0.02410723
3163.24409180,0.02398155
3165.17289917,0.02391907
3167.10170654,0.02393790
3169.03051392,0.02390107
3170.95932129,0.02380895
3172.88812866,0.02370020
3174.81693604,0.02372006
3176.74574341,0.02363897
3178.67455078,0.02344441
3180.60335815,0.02351629
3182.53216553,0.02350670
3184.46097290,0.02341588
3186.38978027,0.02344152
3188.31858765,0.02340562
3190.24739502,0.02332536
3192.17620239,0.02322936
3194.10500977,0.02322626
3196.03381714,0.02306020
3197.96262451,0.02297226
3199.89143188,0.02309852
3201.82023926,0.02304522
3203.74904663,0.02295175
3205.67785400,0.02288741
3207.60666138,0.02291797
3209.53546875,0.02282444
3211.46427612,0.02274576
3213.39308350,0.02277664
3215.32189087,0.02270828
3217.25069824,0.02269633
3219.17950562,0.02260712
3221.10831299,0.02267486
3223.03712036,0.02267082
3224.96592773,0.02254597
3226.89473511,0.02263908
3228.82354248,0.02252325
3230.75234985,0.02244754
3232.68115723,0.02259690
3234.60996460,0.02257922
3236.53877197,0.02241764
3238.46757935,0.02235816
3240.39638672,0.02236737
3242.32519409,0.02233200
3244.25400146,0.02227965
3246.18280884,0.02221810
3248.11161621,0.02217852
3250.04042358,0.02222296
3251.96923096,0.02224580
3253.89803833,0.02213161
3255.82684570,0.02217234
3257.75565308,0.02219056
3259.68446045,0.02212543
3261.61326782,0.02209267
3263.54207520,0.02202497
3265.47088257,0.02211828
3267.39968994,0.02206869
3269.32849731,0.02206012
3271.25730469,0.02203656
3273.18611206,0.02197849
3275.11491943,0.02203691
3277.04372681,0.02187934
3278.97253418,0.02195630
3280.90134155,0.02198021
3282.83014893,0.02193400
3284.75895630,0.02192562
3286.68776367,0.02182343
3288.61657104,0.02189667
3290.54537842,0.02177664
3292.47418579,0.02176772
3294.40299316,0.02178247
3296.33180054,0.02176046
3298.26060791,0.02176059
3300.18941528,0.02168585
3302.11822266,0.02182155
3304.04703003,0.02172566
3305.97583740,0.02168253
3307.90464478,0.02160125
3309.83345215,0.02142336
3311.76225952,0.02153461
3313.69106689,0.02153589
3315.61987427,0.02159815
3317.54868164,0.02156598
3319.47748901,0.02148272
3321.40629639,0.02153531
3323.33510376,0.02146761
3325.26391113,0.02148742
3327.19271851,0.02149004
3329.12152588,0.02141412
3331.05033325,0.02134528
3332.97914062,0.02129352
3334.90794800,0.02136365
3336.83675537,0.02131179
3338.76556274,0.02126256
3340.69437012,0.02131780
3342.62317749,0.02121440
3344.55198486,0.02120415
3346.48079224,0.02120335
3348.40959961,0.02121497
3350.33840698,0.02117356
3352.26721436,0.02098279
3354.19602173,0.02105429
3356.12482910,0.02106161
3358.05363647,0.02109584
3359.98244385,0.02103269
3361.91125122,0.02086459
3363.84005859,0.02096111
3365.76886597,0.02082696
3367.69767334,0.02079060
3369.62648071,0.02086984
3371.55528809,0.02084861
3373.48409546,0.02078451
3375.41290283,0.02072862
3377.34171020,0.02075216
3379.27051758,0.02061339
3381.19932495,0.02061892
3383.12813232,0.02069483
3385.05693970,0.02065724
3386.98574707,0.02045950
3388.91455444,0.02050209
3390.84336182,0.02059202
3392.77216919,0.02036588
3394.70097656,0.02047867
3396.62978394,0.02037278
3398.55859131,0.02027656
3400.48739868,0.02040910
3402.41620605,0.02037578
3404.34501343,0.02032305
3406.27382080,0.02019024
3408.20262817,0.02025466
3410.13143555,0.02022179
3412.06024292,0.02021129
3413.98905029,0.02013350
3415.91785767,0.02012414
3417.84666504,0.02012567
3419.77547241,0.01987753
3421.70427979,0.02005215
3423.63308716,0.01996576
3425.56189453,0.01997001
3427.49070190,0.02002117
3429.41950928,0.01979005
3431.34831665,0.01989001
3433.27712402,0.01983504
3435.20593140,0.01982630
3437.13473877,0.01969486
3439.06354614,0.01971862
3440.99235352,0.01977561
3442.92116089,0.01957601
3444.84996826,0.01963043
3446.77877563,0.01940063
3448.70758301,0.01946094
3450.63639038,0.01968047
3452.56519775,0.01953733
3454.49400513,0.01957952
3456.42281250,0.01960556
3458.35161987,0.01955153
3460.28042725,0.01950884
3462.20923462,0.01946690
3464.13804199,0.01943094
3466.06684937,0.01943190
3467.99565674,0.01948512
3469.92446411,0.01945316
3471.85327148,0.01933367
3473.78207886,0.01931283
3475.71088623,0.01929217
3477.63969360,0.01935875
3479.56850098,0.01937446
3481.49730835,0.01912102
3483.42611572,0.01918436
3485.35492310,0.01928535
3487.28373047,0.01924213
3489.21253784,0.01924556
3491.14134521,0.01922983
3493.07015259,0.01923526
3494.99895996,0.01921851
3496.92776733,0.01925489
3498.85657471,0.01918163
3500.78538208,0.01918106
3502.71418945,0.01892124
3504.64299683,0.01888712
3506.57180420,0.01923382
3508.50061157,0.01901438
3510.42941895,0.01904078
3512.35822632,0.01914111
3514.28703369,0.01914892
3516.21584106,0.01919842
3518.14464844,0.01905259
3520.07345581,0.01919537
3522.00226318,0.01910668
3523.93107056,0.01881018
3525.85987793,0.01884614
3527.78868530,0.01890389
3529.71749268,0.01885117
3531.64630005,0.01910647
3533.57510742,0.01925059
3535.50391479,0.01910399
3537.43272217,0.01911499
3539.36152954,0.01916607
3541.29033691,0.01919444
3543.21914429,0.01901325
3545.14795166,0.01872655
3547.07675903,0.01839554
3549.00556641,0.01886263
3550.93437378,0.01914646
3552.86318115,0.01863702
3554.79198853,0.01908075
3556.72079590,0.01913387
3558.64960327,0.01896338
3560.57841064,0.01890768
3562.50721802,0.01878449
3564.43602539,0.01891835
3566.36483276,0.01775787
3568.29364014,0.01738771
3570.22244751,0.01861740
3572.15125488,0.01913542
3574.08006226,0.01892284
3576.00886963,0.01894641
3577.93767700,0.01901304
3579.86648437,0.01888971
3581.79529175,0.01896556
3583.72409912,0.01908681
3585.65290649,0.01865672
3587.58171387,0.01722348
3589.51052124,0.01756362
3591.43932861,0.01907250
3593.36813599,0.01864580
3595.29694336,0.01822999
3597.22575073,0.01857026
3599.15455811,0.01874243
3601.08336548,0.01857527
3603.01217285,0.01876934
3604.94098022,0.01911278
3606.86978760,0.01852255
3608.79859497,0.01740195
3610.72740234,0.01782463
3612.65620972,0.01825793
3614.58501709,0.01765488
3616.51382446,0.01886101
3618.44263184,0.01746080
3620.37143921,0.01697626
3622.30024658,0.01899601
3624.22905395,0.01849543
3626.15786133,0.01943257
3628.08666870,0.01647029
3630.01547607,0.01508390
3631.94428345,0.01874463
3633.87309082,0.01831036
3635.80189819,0.01871605
3637.73070557,0.01897999
3639.65951294,0.01879417
3641.58832031,0.01896718
3643.51712769,0.01869075
3645.44593506,0.01891482
3647.37474243,0.01701564
3649.30354980,0.01575651
3651.23235718,0.01593683
3653.16116455,0.01874377
3655.08997192,0.01863089
3657.01877930,0.01665359
3658.94758667,0.01898974
3660.87639404,0.01874379
3662.80520142,0.01893688
3664.73400879,0.01883853
3666.66281616,0.01876178
3668.59162354,0.01826210
3670.52043091,0.01494226
3672.44923828,0.01791557
3674.37804565,0.01721694
3676.30685303,0.01439271
3678.23566040,0.01787511
3680.16446777,0.01830339
3682.09327515,0.01832366
3684.02208252,0.01875575
3685.95088989,0.01846277
3687.87969727,0.01677966
3689.80850464,0.01542162
3691.73731201,0.01745799
3693.66611938,0.01788540
3695.59492676,0.01837772
3697.52373413,0.01840899
3699.45254150,0.01817917
3701.38134888,0.01784125
3703.31015625,0.01715305
3705.23896362,0.01882629
3707.16777100,0.01793553
3709.09657837,0.01751681
3711.02538574,0.01660169
3712.95419312,0.01548802
3714.88300049,0.01807434
3716.81180786,0.01779398
3718.74061523,0.01790559
3720.66942261,0.01754838
3722.59822998,0.01696070
3724.52703735,0.01766956
3726.45584473,0.01641694
3728.38465210,0.01771512
3730.31345947,0.01753676
3732.24226685,0.01622852
3734.17107422,0.01577715
3736.09988159,0.01505784
3738.02868896,0.01603515
3739.95749634,0.01713198
3741.88630371,0.01802053
3743.81511108,0.01419618
3745.74391846,0.01327133
3747.67272583,0.01716544
3749.60153320,0.01488383
3751.53034058,0.01375026
3753.45914795,0.01574270
3755.38795532,0.01676254
3757.31676270,0.01736644
3759.24557007,0.01626377
3761.17437744,0.01678360
3763.10318481,0.01773508
3765.03199219,0.01663034
3766.96079956,0.01698737
3768.88960693,0.01684292
3770.81841431,0.01599647
3772.74722168,0.01730377
3774.67602905,0.01742948
3776.60483643,0.01743403
3778.53364380,0.01699973
3780.46245117,0.01625958
3782.39125854,0.01732910
3784.32006592,0.01692359
3786.24887329,0.01676119
3788.17768066,0.01722670
3790.10648804,0.01709454
3792.03529541,0.01697733
3793.96410278,0.01728819
3795.89291016,0.01628135
3797.82171753,0.01612090
3799.75052490,0.01694155
3801.67933228,0.01360255
3803.60813965,0.01580140
3805.53694702,0.01704739
3807.46575439,0.01405441
3809.39456177,0.01685132
3811.32336914,0.01656406
3813.25217651,0.01711298
3815.18098389,0.01553637
3817.10979126,0.01374944
3819.03859863,0.01700542
3820.96740601,0.01398874
3822.89621338,0.01479967
3824.82502075,0.01701590
3826.75382812,0.01547158
3828.68263550,0.01657269
3830.61144287,0.01603374
3832.54025024,0.01550089
3834.46905762,0.01581568
3836.39786499,0.01520688
3838.32667236,0.01362205
3840.25547974,0.01474599
3842.18428711,0.01596721
3844.11309448,0.01512593
3846.04190186,0.01638198
3847.97070923,0.01619163
3849.89951660,0.01614407
3851.82832397,0.01460092
3853.75713135,0.01119406
3855.68593872,0.01309496
3857.61474609,0.01615738
3859.54355347,0.01583309
3861.47236084,0.01560340
3863.40116821,0.01519059
3865.32997559,0.01424782
3867.25878296,0.01587299
3869.18759033,0.01458322
3871.11639770,0.01351147
3873.04520508,0.01584230
3874.97401245,0.01465587
3876.90281982,0.01576754
3878.83162720,0.01610367
3880.76043457,0.01388815
3882.68924194,0.01581213
3884.61804932,0.01493080
3886.54685669,0.01366072
3888.47566406,0.01582526
3890.40447144,0.01515313
3892.33327881,0.01423631
3894.26208618,0.01550072
3896.19089355,0.01575826
3898.11970093,0.01504112
3900.04850830,0.01424822
3901.97731567,0.01409366
3903.90612305,0.01402480
3905.83493042,0.01423632
3907.76373779,0.01548330
3909.69254517,0.01547286
3911.62135254,0.01532188
3913.55015991,0.01554191
3915.47896728,0.01505845
3917.40777466,0.01473301
3919.33658203,0.01459633
3921.26538940,0.01507239
3923.19419678,0.01509113
3925.12300415,0.01484280
3927.05181152,0.01496432
3928.98061890,0.01510752
3930.90942627,0.01491803
3932.83823364,0.01442112
3934.76704102,0.01499574
3936.69584839,0.01513193
3938.62465576,0.01498864
3940.55346313,0.01512814
3942.48227051,0.01452594
3944.41107788,0.01469661
3946.33988525,0.01495901
3948.26869263,0.01457841
3950.19750000,0.01465342
3952.12630737,0.01485182
3954.05511475,0.01492275
3955.98392212,0.01486042
3957.91272949,0.01465842
3959.84153687,0.01476757
3961.77034424,0.01464280
3963.69915161,0.01453571
3965.62795898,0.01475355
3967.55676636,0.01458347
3969.48557373,0.01458057
3971.41438110,0.01451819
3973.34318848,0.01452755
3975.27199585,0.01455002
3977.20080322,0.01440075
3979.12961060,0.01458067
3981.05841797,0.01451895
3982.98722534,0.01447181
3984.91603271,0.01430692
3986.84484009,0.01437869
3988.77364746,0.01447346
3990.70245483,0.01426451
3992.63126221,0.01440290
3994.56006958,0.01432048
3996.48887695,0.01433210
3998.41768433,0.01424001
4000.34649170,0.01423877
4002.27529907,0.01428852
4004.20410645,0.01415121
4006.13291382,0.01421694
4008.06172119,0.01400253
4009.99052856,0.01410071
4011.91933594,0.01415140
4013.84814331,0.01410690
4015.77695068,0.01404429
4017.70575806,0.01388091
4019.63456543,0.01399882
4021.56337280,0.01391759
4023.49218018,0.01398116
4025.42098755,0.01391562
4027.34979492,0.01395469
4029.27860229,0.01396264
4031.20740967,0.01380475
4033.13621704,0.01395405
4035.06502441,0.01383325
4036.99383179,0.01384607
4038.92263916,0.01379775
4040.85144653,0.01373899
4042.78025391,0.01376341
4044.70906128,0.01364535
4046.63786865,0.01370857
4048.56667603,0.01371628
4050.49548340,0.01364335
4052.42429077,0.01348156
4054.35309814,0.01351282
4056.28190552,0.01357579
4058.21071289,0.01353068
4060.13952026,0.01344523
4062.06832764,0.01341177
4063.99713501,0.01347282
4065.92594238,0.01342026
4067.85474976,0.01349109
4069.78355713,0.01337578
4071.71236450,0.01333295
4073.64117187,0.01326728
4075.56997925,0.01320349
4077.49878662,0.01332163
4079.42759399,0.01321649
4081.35640137,0.01332171
4083.28520874,0.01321525
4085.21401611,0.01314564
4087.14282349,0.01325326
4089.07163086,0.01313793
4091.00043823,0.01306676
4092.92924561,0.01309194
4094.85805298,0.01316918
4096.78686035,0.01296334
4098.71566772,0.01298509
4100.64447510,0.01299970
4102.57328247,0.01294008
4104.50208984,0.01301266
4106.43089722,0.01283967
4108.35970459,0.01289579
4110.28851196,0.01293218
4112.21731934,0.01287704
4114.14612671,0.01275719
4116.07493408,0.01270173
4118.00374145,0.01276034
4119.93254883,0.01269330
4121.86135620,0.01271274
4123.79016357,0.01268849
4125.71897095,0.01272220
4127.64777832,0.01267090
4129.57658569,0.01261888
4131.50539307,0.01258153
4133.43420044,0.01259425
4135.36300781,0.01262112
4137.29181519,0.01248806
4139.22062256,0.01257701
4141.14942993,0.01249760
4143.07823730,0.01246353
4145.00704468,0.01246987
4146.93585205,0.01241338
4148.86465942,0.01245310
4150.79346680,0.01235179
4152.72227417,0.01243575
4154.65108154,0.01235055
4156.57988892,0.01229474
4158.50869629,0.01237569
4160.43750366,0.01232999
4162.36631103,0.01226236
4164.29511841,0.01215068
4166.22392578,0.01224004
4168.15273315,0.01226455
4170.08154053,0.01220526
4172.01034790,0.01212061
4173.93915527,0.01211257
4175.86796265,0.01206589
4177.79677002,0.01198457
4179.72557739,0.01207553
4181.65438477,0.01202151
4183.58319214,0.01206423
4185.51199951,0.01198984
4187.44080688,0.01192748
4189.36961426,0.01202371
4191.29842163,0.01185905
4193.22722900,0.01179689
4195.15603638,0.01190671
4197.08484375,0.01191952
4199.01365112,0.01184700
4200.94245850,0.01180224
4202.87126587,0.01172752
4204.80007324,0.01182889
4206.72888062,0.01184375
4208.65768799,0.01171438
4210.58649536,0.01167170
4212.51530273,0.01159332
4214.44411011,0.01175248
4216.37291748,0.01166792
4218.30172485,0.01162356
4220.23053223,0.01163083
4222.15933960,0.01145566
4224.08814697,0.01163120
4226.01695435,0.01150580
4227.94576172,0.01141610
4229.87456909,0.01160436
4231.80337646,0.01154342
4233.73218384,0.01134836
4235.66099121,0.01135950
4237.58979858,0.01146980
4239.51860596,0.01138292
4241.44741333,0.01142845
4243.37622070,0.01134888
4245.30502808,0.01132624
4247.23383545,0.01129827
4249.16264282,0.01117842
4251.09145020,0.01128850
4253.02025757,0.01118275
4254.94906494,0.01122404
4256.87787231,0.01126933
4258.80667969,0.01113327
4260.73548706,0.01112717
4262.66429443,0.01112168
4264.59310181,0.01115781
4266.52190918,0.01113789
4268.45071655,0.01106268
4270.37952393,0.01102779
4272.30833130,0.01103962
4274.23713867,0.01096819
4276.16594604,0.01098597
4278.09475342,0.01093597
4280.02356079,0.01088181
4281.95236816,0.01098599
4283.88117554,0.01083334
4285.80998291,0.01088981
4287.73879028,0.01089305
4289.66759766,0.01073096
4291.59640503,0.01083078
4293.52521240,0.01077771
4295.45401978,0.01073711
4297.38282715,0.01081374
4299.31163452,0.01078464
4301.24044189,0.01070491
4303.16924927,0.01073083
4305.09805664,0.01069643
4307.02686401,0.01060638
4308.95567139,0.01060760
4310.88447876,0.01060032
4312.81328613,0.01054247
4314.74209351,0.01051196
4316.67090088,0.01066405
4318.59970825,0.01054795
4320.52851562,0.01045930
4322.45732300,0.01052030
4324.38613037,0.01035526
4326.31493774,0.01048527
4328.24374512,0.01050243
4330.17255249,0.01038616
4332.10135986,0.01045582
4334.03016724,0.01031958
4335.95897461,0.01023522
4337.88778198,0.01034656
4339.81658936,0.01035510
4341.74539673,0.01026688
4343.67420410,0.01022862
4345.60301147,0.01020609
4347.53181885,0.01024562
4349.46062622,0.01024055
4351.38943359,0.01019892
4353.31824097,0.01020497
4355.24704834,0.01016347
4357.17585571,0.01007640
4359.10466309,0.01002663
4361.03347046,0.01008633
4362.96227783,0.01006838
4364.89108520,0.01008606
4366.81989258,0.01001025
4368.74869995,0.00988488
4370.67750732,0.00998258
4372.60631470,0.00997470
4374.53512207,0.00992555
4376.46392944,0.00989017
4378.39273682,0.00988033
4380.32154419,0.00983817
4382.25035156,0.00983002
4384.17915894,0.00989143
4386.10796631,0.00988509
4388.03677368,0.00987050
4389.96558105,0.00976103
4391.89438843,0.00979930
4393.82319580,0.00971297
4395.75200317,0.00967116
4397.68081055,0.00975117
4399.60961792,0.00966187
4401.53842529,0.00976854
4403.46723267,0.00965520
4405.39604004,0.00960313
4407.32484741,0.00963413
4409.25365478,0.00957973
4411.18246216,0.00960752
4413.11126953,0.00954075
4415.04007690,0.00965864
4416.96888428,0.00950963
4418.89769165,0.00945320
4420.82649902,0.00951377
4422.75530640,0.00942628
4424.68411377,0.00955390
4426.61292114,0.00940356
4428.54172852,0.00936334
4430.47053589,0.00943054
4432.39934326,0.00941812
4434.32815063,0.00936333
4436.25695801,0.00921749
4438.18576538,0.00939438
4440.11457275,0.00938331
4442.04338013,0.00921164
4443.97218750,0.00922869
4445.90099487,0.00924962
4447.82980225,0.00924156
4449.75860962,0.00915211
4451.68741699,0.00915067
4453.61622437,0.00918607
4455.54503174,0.00913308
4457.47383911,0.00917609
4459.40264648,0.00915199
4461.33145386,0.00898597
4463.26026123,0.00904866
4465.18906860,0.00909385
4467.11787598,0.00902663
4469.04668335,0.00904651
4470.97549072,0.00903713
4472.90429810,0.00901981
4474.83310547,0.00896106
4476.76191284,0.00897018
4478.69072021,0.00894609
4480.61952759,0.00888807
4482.54833496,0.00887232
4484.47714233,0.00886413
4486.40594971,0.00888074
4488.33475708,0.00879241
4490.26356445,0.00881402
4492.19237183,0.00878437
4494.12117920,0.00876826
4496.04998657,0.00881818
4497.97879395,0.00871970
4499.90760132,0.00872926
4501.83640869,0.00868544
4503.76521606,0.00867727
4505.69402344,0.00866613
4507.62283081,0.00858829
4509.55163818,0.00860376
4511.48044556,0.00858842
4513.40925293,0.00862813
4515.33806030,0.00861669
4517.26686768,0.00858628
4519.19567505,0.00856414
4521.12448242,0.00857489
4523.05328979,0.00856056
4524.98209717,0.00846441
4526.91090454,0.00847533
4528.83971191,0.00846064
4530.76851929,0.00852482
4532.69732666,0.00850332
4534.62613403,0.00837839
4536.55494141,0.00842682
4538.48374878,0.00839970
4540.41255615,0.00832594
4542.34136353,0.00830541
4544.27017090,0.00833685
4546.19897827,0.00834155
4548.12778564,0.00827612
4550.05659302,0.00826811
4551.98540039,0.00829499
4553.91420776,0.00826954
4555.84301514,0.00820088
4557.77182251,0.00818773
4559.70062988,0.00820008
4561.62943726,0.00824026
4563.55824463,0.00817619
4565.48705200,0.00807856
4567.41585937,0.00813766
4569.34466675,0.00808688
4571.27347412,0.00803616
4573.20228149,0.00806642
4575.13108887,0.00802534
4577.05989624,0.00801953
4578.98870361,0.00804457
4580.91751099,0.00808335
4582.84631836,0.00801386
4584.77512573,0.00790004
4586.70393311,0.00794919
4588.63274048,0.00795919
4590.56154785,0.00789510
4592.49035522,0.00791548
4594.41916260,0.00791133
4596.34796997,0.00783824
4598.27677734,0.00784993
4600.20558472,0.00788106
4602.13439209,0.00784325
4604.06319946,0.00783942
4605.99200684,0.00782417
4607.92081421,0.00779230
4609.84962158,0.00776466
4611.77842895,0.00778203
4613.70723633,0.00778808
4615.63604370,0.00771741
4617.56485107,0.00768710
4619.49365845,0.00763706
4621.42246582,0.00775637
4623.35127319,0.00781327
4625.28008057,0.00766248
4627.20888794,0.00766362
4629.13769531,0.00759542
4631.06650269,0.00760226
4632.99531006,0.00759676
4634.92411743,0.00755408
4636.85292480,0.00757517
4638.78173218,0.00746925
4640.71053955,0.00751927
4642.63934692,0.00745959
4644.56815430,0.00746194
4646.49696167,0.00747177
4648.42576904,0.00736315
4650.35457642,0.00749468
4652.28338379,0.00739886
4654.21219116,0.00741526
4656.14099853,0.00748858
4658.06980591,0.00735511
4659.99861328,0.00734335
4661.92742065,0.00734791
4663.85622803,0.00735456
4665.78503540,0.00724148
4667.71384277,0.00729576
4669.64265015,0.00726712
4671.57145752,0.00711581
4673.50026489,0.00718919
4675.42907227,0.00715025
4677.35787964,0.00721840
4679.28668701,0.00722175
4681.21549438,0.00712709
4683.14430176,0.00714422
4685.07310913,0.00712317
4687.00191650,0.00713200
4688.93072388,0.00708449
4690.85953125,0.00708730
4692.78833862,0.00710257
4694.71714600,0.00708343
4696.64595337,0.00706644
4698.57476074,0.00705574
4700.50356812,0.00708415
4702.43237549,0.00705974
4704.36118286,0.00703952
4706.28999023,0.00695615
4708.21879761,0.00691495
4710.14760498,0.00694045
4712.07641235,0.00692873
4714.00521973,0.00693836
4715.93402710,0.00691858
4717.86283447,0.00689443
4719.79164185,0.00688230
4721.72044922,0.00692174
4723.64925659,0.00687935
4725.57806396,0.00678765
4727.50687134,0.00681448
4729.43567871,0.00678903
4731.36448608,0.00674083
4733.29329346,0.00678711
4735.22210083,0.00681953
4737.15090820,0.00676553
4739.07971558,0.00677041
4741.00852295,0.00672814
4742.93733032,0.00666582
4744.86613770,0.00676208
4746.79494507,0.00671236
4748.72375244,0.00664438
4750.65255981,0.00666573
4752.58136719,0.00662891
4754.51017456,0.00663247
4756.43898193,0.00662182
4758.36778931,0.00667106
4760.29659668,0.00668829
4762.22540405,0.00657733
4764.15421143,0.00650852
4766.08301880,0.00652622
4768.01182617,0.00652156
4769.94063354,0.00646406
4771.86944092,0.00654332
4773.79824829,0.00654715
4775.72705566,0.00646582
4777.65586304,0.00646312
4779.58467041,0.00637907
4781.51347778,0.00641089
4783.44228516,0.00645066
4785.37109253,0.00642097
4787.29989990,0.00642914
4789.22870728,0.00637255
4791.15751465,0.00636436
4793.08632202,0.00632945
4795.01512939,0.00629606
4796.94393677,0.00633966
4798.87274414,0.00635473
4800.80155151,0.00629797
4802.73035889,0.00623564
4804.65916626,0.00620312
4806.58797363,0.00621703
4808.51678101,0.00631142
4810.44558838,0.00621122
4812.37439575,0.00619455
4814.30320312,0.00627332
4816.23201050,0.00615254
4818.16081787,0.00622002
4820.08962524,0.00626279
4822.01843262,0.00616327
4823.94723999,0.00613192
4825.87604736,0.00617675
4827.80485474,0.00614181
4829.73366211,0.00603772
4831.66246948,0.00612999
4833.59127686,0.00611673
4835.52008423,0.00607197
4837.44889160,0.00609605
4839.37769897,0.00602169
4841.30650635,0.00599554
4843.23531372,0.00607294
4845.16412109,0.00602765
4847.09292847,0.00586810
4849.02173584,0.00598995
4850.95054321,0.00596696
4852.87935059,0.00588707
4854.80815796,0.00598865
4856.73696533,0.00591927
4858.66577270,0.00588572
4860.59458008,0.00583093
4862.52338745,0.00583207
4864.45219482,0.00578687
4866.38100220,0.00581597
4868.30980957,0.00590559
4870.23861694,0.00578957
4872.16742432,0.00590783
4874.09623169,0.00585989
4876.02503906,0.00573758
4877.95384644,0.00585253
4879.88265381,0.00584453
4881.81146118,0.00573673
4883.74026855,0.00568118
4885.66907593,0.00574669
4887.59788330,0.00569449
4889.52669067,0.00570516
4891.45549805,0.00569741
4893.38430542,0.00565675
4895.31311279,0.00573803
4897.24192017,0.00567436
4899.17072754,0.00563424
4901.09953491,0.00561735
4903.02834228,0.00563706
4904.95714966,0.00560696
4906.88595703,0.00564053
4908.81476440,0.00570030
4910.74357178,0.00559593
4912.67237915,0.00560535
4914.60118652,0.00550530
4916.52999390,0.00554061
4918.45880127,0.00556928
4920.38760864,0.00542578
4922.31641602,0.00546522
4924.24522339,0.00545035
4926.17403076,0.00553917
4928.10283813,0.00552792
4930.03164551,0.00550050
4931.96045288,0.00554993
4933.88926025,0.00536206
4935.81806763,0.00538365
4937.74687500,0.00543266
4939.67568237,0.00537295
4941.60448975,0.00538566
4943.53329712,0.00535204
4945.46210449,0.00536712
4947.39091187,0.00531328
4949.31971924,0.00533233
4951.24852661,0.00539572
4953.17733398,0.00523977
4955.10614136,0.00525725
4957.03494873,0.00529522
4958.96375610,0.00520831
4960.89256348,0.00525801
4962.82137085,0.00523255
4964.75017822,0.00527689
4966.67898560,0.00524302
4968.60779297,0.00511069
4970.53660034,0.00520380
4972.46540771,0.00523113
4974.39421509,0.00520183
4976.32302246,0.00516801
4978.25182983,0.00516064
4980.18063721,0.00512843
4982.10944458,0.00507732
4984.03825195,0.00512088
4985.96705933,0.00508090
4987.89586670,0.00511873
4989.82467407,0.00512158
4991.75348145,0.00505920
4993.68228882,0.00508130
4995.61109619,0.00506448
4997.53990356,0.00505826
4999.46871094,0.00502047
5001.39751831,0.00498370
5003.32632568,0.00498069
5005.25513306,0.00499286
5007.18394043,0.00497115
5009.11274780,0.00499206
5011.04155518,0.00501627
5012.97036255,0.00492399
5014.89916992,0.00492842
5016.82797729,0.00493969
5018.75678467,0.00494074
5020.68559204,0.00492710
5022.61439941,0.00486124
5024.54320679,0.00486562
5026.47201416,0.00487715
5028.40082153,0.00489618
5030.32962891,0.00486390
5032.25843628,0.00482342
5034.18724365,0.00480064
5036.11605103,0.00482492
5038.04485840,0.00487167
5039.97366577,0.00480254
5041.90247314,0.00477725
5043.83128052,0.00479665
5045.76008789,0.00478040
5047.68889526,0.00474756
5049.61770264,0.00470653
5051.54651001,0.00469370
5053.47531738,0.00469322
5055.40412476,0.00466615
5057.33293213,0.00470271
5059.26173950,0.00478031
5061.19054687,0.00471550
5063.11935425,0.00464303
5065.04816162,0.00463494
5066.97696899,0.00467742
5068.90577637,0.00464516
5070.83458374,0.00456705
5072.76339111,0.00461969
5074.69219849,0.00454622
5076.62100586,0.00453128
5078.54981323,0.00461708
5080.47862061,0.00454275
5082.40742798,0.00451704
5084.33623535,0.00455299
5086.26504272,0.00453683
5088.19385010,0.00452330
5090.12265747,0.00454264
5092.05146484,0.00450295
5093.98027222,0.00450417
5095.90907959,0.00452975
5097.83788696,0.00445459
5099.76669434,0.00444005
5101.69550171,0.00449397
5103.62430908,0.00451151
5105.55311645,0.00446081
5107.48192383,0.00445008
5109.41073120,0.00445503
5111.33953857,0.00440667
5113.26834595,0.00436091
5115.19715332,0.00437119
5117.12596069,0.00442172
5119.05476807,0.00432526
5120.98357544,0.00428399
5122.91238281,0.00437162
5124.84119019,0.00435796
5126.76999756,0.00430652
5128.69880493,0.00431474
5130.62761230,0.00434243
5132.55641968,0.00430308
5134.48522705,0.00430104
5136.41403442,0.00427205
5138.34284180,0.00425109
5140.27164917,0.00432774
5142.20045654,0.00428128
5144.12926392,0.00421471
5146.05807129,0.00421431
5147.98687866,0.00418559
5149.91568603,0.00416516
5151.84449341,0.00421251
5153.77330078,0.00424569
5155.70210815,0.00418740
5157.63091553,0.00413337
5159.55972290,0.00414192
5161.48853027,0.00418457
5163.41733765,0.00417195
5165.34614502,0.00413942
5167.27495239,0.00414318
5169.20375977,0.00414401
5171.13256714,0.00411085
5173.06137451,0.00408185
5174.99018188,0.00410186
5176.91898926,0.00413164
5178.84779663,0.00409296
5180.77660400,0.00399742
5182.70541138,0.00403468
5184.63421875,0.00402919
5186.56302612,0.00397198
5188.49183350,0.00401692
5190.42064087,0.00396076
5192.34944824,0.00400450
5194.27825562,0.00409163
5196.20706299,0.00400113
5198.13587036,0.00394913
5200.06467773,0.00399005
5201.99348511,0.00397116
5203.92229248,0.00393023
5205.85109985,0.00395546
5207.77990723,0.00388804
5209.70871460,0.00387813
5211.63752197,0.00390346
5213.56632935,0.00387381
5215.49513672,0.00395464
5217.42394409,0.00394370
5219.35275146,0.00385877
5221.28155884,0.00386119
5223.21036621,0.00386333
5225.13917358,0.00376216
5227.06798096,0.00374202
5228.99678833,0.00380662
5230.92559570,0.00382961
5232.85440308,0.00387770
5234.78321045,0.00382702
5236.71201782,0.00386586
5238.64082520,0.00383624
5240.56963257,0.00373104
5242.49843994,0.00378696
5244.42724731,0.00369998
5246.35605469,0.00373966
5248.28486206,0.00375356
5250.21366943,0.00363453
5252.14247681,0.00368952
5254.07128418,0.00363998
5256.00009155,0.00368845
5257.92889893,0.00377251
5259.85770630,0.00366371
5261.78651367,0.00365656
5263.71532104,0.00358933
5265.64412842,0.00351207
5267.57293579,0.00364867
5269.50174316,0.00367456
5271.43055054,0.00366395
5273.35935791,0.00363723
5275.28816528,0.00356104
5277.21697266,0.00373229
5279.14578003,0.00370102
5281.07458740,0.00358595
5283.00339478,0.00357734
5284.93220215,0.00346074
5286.86100952,0.00362522
5288.78981689,0.00358274
5290.71862427,0.00347046
5292.64743164,0.00362513
5294.57623901,0.00354772
5296.50504639,0.00360906
5298.43385376,0.00364453
5300.36266113,0.00354474
5302.29146851,0.00354045
5304.22027588,0.00350335
5306.14908325,0.00353957
5308.07789062,0.00344768
5310.00669800,0.00345803
5311.93550537,0.00353125
5313.86431274,0.00344498
5315.79312012,0.00349722
5317.72192749,0.00345423
5319.65073486,0.00340829
5321.57954224,0.00347175
5323.50834961,0.00350025
5325.43715698,0.00351259
5327.36596436,0.00341044
5329.29477173,0.00333532
5331.22357910,0.00333636
5333.15238647,0.00338622
5335.08119385,0.00337661
5337.01000122,0.00328253
5338.93880859,0.00327284
5340.86761597,0.00335928
5342.79642334,0.00341156
5344.72523071,0.00326992
5346.65403809,0.00322014
5348.58284546,0.00329280
5350.51165283,0.00333549
5352.44046020,0.00332425
5354.36926758,0.00320833
5356.29807495,0.00329798
5358.22688232,0.00337167
5360.15568970,0.00327863
5362.08449707,0.00323917
5364.01330444,0.00325673
5365.94211182,0.00335541
5367.87091919,0.00331282
5369.79972656,0.00319004
5371.72853394,0.00322135
5373.65734131,0.00328288
5375.58614868,0.00318916
5377.51495605,0.00314009
5379.44376343,0.00318353
5381.37257080,0.00317969
5383.30137817,0.00321987
5385.23018555,0.00315816
5387.15899292,0.00316585
5389.08780029,0.00318213
5391.01660767,0.00317317
5392.94541504,0.00319074
5394.87422241,0.00303586
5396.80302978,0.00312912
5398.73183716,0.00314691
5400.66064453,0.00313379
5402.58945190,0.00324407
5404.51825928,0.00308318
5406.44706665,0.00313977
5408.37587402,0.00310979
5410.30468140,0.00300996
5412.23348877,0.00308671
5414.16229614,0.00303585
5416.09110352,0.00304990
5418.01991089,0.00299729
5419.94871826,0.00305677
5421.87752563,0.00310204
5423.80633301,0.00297301
5425.73514038,0.00302021
5427.66394775,0.00299361
5429.59275513,0.00295638
5431.52156250,0.00307248
5433.45036987,0.00303109
5435.37917725,0.00286529
5437.30798462,0.00296671
5439.23679199,0.00302376
5441.16559936,0.00287568
5443.09440674,0.00297554
5445.02321411,0.00295754
5446.95202148,0.00283348
5448.88082886,0.00292245
5450.80963623,0.00293794
5452.73844360,0.00292700
5454.66725098,0.00295311
5456.59605835,0.00296294
5458.52486572,0.00289348
5460.45367310,0.00285081
5462.38248047,0.00294291
5464.31128784,0.00288267
5466.24009521,0.00285574
5468.16890259,0.00291309
5470.09770996,0.00281871
5472.02651733,0.00288262
5473.95532471,0.00290471
5475.88413208,0.00278803
5477.81293945,0.00283668
5479.74174683,0.00280463
5481.67055420,0.00279559
5483.59936157,0.00289438
5485.52816895,0.00287403
5487.45697632,0.00280329
5489.38578369,0.00282759
5491.31459106,0.00285112
5493.24339844,0.00271316
5495.17220581,0.00276188
5497.10101318,0.00282852
5499.02982056,0.00273609
5500.95862793,0.00281188
5502.88743530,0.00275505
5504.81624268,0.00275261
5506.74505005,0.00283076
5508.67385742,0.00270515
5510.60266479,0.00275590
5512.53147217,0.00278680
5514.46027954,0.00270373
5516.38908691,0.00270215
5518.31789429,0.00269457
5520.24670166,0.00273908
5522.17550903,0.00271319
5524.10431641,0.00269012
5526.03312378,0.00270735
5527.96193115,0.00263640
5529.89073853,0.00270176
5531.81954590,0.00269927
5533.74835327,0.00261850
5535.67716064,0.00271070
5537.60596802,0.00266408
5539.53477539,0.00264091
5541.46358276,0.00268254
5543.39239014,0.00263334
5545.32119751,0.00263843
5547.25000488,0.00256901
5549.17881226,0.00258530
5551.10761963,0.00259663
5553.03642700,0.00257877
5554.96523437,0.00264867
5556.89404175,0.00256987
5558.82284912,0.00259081
5560.75165649,0.00263313
5562.68046387,0.00258664
5564.60927124,0.00257621
5566.53807861,0.00250364
5568.46688599,0.00248736
5570.39569336,0.00255491
5572.32450073,0.00258286
5574.25330811,0.00251034
5576.18211548,0.00253955
5578.11092285,0.00254868
5580.03973022,0.00251480
5581.96853760,0.00254657
5583.89734497,0.00246645
5585.82615234,0.00252166
5587.75495972,0.00250085
5589.68376709,0.00247181
5591.61257446,0.00253828
5593.54138184,0.00245304
5595.47018921,0.00250462
5597.39899658,0.00244173
5599.32780395,0.00242324
5601.25661133,0.00249466
5603.18541870,0.00241174
5605.11422607,0.00246560
5607.04303345,0.00245343
5608.97184082,0.00241853
5610.90064819,0.00241755
5612.82945557,0.00241804
5614.75826294,0.00243499
5616.68707031,0.00241640
5618.61587769,0.00244422
5620.54468506,0.00242686
5622.47349243,0.00243026
5624.40229980,0.00236344
5626.33110718,0.00236531
5628.25991455,0.00243501
5630.18872192,0.00235970
5632.11752930,0.00236680
5634.04633667,0.00237375
5635.97514404,0.00235990
5637.90395142,0.00232418
5639.83275879,0.00233061
5641.76156616,0.00233357
5643.69037353,0.00225775
5645.61918091,0.00234524
5647.54798828,0.00234353
5649.47679565,0.00234077
5651.40560303,0.00241246
5653.33441040,0.00235501
5655.26321777,0.00236247
5657.19202515,0.00236618
5659.12083252,0.00231863
5661.04963989,0.00229040
5662.97844727,0.00234364
5664.90725464,0.00232245
5666.83606201,0.00221271
5668.76486938,0.00230675
5670.69367676,0.00228212
5672.62248413,0.00214356
5674.55129150,0.00218528
5676.48009888,0.00220317
5678.40890625,0.00228447
5680.33771362,0.00230611
5682.26652100,0.00215785
5684.19532837,0.00223660
5686.12413574,0.00226940
5688.05294311,0.00213003
5689.98175049,0.00220344
5691.91055786,0.00227211
5693.83936523,0.00220128
5695.76817261,0.00214016
5697.69697998,0.00214472
5699.62578735,0.00213433
5701.55459473,0.00208431
5703.48340210,0.00211440
5705.41220947,0.00212390
5707.34101685,0.00215181
5709.26982422,0.00213225
5711.19863159,0.00209139
5713.12743896,0.00218524
5715.05624634,0.00213249
5716.98505371,0.00210996
5718.91386108,0.00217094
5720.84266846,0.00209693
5722.77147583,0.00207413
5724.70028320,0.00207667
5726.62909058,0.00210870
5728.55789795,0.00208415
5730.48670532,0.00204163
5732.41551270,0.00207373
5734.34432007,0.00203091
5736.27312744,0.00206890
5738.20193481,0.00206340
5740.13074219,0.00203569
5742.05954956,0.00203508
5743.98835693,0.00192791
5745.91716431,0.00198749
5747.84597168,0.00202912
5749.77477905,0.00199817
5751.70358643,0.00200597
5753.63239380,0.00201408
5755.56120117,0.00206138
5757.49000854,0.00197449
5759.41881592,0.00200099
5761.34762329,0.00204341
5763.27643066,0.00193624
5765.20523804,0.00194770
5767.13404541,0.00195963
5769.06285278,0.00198565
5770.99166016,0.00198826
5772.92046753,0.00195449
5774.84927490,0.00193955
5776.77808228,0.00190915
5778.70688965,0.00196188
5780.63569702,0.00196011
5782.56450439,0.00192484
5784.49331177,0.00194824
5786.42211914,0.00192813
5788.35092651,0.00190710
5790.27973389,0.00193117
5792.20854126,0.00192605
5794.13734863,0.00187931
5796.06615601,0.00190171
5797.99496338,0.00193177
5799.92377075,0.00187577
5801.85257812,0.00188123
5803.78138550,0.00190906
5805.71019287,0.00184981
5807.63900024,0.00187315
5809.56780762,0.00185865
5811.49661499,0.00181512
5813.42542236,0.00188766
5815.35422974,0.00188384
5817.28303711,0.00193129
5819.21184448,0.00188381
5821.14065186,0.00178087
5823.06945923,0.00187789
5824.99826660,0.00182150
5826.92707397,0.00178927
5828.85588135,0.00183999
5830.78468872,0.00178570
5832.71349609,0.00179037
5834.64230347,0.00179035
5836.57111084,0.00177713
5838.49991821,0.00177539
5840.42872559,0.00180838
5842.35753296,0.00182996
5844.28634033,0.00181758
5846.21514770,0.00179490
5848.14395508,0.00175467
5850.07276245,0.00182040
5852.00156982,0.00180167
5853.93037720,0.00172962
5855.85918457,0.00177286
5857.78799194,0.00174721
5859.71679932,0.00173243
5861.64560669,0.00172569
5863.57441406,0.00172801
5865.50322144,0.00175877
5867.43202881,0.00170806
5869.36083618,0.00175169
5871.28964355,0.00175060
5873.21845093,0.00169764
5875.14725830,0.00171745
5877.07606567,0.00167243
5879.00487305,0.00175087
5880.93368042,0.00176346
5882.86248779,0.00170434
5884.79129517,0.00172056
5886.72010254,0.00161335
5888.64890991,0.00165035
5890.57771728,0.00171388
5892.50652466,0.00168688
5894.43533203,0.00169439
5896.36413940,0.00165584
5898.29294678,0.00168918
5900.22175415,0.00165920
5902.15056152,0.00161818
5904.07936890,0.00162118
5906.00817627,0.00158097
5907.93698364,0.00167505
5909.86579102,0.00169511
5911.79459839,0.00163993
5913.72340576,0.00168770
5915.65221313,0.00164588
5917.58102051,0.00164243
5919.50982788,0.00163462
5921.43863525,0.00155197
5923.36744263,0.00162196
5925.29625000,0.00161468
5927.22505737,0.00157657
5929.15386475,0.00156953
5931.08267212,0.00154703
5933.01147949,0.00158075
5934.94028686,0.00146601
5936.86909424,0.00152254
5938.79790161,0.00159094
5940.72670898,0.00150200
5942.65551636,0.00155083
5944.58432373,0.00152877
5946.51313110,0.00160531
5948.44193848,0.00162648
5950.37074585,0.00154660
5952.29955322,0.00157635
5954.22836060,0.00155963
5956.15716797,0.00156111
5958.08597534,0.00150988
5960.01478271,0.00154043
5961.94359009,0.00157750
5963.87239746,0.00154599
5965.80120483,0.00153573
5967.73001221,0.00144154
5969.65881958,0.00147726
5971.58762695,0.00152625
5973.51643433,0.00146420
5975.44524170,0.00141279
5977.37404907,0.00143677
5979.30285645,0.00151581
5981.23166382,0.00150669
5983.16047119,0.00145348
5985.08927856,0.00141841
5987.01808594,0.00146284
5988.94689331,0.00156986
5990.87570068,0.00158658
5992.80450806,0.00142651
5994.73331543,0.00138446
5996.66212280,0.00148825
5998.59093018,0.00141222
6000.51973755,0.00137802
