399.26312622,0.00010008
401.19193359,0.00033688
403.12074097,0.00023468
405.04954834,0.00053688
406.97835571,0.00039154
408.90716309,0.00000098
410.83597046,0.00031544
412.76477783,0.00034917
414.69358521,0.00035250
416.62239258,0.00041838
418.55119995,0.00051278
420.48000732,0.00031176
422.40881470,0.00057827
424.33762207,0.00090802
426.26642944,0.00036637
428.19523682,0.00024149
430.12404419,-0.00005021
432.05285156,0.00031851
433.98165894,0.00092493
435.91046631,0.00088724
437.83927368,0.00065389
439.76808105,0.00046079
441.69688843,0.00078538
443.62569580,0.00028211
445.55450317,0.00019648
447.48331055,0.00032024
449.41211792,0.00000403
451.34092529,0.00024310
453.26973267,0.00022825
455.19854004,0.00037130
457.12734741,0.00007561
459.05615479,0.00006570
460.98496216,0.00014238
462.91376953,-0.00012616
464.84257690,0.00017590
466.77138428,-0.00002608
468.70019165,0.00028873
470.62899902,0.00041880
472.55780640,0.00046157
474.48661377,0.00061258
476.41542114,-0.00005233
478.34422852,0.00033082
480.27303589,0.00043302
482.20184326,0.00050732
484.13065063,0.00042129
486.05945801,-0.00032602
487.98826538,0.00034424
489.91707275,0.00056680
491.84588013,0.00024552
493.77468750,0.00027568
495.70349487,0.00023431
497.63230225,0.00022786
499.56110962,-0.00002043
501.48991699,0.00015149
503.41872437,0.00033277
505.34753174,0.00046955
507.27633911,0.00039602
509.20514648,-0.00014921
511.13395386,-0.00000811
513.06276123,0.00006187
514.99156860,-0.00001026
516.92037598,0.00035674
518.84918335,0.00024596
520.77799072,0.00014671
522.70679810,0.00009881
524.63560547,0.00008656
526.56441284,0.00048428
528.49322021,0.00029367
530.42202759,0.00005000
532.35083496,0.00031017
534.27964233,0.00031751
536.20844971,0.00020205
538.13725708,0.00012978
540.06606445,-0.00004208
541.99487183,0.00026660
543.92367920,0.00048333
545.85248657,0.00040973
547.78129395,0.00024998
549.71010132,0.00005338
551.63890869,0.00024978
553.56771606,0.00006931
555.49652344,0.00003901
557.42533081,0.00011585
559.35413818,0.00020703
561.28294556,0.00014948
563.21175293,0.00009108
565.14056030,0.00028464
567.06936768,0.00032511
568.99817505,0.00013764
570.92698242,-0.00023761
572.85578979,0.00014210
574.78459717,0.00055016
576.71340454,0.00046068
578.64221191,0.00022558
580.57101929,0.00003028
582.49982666,0.00025129
584.42863403,0.00022504
586.35744141,-0.00008802
588.28624878,-0.00016342
590.21505615,0.00009217
592.14386353,0.00031465
594.07267090,0.00028622
596.00147827,0.00011223
597.93028564,0.00026732
599.85909302,0.00053999
601.78790039,0.00019339
603.71670776,0.00001289
605.64551514,0.00022584
607.57432251,-0.00022490
609.50312988,-0.00018345
611.43193726,0.00048112
613.36074463,0.00040985
615.28955200,0.00023149
617.21835938,0.00005026
619.14716675,0.00018855
621.07597412,0.00049698
623.00478149,-0.00016339
624.93358887,-0.00003917
626.86239624,0.00028684
628.79120361,0.00011461
630.72001099,0.00041464
632.64881836,0.00006998
634.57762573,0.00015502
636.50643311,0.00038463
638.43524048,0.00021667
640.36404785,0.00052957
642.29285522,0.00076846
644.22166260,0.00053726
646.15046997,0.00039386
648.07927734,0.00060292
650.00808472,0.00041559
651.93689209,0.00040186
653.86569946,0.00061986
655.79450684,0.00069366
657.72331421,0.00107033
659.65212158,0.00091759
661.58092896,0.00091944
663.50973633,0.00102531
665.43854370,0.00091422
667.36735107,0.00099903
669.29615845,0.00058951
671.22496582,0.00078798
673.15377319,0.00107370
675.08258057,0.00077001
677.01138794,0.00114683
678.94019531,0.00158084
680.86900269,0.00132155
682.79781006,0.00102711
684.72661743,0.00108410
686.65542480,0.00113878
688.58423218,0.00118940
690.51303955,0.00107149
692.44184692,0.00119573
694.37065430,0.00141629
696.29946167,0.00152479
698.22826904,0.00199864
700.15707642,0.00154746
702.08588379,0.00120030
704.01469116,0.00166321
705.94349854,0.00136367
707.87230591,0.00122116
709.80111328,0.00120217
711.72992065,0.00064619
713.65872803,0.00054812
715.58753540,0.00055451
717.51634277,0.00012014
719.44515015,0.00019304
721.37395752,0.00026590
723.30276489,0.00006125
725.23157227,0.00008361
727.16037964,-0.00023372
729.08918701,-0.00015929
731.01799438,0.00019380
732.94680176,0.00020492
734.87560913,0.00018214
736.80441650,0.00021464
738.73322388,0.00022261
740.66203125,0.00023246
742.59083862,0.00010509
744.51964600,0.00008147
746.44845337,0.00013570
748.37726074,-0.00005762
750.30606812,0.00009500
752.23487549,0.00011755
754.16368286,0.00006428
756.09249023,0.00010995
758.02129761,0.00008693
759.95010498,0.00010227
761.87891235,-0.00008565
763.80771973,0.00015201
765.73652710,0.00011254
767.66533447,0.00012308
769.59414185,0.00033928
771.52294922,-0.00000489
773.45175659,0.00033015
775.38056396,0.00028739
777.30937134,-0.00011121
779.23817871,0.00030279
781.16698608,0.00039123
783.09579346,0.00029308
785.02460083,0.00039934
786.95340820,0.00044463
788.88221558,0.00034980
790.81102295,0.00023545
792.73983032,0.00027165
794.66863770,0.00038135
796.59744507,0.00035464
798.52625244,0.00017110
800.45505981,0.00003055
802.38386719,0.00008209
804.31267456,0.00007206
806.24148193,0.00006265
808.17028931,0.00032642
810.09909668,0.00006792
812.02790405,0.00005591
813.95671143,0.00031218
815.88551880,0.00017164
817.81432617,0.00047037
819.74313354,0.00035131
821.67194092,0.00015134
823.60074829,0.00017611
825.52955566,0.00021944
827.45836304,0.00048224
829.38717041,0.00010838
831.31597778,0.00013613
833.24478516,0.00038269
835.17359253,0.00037501
837.10239990,0.00048036
839.03120728,0.00037205
840.96001465,0.00063751
842.88882202,0.00059353
844.81762939,0.00043590
846.74643677,0.00041285
848.67524414,0.00033874
850.60405151,0.00064549
852.53285889,0.00038303
854.46166626,0.00010251
856.39047363,0.00041834
858.31928101,0.00042816
860.24808838,0.00035587
862.17689575,0.00023083
864.10570313,-0.00018007
866.03451050,0.00016468
867.96331787,0.00038675
869.89212524,0.00014703
871.82093262,0.00044356
873.74973999,0.00004554
875.67854736,-0.00000833
877.60735474,0.00028165
879.53616211,-0.00000460
881.46496948,0.00038226
883.39377686,0.00039849
885.32258423,0.00022461
887.25139160,0.00044452
889.18019897,0.00034365
891.10900635,0.00027222
893.03781372,0.00007104
894.96662109,0.00009881
896.89542847,0.00032025
898.82423584,0.00036044
900.75304321,0.00051441
902.68185059,0.00048657
904.61065796,0.00020910
906.53946533,0.00029120
908.46827271,0.00038258
910.39708008,0.00011914
912.32588745,0.00062116
914.25469482,0.00067054
916.18350220,0.00020144
918.11230957,0.00053584
920.04111694,0.00024644
921.96992432,0.00026848
923.89873169,0.00071821
925.82753906,0.00059257
927.75634644,0.00052324
929.68515381,0.00042827
931.61396118,0.00061374
933.54276855,0.00057625
935.47157593,0.00046789
937.40038330,0.00058510
939.32919067,0.00057423
941.25799805,0.00088497
943.18680542,0.00106698
945.11561279,0.00085433
947.04442017,0.00050430
948.97322754,0.00043112
950.90203491,0.00072365
952.83084229,0.00087077
954.75964966,0.00080023
956.68845703,0.00068439
958.61726440,0.00068644
960.54607178,0.00077782
962.47487915,0.00085828
964.40368652,0.00063986
966.33249390,0.00047727
968.26130127,0.00076594
970.19010864,0.00087355
972.11891602,0.00085829
974.04772339,0.00090610
975.97653076,0.00093218
977.90533813,0.00101936
979.83414551,0.00104456
981.76295288,0.00113852
983.69176025,0.00129072
985.62056763,0.00145034
987.54937500,0.00154194
989.47818237,0.00164336
991.40698975,0.00193781
993.33579712,0.00205499
995.26460449,0.00214847
997.19341187,0.00243743
999.12221924,0.00281650
1001.05102661,0.00316824
1002.97983398,0.00313294
1004.90864136,0.00327762
1006.83744873,0.00362200
1008.76625610,0.00369089
1010.69506348,0.00389735
1012.62387085,0.00407974
1014.55267822,0.00436040
1016.48148560,0.00471606
1018.41029297,0.00475639
1020.33910034,0.00488152
1022.26790771,0.00512615
1024.19671509,0.00535977
1026.12552246,0.00559000
1028.05432983,0.00583441
1029.98313721,0.00603591
1031.91194458,0.00610226
1033.84075195,0.00617967
1035.76955933,0.00630983
1037.69836670,0.00640104
1039.62717407,0.00637246
1041.55598145,0.00637876
1043.48478882,0.00633581
1045.41359619,0.00623039
1047.34240356,0.00614198
1049.27121094,0.00602403
1051.20001831,0.00609925
1053.12882568,0.00601860
1055.05763306,0.00588515
1056.98644043,0.00592399
1058.91524780,0.00560336
1060.84405518,0.00537915
1062.77286255,0.00533164
1064.70166992,0.00499327
1066.63047729,0.00489373
1068.55928467,0.00470036
1070.48809204,0.00427604
1072.41689941,0.00435425
1074.34570679,0.00425642
1076.27451416,0.00404856
1078.20332153,0.00393632
1080.13212891,0.00357373
1082.06093628,0.00359362
1083.98974365,0.00328990
1085.91855103,0.00297019
1087.84735840,0.00312490
1089.77616577,0.00282836
1091.70497314,0.00283884
1093.63378052,0.00277454
1095.56258789,0.00245053
1097.49139526,0.00265166
1099.42020264,0.00270008
1101.34901001,0.00264509
1103.27781738,0.00250290
1105.20662476,0.00235496
1107.13543213,0.00253567
1109.06423950,0.00252033
1110.99304687,0.00227077
1112.92185425,0.00220052
1114.85066162,0.00225512
1116.77946899,0.00222971
1118.70827637,0.00235070
1120.63708374,0.00234695
1122.56589111,0.00227284
1124.49469849,0.00248319
1126.42350586,0.00231365
1128.35231323,0.00216833
1130.28112061,0.00248452
1132.20992798,0.00269844
1134.13873535,0.00264967
1136.06754272,0.00258085
1137.99635010,0.00278749
1139.92515747,0.00288393
1141.85396484,0.00311085
1143.78277222,0.00344974
1145.71157959,0.00343435
1147.64038696,0.00375327
1149.56919434,0.00410695
1151.49800171,0.00419459
1153.42680908,0.00431272
1155.35561646,0.00434493
1157.28442383,0.00461341
1159.21323120,0.00495872
1161.14203857,0.00512827
1163.07084595,0.00520602
1164.99965332,0.00539383
1166.92846069,0.00573806
1168.85726807,0.00579217
1170.78607544,0.00601165
1172.71488281,0.00640631
1174.64369019,0.00655235
1176.57249756,0.00700454
1178.50130493,0.00729085
1180.43011230,0.00729623
1182.35891968,0.00768818
1184.28772705,0.00804857
1186.21653442,0.00823457
1188.14534180,0.00860812
1190.07414917,0.00930832
1192.00295654,0.00969598
1193.93176392,0.00986252
1195.86057129,0.01059308
1197.78937866,0.01103039
1199.71818604,0.01136606
1201.64699341,0.01218551
1203.57580078,0.01265196
1205.50460815,0.01298220
1207.43341553,0.01343784
1209.36222290,0.01393462
1211.29103027,0.01437966
1213.21983765,0.01453480
1215.14864502,0.01493853
1217.07745239,0.01545772
1219.00625977,0.01557956
1220.93506714,0.01580447
1222.86387451,0.01611538
1224.79268188,0.01619745
1226.72148926,0.01642785
1228.65029663,0.01658821
1230.57910400,0.01658111
1232.50791138,0.01671434
1234.43671875,0.01673031
1236.36552612,0.01680233
1238.29433350,0.01693574
1240.22314087,0.01679169
1242.15194824,0.01659280
1244.08075562,0.01661042
1246.00956299,0.01643318
1247.93837036,0.01612625
1249.86717773,0.01631899
1251.79598511,0.01612207
1253.72479248,0.01583371
1255.65359985,0.01598374
1257.58240723,0.01578543
1259.51121460,0.01571015
1261.44002197,0.01534841
1263.36882935,0.01500927
1265.29763672,0.01499278
1267.22644409,0.01463592
1269.15525146,0.01458549
1271.08405884,0.01443869
1273.01286621,0.01419203
1274.94167358,0.01395522
1276.87048096,0.01362356
1278.79928833,0.01330128
1280.72809570,0.01293942
1282.65690308,0.01298710
1284.58571045,0.01268329
1286.51451782,0.01251405
1288.44332520,0.01253070
1290.37213257,0.01217692
1292.30093994,0.01206671
1294.22974731,0.01179431
1296.15855469,0.01182714
1298.08736206,0.01194737
1300.01616943,0.01201696
1301.94497681,0.01209739
1303.87378418,0.01190702
1305.80259155,0.01219086
1307.73139893,0.01233021
1309.66020630,0.01254702
1311.58901367,0.01293192
1313.51782104,0.01314685
1315.44662842,0.01349863
1317.37543579,0.01358096
1319.30424316,0.01401790
1321.23305054,0.01454918
1323.16185791,0.01486821
1325.09066528,0.01554669
1327.01947266,0.01601107
1328.94828003,0.01621066
1330.87708740,0.01674778
1332.80589478,0.01725795
1334.73470215,0.01739559
1336.66350952,0.01761587
1338.59231689,0.01763798
1340.52112427,0.01772530
1342.44993164,0.01819791
1344.37873901,0.01845787
1346.30754639,0.01867690
1348.23635376,0.01859751
1350.16516113,0.01846023
1352.09396851,0.01854215
1354.02277588,0.01825941
1355.95158325,0.01808409
1357.88039062,0.01803899
1359.80919800,0.01768774
1361.73800537,0.01686815
1363.66681274,0.01674608
1365.59562012,0.01762922
1367.52442749,0.01715500
1369.45323486,0.01704460
1371.38204224,0.01761198
1373.31084961,0.01654783
1375.23965698,0.01647468
1377.16846436,0.01698375
1379.09727173,0.01685263
1381.02607910,0.01701936
1382.95488647,0.01703334
1384.88369385,0.01702465
1386.81250122,0.01631546
1388.74130859,0.01654543
1390.67011597,0.01794114
1392.59892334,0.01723964
1394.52773071,0.01633433
1396.45653809,0.01747779
1398.38534546,0.01726651
1400.31415283,0.01700385
1402.24296021,0.01832385
1404.17176758,0.01741091
1406.10057495,0.01759061
1408.02938232,0.01843542
1409.95818970,0.01772061
1411.88699707,0.01793557
1413.81580444,0.01745456
1415.74461182,0.01768451
1417.67341919,0.01596060
1419.60222656,0.01446161
1421.53103394,0.01659596
1423.45984131,0.01607217
1425.38864868,0.01558817
1427.31745605,0.01570439
1429.24626343,0.01458515
1431.17507080,0.01428267
1433.10387817,0.01454627
1435.03268555,0.01332621
1436.96149292,0.01125121
1438.89030029,0.01276044
1440.81910767,0.01301330
1442.74791504,0.01217686
1444.67672241,0.01277172
1446.60552979,0.01150754
1448.53433716,0.01193690
1450.46314453,0.01242736
1452.39195190,0.01256264
1454.32075928,0.01303141
1456.24956665,0.01092943
1458.17837402,0.01145119
1460.10718140,0.01482106
1462.03598877,0.01590805
1463.96479614,0.01590975
1465.89360352,0.01646432
1467.82241089,0.01872220
1469.75121826,0.02009369
1471.68002563,0.01810104
1473.60883301,0.01912005
1475.53764038,0.02174547
1477.46644775,0.02325126
1479.39525513,0.02554687
1481.32406250,0.02605104
1483.25286987,0.02746880
1485.18167725,0.02836553
1487.11048462,0.02805082
1489.03929199,0.02777470
1490.96809937,0.02797726
1492.89690674,0.03256302
1494.82571411,0.03159937
1496.75452148,0.02857244
1498.68332886,0.03244118
1500.61213623,0.03326816
1502.54094360,0.03566367
1504.46975098,0.03380522
1506.39855835,0.02491697
1508.32736572,0.03030748
1510.25617310,0.03529785
1512.18498047,0.03408536
1514.11378784,0.03686992
1516.04259521,0.03346884
1517.97140259,0.03503264
1519.90020996,0.03401399
1521.82901733,0.02974875
1523.75782471,0.03596994
1525.68663208,0.03506450
1527.61543945,0.03518445
1529.54424683,0.03902889
1531.47305420,0.03744482
1533.40186157,0.03443465
1535.33066895,0.03638919
1537.25947632,0.03899891
1539.18828369,0.02841951
1541.11709106,0.02960521
1543.04589844,0.03516822
1544.97470581,0.03379375
1546.90351318,0.03990468
1548.83232056,0.03717269
1550.76112793,0.03819337
1552.68993530,0.03809254
1554.61874268,0.03493898
1556.54755005,0.03731444
1558.47635742,0.02667375
1560.40516479,0.02893422
1562.33397217,0.04029669
1564.26277954,0.03821093
1566.19158691,0.03943625
1568.12039429,0.03878570
1570.04920166,0.03472706
1571.97800903,0.03985154
1573.90681641,0.04007174
1575.83562378,0.03227675
1577.76443115,0.03635501
1579.69323853,0.04076375
1581.62204590,0.03919009
1583.55085327,0.04022137
1585.47966064,0.03961851
1587.40846802,0.03990785
1589.33727539,0.03977015
1591.26608276,0.03986652
1593.19489014,0.03975452
1595.12369751,0.03938948
1597.05250488,0.03987654
1598.98131226,0.03946187
1600.91011963,0.03991335
1602.83892700,0.03937371
1604.76773437,0.03990895
1606.69654175,0.03924802
1608.62534912,0.03923522
1610.55415649,0.03933346
1612.48296387,0.03958904
1614.41177124,0.03999448
1616.34057861,0.03321284
1618.26938599,0.03610317
1620.19819336,0.04149665
1622.12700073,0.03710469
1624.05580811,0.03725608
1625.98461548,0.03902186
1627.91342285,0.03897208
1629.84223022,0.03863923
1631.77103760,0.04122327
1633.69984497,0.03806591
1635.62865234,0.03185946
1637.55745972,0.03692069
1639.48626709,0.04037227
1641.41507446,0.03954170
1643.34388184,0.04040112
1645.27268921,0.03666743
1647.20149658,0.03259151
1649.13030396,0.04011973
1651.05911133,0.03796743
1652.98791870,0.02497037
1654.91672607,0.03355222
1656.84553345,0.04154049
1658.77434082,0.03990327
1660.70314819,0.04083330
1662.63195557,0.03724460
1664.56076294,0.03958552
1666.48957031,0.04207260
1668.41837769,0.03690992
1670.34718506,0.03620393
1672.27599243,0.04077588
1674.20479980,0.03781467
1676.13360718,0.03642864
1678.06241455,0.04166279
1679.99122192,0.04012393
1681.92002930,0.03969081
1683.84883667,0.03256631
1685.77764404,0.03246313
1687.70645142,0.04379950
1689.63525879,0.03823331
1691.56406616,0.04212982
1693.49287354,0.04251672
1695.42168091,0.03154417
1697.35048828,0.03871918
1699.27929565,0.03398005
1701.20810303,0.03101492
1703.13691040,0.04165103
1705.06571777,0.03822279
1706.99452515,0.03857381
1708.92333252,0.04175491
1710.85213989,0.04029488
1712.78094727,0.04102788
1714.70975464,0.03818180
1716.63856201,0.03431480
1718.56736938,0.03385343
1720.49617676,0.04011407
1722.42498413,0.04140419
1724.35379150,0.03854254
1726.28259888,0.04194096
1728.21140625,0.03871284
1730.14021362,0.03912929
1732.06902100,0.03807503
1733.99782837,0.02930687
1735.92663574,0.03644828
1737.85544312,0.04007940
1739.78425049,0.03580861
1741.71305786,0.03880025
1743.64186523,0.03941674
1745.57067261,0.03963596
1747.49947998,0.03980735
1749.42828735,0.03825105
1751.35709473,0.03666052
1753.28590210,0.04059695
1755.21470947,0.04229335
1757.14351685,0.03859619
1759.07232422,0.04256401
1761.00113159,0.03994500
1762.92993896,0.03888420
1764.85874634,0.04413804
1766.78755371,0.03966937
1768.71636108,0.04029850
1770.64516846,0.03996594
1772.57397583,0.03621878
1774.50278320,0.04010245
1776.43159058,0.04232901
1778.36039795,0.04175766
1780.28920532,0.04115650
1782.21801270,0.04179713
1784.14682007,0.04146365
1786.07562744,0.04086522
1788.00443481,0.04310961
1789.93324219,0.04180971
1791.86204956,0.03814282
1793.79085693,0.03972729
1795.71966431,0.04251973
1797.64847168,0.04196675
1799.57727905,0.04136166
1801.50608643,0.04077263
1803.43489380,0.04211962
1805.36370117,0.04309897
1807.29250854,0.04246135
1809.22131592,0.04261088
1811.15012329,0.04162548
1813.07893066,0.04291969
1815.00773804,0.04301540
1816.93654541,0.04259671
1818.86535278,0.04312284
1820.79416016,0.04280294
1822.72296753,0.04331432
1824.65177490,0.04081012
1826.58058228,0.04221191
1828.50938965,0.04218577
1830.43819702,0.03985687
1832.36700439,0.04309861
1834.29581177,0.04276188
1836.22461914,0.04277897
1838.15342651,0.04258227
1840.08223389,0.04299551
1842.01104126,0.04295073
1843.93984863,0.03845509
1845.86865601,0.04115049
1847.79746338,0.04314331
1849.72627075,0.04229160
1851.65507812,0.04357911
1853.58388550,0.04282643
1855.51269287,0.04323633
1857.44150024,0.04291205
1859.37030762,0.04268288
1861.29911499,0.04294558
1863.22792236,0.04257895
1865.15672974,0.04310068
1867.08553711,0.04164697
1869.01434448,0.03997868
1870.94315186,0.04167777
1872.87195923,0.04322599
1874.80076660,0.04244285
1876.72957397,0.04276841
1878.65838135,0.04262968
1880.58718872,0.04239876
1882.51599609,0.04292876
1884.44480347,0.04224888
1886.37361084,0.04272967
1888.30241821,0.04181344
1890.23122559,0.04116216
1892.16003296,0.04266037
1894.08884033,0.04199528
1896.01764771,0.04178345
1897.94645508,0.04225539
1899.87526245,0.04229256
1901.80406982,0.04237267
1903.73287720,0.04203843
1905.66168457,0.04242883
1907.59049194,0.04190272
1909.51929932,0.04158829
1911.44810669,0.04187895
1913.37691406,0.04189134
1915.30572144,0.04233950
1917.23452881,0.04049909
1919.16333618,0.04061550
1921.09214355,0.04218002
1923.02095093,0.04093770
1924.94975830,0.04180316
1926.87856567,0.04213253
1928.80737305,0.04173712
1930.73618042,0.04227577
1932.66498779,0.04164480
1934.59379517,0.04205381
1936.52260254,0.04191250
1938.45140991,0.04213201
1940.38021729,0.04201464
1942.30902466,0.04068628
1944.23783203,0.04144257
1946.16663940,0.04188460
1948.09544678,0.04169236
1950.02425415,0.04179839
1951.95306152,0.04184475
1953.88186890,0.04204395
1955.81067627,0.04188146
1957.73948364,0.04189783
1959.66829102,0.04204908
1961.59709839,0.04189159
1963.52590576,0.04189516
1965.45471313,0.04193943
1967.38352051,0.04144225
1969.31232788,0.04182435
1971.24113525,0.04202450
1973.16994263,0.04161480
1975.09875000,0.04193383
1977.02755737,0.04171120
1978.95636475,0.04175751
1980.88517212,0.04174794
1982.81397949,0.04180719
1984.74278687,0.04202208
1986.67159424,0.04158590
1988.60040161,0.04174108
1990.52920898,0.04119473
1992.45801636,0.04085121
1994.38682373,0.04159997
1996.31563110,0.04167233
1998.24443848,0.04137626
2000.17324585,0.04121591
2002.10205322,0.04130679
2004.03086060,0.04142623
2005.95966797,0.04128038
2007.88847534,0.04109200
2009.81728271,0.04110530
2011.74609009,0.04104747
2013.67489746,0.04107397
2015.60370483,0.04079959
2017.53251221,0.04051599
2019.46131958,0.04079691
2021.39012695,0.04067419
2023.31893433,0.04068303
2025.24774170,0.04063576
2027.17654907,0.04062463
2029.10535645,0.04071295
2031.03416382,0.04040658
2032.96297119,0.04047927
2034.89177856,0.04038280
2036.82058594,0.04033649
2038.74939331,0.04022745
2040.67820068,0.04002121
2042.60700806,0.04014134
2044.53581543,0.04014569
2046.46462280,0.04014765
2048.39343018,0.03999376
2050.32223755,0.03993029
2052.25104492,0.03981318
2054.17985229,0.03974136
2056.10865967,0.03973770
2058.03746704,0.03971767
2059.96627441,0.03970574
2061.89508179,0.03956994
2063.82388916,0.03949989
2065.75269653,0.03917562
2067.68150391,0.03936264
2069.61031128,0.03943925
2071.53911865,0.03932660
2073.46792603,0.03941762
2075.39673340,0.03912553
2077.32554077,0.03926315
2079.25434814,0.03911659
2081.18315552,0.03910528
2083.11196289,0.03914969
2085.04077026,0.03895371
2086.96957764,0.03909341
2088.89838501,0.03880595
2090.82719238,0.03877654
2092.75599976,0.03876073
2094.68480713,0.03883822
2096.61361450,0.03886878
2098.54242187,0.03870371
2100.47122925,0.03877891
2102.40003662,0.03857646
2104.32884399,0.03867856
2106.25765137,0.03849524
2108.18645874,0.03848585
2110.11526611,0.03863864
2112.04407349,0.03832572
2113.97288086,0.03846217
2115.90168823,0.03835346
2117.83049561,0.03824773
2119.75930298,0.03829629
2121.68811035,0.03823501
2123.61691772,0.03823333
2125.54572510,0.03809565
2127.47453247,0.03813417
2129.40333984,0.03824422
2131.33214722,0.03816489
2133.26095459,0.03807295
2135.18976196,0.03811381
2137.11856934,0.03797774
2139.04737671,0.03801082
2140.97618408,0.03795985
2142.90499146,0.03782050
2144.83379883,0.03798849
2146.76260620,0.03782298
2148.69141357,0.03788428
2150.62022095,0.03789905
2152.54902832,0.03778372
2154.47783569,0.03790604
2156.40664307,0.03786688
2158.33545044,0.03787332
2160.26425781,0.03774375
2162.19306519,0.03776027
2164.12187256,0.03770322
2166.05067993,0.03765165
2167.97948730,0.03771274
2169.90829468,0.03747604
2171.83710205,0.03755810
2173.76590942,0.03762710
2175.69471680,0.03752268
2177.62352417,0.03745688
2179.55233154,0.03741672
2181.48113892,0.03740172
2183.40994629,0.03740648
2185.33875366,0.03761420
2187.26756104,0.03752474
2189.19636841,0.03731512
2191.12517578,0.03731468
2193.05398315,0.03736332
2194.98279053,0.03739246
2196.91159790,0.03736132
2198.84040527,0.03733165
2200.76921265,0.03729505
2202.69802002,0.03742094
2204.62682739,0.03735740
2206.55563477,0.03717384
2208.48444214,0.03723060
2210.41324951,0.03723572
2212.34205688,0.03717406
2214.27086426,0.03709350
2216.19967163,0.03712861
2218.12847900,0.03705446
2220.05728638,0.03690954
2221.98609375,0.03700054
2223.91490112,0.03691328
2225.84370850,0.03685646
2227.77251587,0.03685373
2229.70132324,0.03671400
2231.63013062,0.03674503
2233.55893799,0.03674224
2235.48774536,0.03677090
2237.41655273,0.03672925
2239.34536011,0.03658018
2241.27416748,0.03666507
2243.20297485,0.03671217
2245.13178223,0.03664916
2247.06058960,0.03650203
2248.98939697,0.03652178
2250.91820435,0.03650104
2252.84701172,0.03628405
2254.77581909,0.03646834
2256.70462646,0.03648161
2258.63343384,0.03629660
2260.56224121,0.03631200
2262.49104858,0.03631412
2264.41985596,0.03628123
2266.34866333,0.03608435
2268.27747070,0.03609483
2270.20627808,0.03617932
2272.13508545,0.03614934
2274.06389282,0.03610744
2275.99270020,0.03600045
2277.92150757,0.03610019
2279.85031494,0.03607899
2281.77912231,0.03607729
2283.70792969,0.03621404
2285.63673706,0.03603515
2287.56554443,0.03592877
2289.49435181,0.03591412
2291.42315918,0.03587089
2293.35196655,0.03591381
2295.28077393,0.03572099
2297.20958130,0.03561505
2299.13838867,0.03563600
2301.06719604,0.03538657
2302.99600342,0.03519093
2304.92481079,0.03507541
2306.85361816,0.03493036
2308.78242554,0.03463266
2310.71123291,0.03432311
2312.64004028,0.03416768
2314.56884766,0.03382239
2316.49765503,0.03340674
2318.42646240,0.03292016
2320.35526978,0.03249060
2322.28407715,0.03211847
2324.21288452,0.03168710
2326.14169189,0.03136250
2328.07049927,0.03097685
2329.99930664,0.03068441
2331.92811401,0.03044847
2333.85692139,0.03028234
2335.78572876,0.03018442
2337.71453613,0.03025269
2339.64334351,0.03037579
2341.57215088,0.03036319
2343.50095825,0.03079322
2345.42976562,0.03136274
2347.35857300,0.03264241
2349.28738037,0.03371829
2351.21618774,0.03253375
2353.14499512,0.03095790
2355.07380249,0.02997774
2357.00260986,0.02899738
2358.93141724,0.02840222
2360.86022461,0.02817637
2362.78903198,0.02813500
2364.71783936,0.02832144
2366.64664673,0.02873627
2368.57545410,0.02926331
2370.50426147,0.03005759
2372.43306885,0.03088600
2374.36187622,0.03165019
2376.29068359,0.03252892
2378.21949097,0.03326926
2380.14829834,0.03373019
2382.07710571,0.03421597
2384.00591309,0.03459213
2385.93472046,0.03452075
2387.86352783,0.03467473
2389.79233521,0.03472712
2391.72114258,0.03455874
2393.64994995,0.03471300
2395.57875732,0.03464051
2397.50756470,0.03453119
2399.43637207,0.03449682
2401.36517944,0.03443295
2403.29398682,0.03440561
2405.22279419,0.03441177
2407.15160156,0.03446823
2409.08040894,0.03440516
2411.00921631,0.03441997
2412.93802368,0.03436111
2414.86683105,0.03426373
2416.79563843,0.03424909
2418.72444580,0.03419916
2420.65325317,0.03416397
2422.58206055,0.03413326
2424.51086792,0.03409997
2426.43967529,0.03410625
2428.36848267,0.03420836
2430.29729004,0.03408301
2432.22609741,0.03402856
2434.15490479,0.03412907
2436.08371216,0.03405809
2438.01251953,0.03402445
2439.94132690,0.03392499
2441.87013428,0.03386138
2443.79894165,0.03386265
2445.72774902,0.03390975
2447.65655640,0.03385218
2449.58536377,0.03374849
2451.51417114,0.03383818
2453.44297852,0.03383703
2455.37178589,0.03381617
2457.30059326,0.03376528
2459.22940063,0.03372306
2461.15820801,0.03361074
2463.08701538,0.03358439
2465.01582275,0.03370357
2466.94463013,0.03360165
2468.87343750,0.03357896
2470.80224487,0.03354332
2472.73105225,0.03349953
2474.65985962,0.03347307
2476.58866699,0.03347393
2478.51747437,0.03345829
2480.44628174,0.03335641
2482.37508911,0.03345460
2484.30389648,0.03333760
2486.23270386,0.03330102
2488.16151123,0.03330652
2490.09031860,0.03314445
2492.01912598,0.03319255
2493.94793335,0.03310734
2495.87674072,0.03307822
2497.80554810,0.03312845
2499.73435547,0.03309590
2501.66316284,0.03303466
2503.59197021,0.03306724
2505.52077759,0.03308633
2507.44958496,0.03295248
2509.37839233,0.03295212
2511.30719971,0.03287580
2513.23600708,0.03290220
2515.16481445,0.03290011
2517.09362183,0.03279554
2519.02242920,0.03290471
2520.95123657,0.03290855
2522.88004395,0.03283787
2524.80885132,0.03280245
2526.73765869,0.03277506
2528.66646606,0.03262984
2530.59527344,0.03265164
2532.52408081,0.03265666
2534.45288818,0.03252701
2536.38169556,0.03263792
2538.31050293,0.03248455
2540.23931030,0.03253461
2542.16811768,0.03269867
2544.09692505,0.03251399
2546.02573242,0.03255061
2547.95453979,0.03258501
2549.88334717,0.03250554
2551.81215454,0.03238367
2553.74096191,0.03230829
2555.66976929,0.03237262
2557.59857666,0.03241559
2559.52738403,0.03225660
2561.45619141,0.03218816
2563.38499878,0.03233800
2565.31380615,0.03220346
2567.24261353,0.03222021
2569.17142090,0.03229293
2571.10022827,0.03209682
2573.02903564,0.03209499
2574.95784302,0.03213038
2576.88665039,0.03206607
2578.81545776,0.03204798
2580.74426514,0.03209677
2582.67307251,0.03198529
2584.60187988,0.03192502
2586.53068726,0.03195264
2588.45949463,0.03188199
2590.38830200,0.03189120
2592.31710937,0.03175293
2594.24591675,0.03177442
2596.17472412,0.03185563
2598.10353149,0.03177100
2600.03233887,0.03182619
2601.96114624,0.03172045
2603.88995361,0.03172938
2605.81876099,0.03178009
2607.74756836,0.03162986
2609.67637573,0.03163604
2611.60518311,0.03157187
2613.53399048,0.03148846
2615.46279785,0.03152784
2617.39160522,0.03154384
2619.32041260,0.03150985
2621.24921997,0.03143125
2623.17802734,0.03144246
2625.10683472,0.03139780
2627.03564209,0.03128076
2628.96444946,0.03133203
2630.89325684,0.03133115
2632.82206421,0.03125150
2634.75087158,0.03123355
2636.67967895,0.03114638
2638.60848633,0.03118103
2640.53729370,0.03118459
2642.46610107,0.03103162
2644.39490845,0.03103877
2646.32371582,0.03094761
2648.25252319,0.03093963
2650.18133057,0.03102439
2652.11013794,0.03085587
2654.03894531,0.03088057
2655.96775269,0.03091508
2657.89656006,0.03084593
2659.82536743,0.03083418
2661.75417480,0.03076453
2663.68298218,0.03078293
2665.61178955,0.03077401
2667.54059692,0.03079219
2669.46940430,0.03075022
2671.39821167,0.03068912
2673.32701904,0.03067371
2675.25582642,0.03063022
2677.18463379,0.03073333
2679.11344116,0.03055715
2681.04224854,0.03041047
2682.97105591,0.03050636
2684.89986328,0.03050241
2686.82867065,0.03046195
2688.75747803,0.03035859
2690.68628540,0.03041278
2692.61509277,0.03028616
2694.54390015,0.03026709
2696.47270752,0.03034805
2698.40151489,0.03015467
2700.33032227,0.03035596
2702.25912964,0.03034394
2704.18793701,0.03016504
2706.11674438,0.03015975
2708.04555176,0.03004811
2709.97435913,0.03015158
2711.90316650,0.03008136
2713.83197388,0.02999956
2715.76078125,0.03010874
2717.68958862,0.03002108
2719.61839600,0.02981729
2721.54720337,0.02984902
2723.47601074,0.02997016
2725.40481812,0.02982040
2727.33362549,0.02979891
2729.26243286,0.02969230
2731.19124023,0.02959495
2733.12004761,0.02983125
2735.04885498,0.02976874
2736.97766235,0.02953165
2738.90646973,0.02946830
2740.83527710,0.02958850
2742.76408447,0.02963771
2744.69289185,0.02951601
2746.62169922,0.02952047
2748.55050659,0.02950770
2750.47931396,0.02945759
2752.40812134,0.02938923
2754.33692871,0.02933318
2756.26573608,0.02935039
2758.19454346,0.02923320
2760.12335083,0.02922642
2762.05215820,0.02929741
2763.98096558,0.02915863
2765.90977295,0.02914730
2767.83858032,0.02917749
2769.76738770,0.02907076
2771.69619507,0.02907963
2773.62500244,0.02910824
2775.55380981,0.02891654
2777.48261719,0.02871319
2779.41142456,0.02888570
2781.34023193,0.02893012
2783.26903931,0.02873076
2785.19784668,0.02881801
2787.12665405,0.02875921
2789.05546143,0.02866459
2790.98426880,0.02878305
2792.91307617,0.02870131
2794.84188354,0.02861467
2796.77069092,0.02859746
2798.69949829,0.02849564
2800.62830566,0.02842665
2802.55711304,0.02843591
2804.48592041,0.02845593
2806.41472778,0.02837155
2808.34353516,0.02823991
2810.27234253,0.02824920
2812.20114990,0.02825287
2814.12995728,0.02816639
2816.05876465,0.02813268
2817.98757202,0.02804048
2819.91637939,0.02799380
2821.84518677,0.02801545
2823.77399414,0.02798556
2825.70280151,0.02805754
2827.63160889,0.02797886
2829.56041626,0.02778662
2831.48922363,0.02782902
2833.41803101,0.02782603
2835.34683838,0.02779052
2837.27564575,0.02776402
2839.20445312,0.02758856
2841.13326050,0.02748689
2843.06206787,0.02741219
2844.99087524,0.02737810
2846.91968262,0.02723572
2848.84848999,0.02703630
2850.77729736,0.02710089
2852.70610474,0.02705817
2854.63491211,0.02702669
2856.56371948,0.02696173
2858.49252686,0.02690315
2860.42133423,0.02696235
2862.35014160,0.02684033
2864.27894897,0.02691648
2866.20775635,0.02679623
2868.13656372,0.02667991
2870.06537109,0.02682238
2871.99417847,0.02672169
2873.92298584,0.02670212
2875.85179321,0.02661007
2877.78060059,0.02666585
2879.70940796,0.02667047
2881.63821533,0.02656488
2883.56702270,0.02669836
2885.49583008,0.02650187
2887.42463745,0.02641440
2889.35344482,0.02648766
2891.28225220,0.02648451
2893.21105957,0.02645849
2895.13986694,0.02636831
2897.06867432,0.02632670
2898.99748169,0.02615239
2900.92628906,0.02617197
2902.85509644,0.02608504
2904.78390381,0.02590313
2906.71271118,0.02603992
2908.64151855,0.02598808
2910.57032593,0.02579649
2912.49913330,0.02569289
2914.42794067,0.02562448
2916.35674805,0.02558571
2918.28555542,0.02556586
2920.21436279,0.02540792
2922.14317017,0.02535930
2924.07197754,0.02541860
2926.00078491,0.02530656
2927.92959229,0.02533751
2929.85839966,0.02528541
2931.78720703,0.02533122
2933.71601440,0.02543942
2935.64482178,0.02526160
2937.57362915,0.02528462
2939.50243652,0.02528005
2941.43124390,0.02517378
2943.36005127,0.02527434
2945.28885864,0.02534931
2947.21766602,0.02522864
2949.14647339,0.02523400
2951.07528076,0.02527887
2953.00408813,0.02506966
2954.93289551,0.02500119
2956.86170288,0.02502349
2958.79051025,0.02499875
2960.71931763,0.02488989
2962.64812500,0.02486751
2964.57693237,0.02487968
2966.50573975,0.02467955
2968.43454712,0.02487315
2970.36335449,0.02490298
2972.29216187,0.02467184
2974.22096924,0.02482294
2976.14977661,0.02481854
2978.07858398,0.02491086
2980.00739136,0.02500664
2981.93619873,0.02485681
2983.86500610,0.02493132
2985.79381348,0.02496529
2987.72262085,0.02491566
2989.65142822,0.02488070
2991.58023560,0.02472851
2993.50904297,0.02473946
2995.43785034,0.02483624
2997.36665771,0.02473111
2999.29546509,0.02466081
3001.22427246,0.02460847
3003.15307983,0.02454541
3005.08188721,0.02457883
3007.01069458,0.02455859
3008.93950195,0.02459629
3010.86830933,0.02448474
3012.79711670,0.02434001
3014.72592407,0.02443521
3016.65473145,0.02433916
3018.58353882,0.02430520
3020.51234619,0.02432828
3022.44115356,0.02422187
3024.36996094,0.02427666
3026.29876831,0.02421015
3028.22757568,0.02409527
3030.15638306,0.02406318
3032.08519043,0.02399545
3034.01399780,0.02396934
3035.94280518,0.02394375
3037.87161255,0.02392606
3039.80041992,0.02386311
3041.72922729,0.02386021
3043.65803467,0.02386804
3045.58684204,0.02377587
3047.51564941,0.02375888
3049.44445679,0.02374213
3051.37326416,0.02368337
3053.30207153,0.02370870
3055.23087891,0.02368172
3057.15968628,0.02346382
3059.08849365,0.02340998
3061.01730103,0.02346723
3062.94610840,0.02342298
3064.87491577,0.02339402
3066.80372314,0.02329311
3068.73253052,0.02334787
3070.66133789,0.02334665
3072.59014526,0.02321468
3074.51895264,0.02320294
3076.44776001,0.02313063
3078.37656738,0.02315551
3080.30537476,0.02310653
3082.23418213,0.02307219
3084.16298950,0.02309255
3086.09179687,0.02302264
3088.02060425,0.02306972
3089.94941162,0.02288424
3091.87821899,0.02281757
3093.80702637,0.02287592
3095.73583374,0.02269384
3097.66464111,0.02275377
3099.59344849,0.02270439
3101.52225586,0.02250743
3103.45106323,0.02256285
3105.37987061,0.02257721
3107.30867798,0.02252707
3109.23748535,0.02251614
3111.16629272,0.02252404
3113.09510010,0.02250392
3115.02390747,0.02237644
3116.95271484,0.02221129
3118.88152222,0.02219020
3120.81032959,0.02227556
3122.73913696,0.02219731
3124.66794434,0.02211319
3126.59675171,0.02204940
3128.52555908,0.02191492
3130.45436645,0.02200279
3132.38317383,0.02200873
3134.31198120,0.02190125
3136.24078857,0.02190910
3138.16959595,0.02181036
3140.09840332,0.02180500
3142.02721069,0.02177239
3143.95601807,0.02158514
3145.88482544,0.02159777
3147.81363281,0.02164495
3149.74244019,0.02146787
3151.67124756,0.02137595
3153.60005493,0.02144602
3155.52886230,0.02146880
3157.45766968,0.02140996
3159.38647705,0.02126404
3161.31528442,0.02126529
3163.24409180,0.02120574
3165.17289917,0.02116414
3167.10170654,0.02119525
3169.03051392,0.02098081
3170.95932129,0.02096221
3172.88812866,0.02092682
3174.81693604,0.02092875
3176.74574341,0.02089205
3178.67455078,0.02065203
3180.60335815,0.02073584
3182.53216553,0.02078777
3184.46097290,0.02075496
3186.38978027,0.02057389
3188.31858765,0.02061458
3190.24739502,0.02066214
3192.17620239,0.02036529
3194.10500977,0.02050075
3196.03381714,0.02041610
3197.96262451,0.02032808
3199.89143188,0.02041726
3201.82023926,0.02031312
3203.74904663,0.02027441
3205.67785400,0.02019257
3207.60666138,0.02028024
3209.53546875,0.02012012
3211.46427612,0.02004265
3213.39308350,0.02009258
3215.32189087,0.02001659
3217.25069824,0.02009270
3219.17950562,0.01993861
3221.10831299,0.01992675
3223.03712036,0.01993784
3224.96592773,0.01994186
3226.89473511,0.01987121
3228.82354248,0.01971474
3230.75234985,0.01988341
3232.68115723,0.01976616
3234.60996460,0.01964147
3236.53877197,0.01968868
3238.46757935,0.01970842
3240.39638672,0.01971522
3242.32519409,0.01960226
3244.25400146,0.01959070
3246.18280884,0.01956271
3248.11161621,0.01956846
3250.04042358,0.01956436
3251.96923096,0.01948372
3253.89803833,0.01943812
3255.82684570,0.01941148
3257.75565308,0.01939137
3259.68446045,0.01942031
3261.61326782,0.01944167
3263.54207520,0.01938637
3265.47088257,0.01944260
3267.39968994,0.01941734
3269.32849731,0.01937066
3271.25730469,0.01937934
3273.18611206,0.01929887
3275.11491943,0.01925267
3277.04372681,0.01929275
3278.97253418,0.01931678
3280.90134155,0.01916467
3282.83014893,0.01919666
3284.75895630,0.01922852
3286.68776367,0.01912239
3288.61657104,0.01921076
3290.54537842,0.01919322
3292.47418579,0.01904208
3294.40299316,0.01902482
3296.33180054,0.01912591
3298.26060791,0.01903263
3300.18941528,0.01902777
3302.11822266,0.01917544
3304.04703003,0.01908616
3305.97583740,0.01899199
3307.90464478,0.01899822
3309.83345215,0.01896809
3311.76225952,0.01891425
3313.69106689,0.01900841
3315.61987427,0.01892702
3317.54868164,0.01891051
3319.47748901,0.01900974
3321.40629639,0.01876818
3323.33510376,0.01874600
3325.26391113,0.01877795
3327.19271851,0.01875234
3329.12152588,0.01877283
3331.05033325,0.01875405
3332.97914062,0.01882424
3334.90794800,0.01871721
3336.83675537,0.01852730
3338.76556274,0.01859624
3340.69437012,0.01873283
3342.62317749,0.01854383
3344.55198486,0.01853904
3346.48079224,0.01848882
3348.40959961,0.01840016
3350.33840698,0.01855992
3352.26721436,0.01840326
3354.19602173,0.01848401
3356.12482910,0.01838104
3358.05363647,0.01827006
3359.98244385,0.01844740
3361.91125122,0.01831899
3363.84005859,0.01835052
3365.76886597,0.01820304
3367.69767334,0.01814061
3369.62648071,0.01822254
3371.55528809,0.01813335
3373.48409546,0.01810292
3375.41290283,0.01812638
3377.34171020,0.01805708
3379.27051758,0.01784588
3381.19932495,0.01804604
3383.12813232,0.01806213
3385.05693970,0.01790389
3386.98574707,0.01795798
3388.91455444,0.01789956
3390.84336182,0.01785112
3392.77216919,0.01776396
3394.70097656,0.01779188
3396.62978394,0.01779149
3398.55859131,0.01777817
3400.48739868,0.01764289
3402.41620605,0.01762043
3404.34501343,0.01769281
3406.27382080,0.01759241
3408.20262817,0.01763093
3410.13143555,0.01750635
3412.06024292,0.01756766
3413.98905029,0.01754016
3415.91785767,0.01751382
3417.84666504,0.01746558
3419.77547241,0.01723105
3421.70427979,0.01743772
3423.63308716,0.01731008
3425.56189453,0.01732140
3427.49070190,0.01733828
3429.41950928,0.01720712
3431.34831665,0.01731484
3433.27712402,0.01720815
3435.20593140,0.01721843
3437.13473877,0.01709788
3439.06354614,0.01724572
3440.99235352,0.01711362
3442.92116089,0.01690294
3444.84996826,0.01710504
3446.77877563,0.01680330
3448.70758301,0.01691824
3450.63639038,0.01706154
3452.56519775,0.01701757
3454.49400513,0.01710247
3456.42281250,0.01687399
3458.35161987,0.01683068
3460.28042725,0.01686061
3462.20923462,0.01679491
3464.13804199,0.01688318
3466.06684937,0.01691990
3467.99565674,0.01678658
3469.92446411,0.01682528
3471.85327148,0.01674232
3473.78207886,0.01672861
3475.71088623,0.01677688
3477.63969360,0.01675005
3479.56850098,0.01680743
3481.49730835,0.01650568
3483.42611572,0.01670413
3485.35492310,0.01679868
3487.28373047,0.01657317
3489.21253784,0.01671603
3491.14134521,0.01662998
3493.07015259,0.01672013
3494.99895996,0.01666113
3496.92776733,0.01656950
3498.85657471,0.01660159
3500.78538208,0.01649912
3502.71418945,0.01631842
3504.64299683,0.01632692
3506.57180420,0.01666670
3508.50061157,0.01650362
3510.42941895,0.01650646
3512.35822632,0.01658428
3514.28703369,0.01656652
3516.21584106,0.01664304
3518.14464844,0.01644281
3520.07345581,0.01659713
3522.00226318,0.01650378
3523.93107056,0.01624889
3525.85987793,0.01625076
3527.78868530,0.01621579
3529.71749268,0.01622288
3531.64630005,0.01641447
3533.57510742,0.01668614
3535.50391479,0.01645052
3537.43272217,0.01638581
3539.36152954,0.01657285
3541.29033691,0.01649425
3543.21914429,0.01641973
3545.14795166,0.01603808
3547.07675903,0.01580556
3549.00556641,0.01637587
3550.93437378,0.01638164
3552.86318115,0.01600472
3554.79198853,0.01637932
3556.72079590,0.01640525
3558.64960327,0.01639044
3560.57841064,0.01623339
3562.50721802,0.01614390
3564.43602539,0.01639241
3566.36483276,0.01523842
3568.29364014,0.01483210
3570.22244751,0.01612042
3572.15125488,0.01646062
3574.08006226,0.01621166
3576.00886963,0.01643558
3577.93767700,0.01636065
3579.86648437,0.01614264
3581.79529175,0.01612114
3583.72409912,0.01627636
3585.65290649,0.01598179
3587.58171387,0.01456609
3589.51052124,0.01506237
3591.43932861,0.01637953
3593.36813599,0.01586900
3595.29694336,0.01572721
3597.22575073,0.01594230
3599.15455811,0.01603602
3601.08336548,0.01596427
3603.01217285,0.01614192
3604.94098022,0.01638411
3606.86978760,0.01572904
3608.79859497,0.01487180
3610.72740234,0.01524590
3612.65620972,0.01556732
3614.58501709,0.01511978
3616.51382446,0.01624004
3618.44263184,0.01508515
3620.37143921,0.01455431
3622.30024658,0.01633810
3624.22905395,0.01586870
3626.15786133,0.01661425
3628.08666870,0.01417400
3630.01547607,0.01297935
3631.94428345,0.01612736
3633.87309082,0.01555946
3635.80189819,0.01591344
3637.73070557,0.01628470
3639.65951294,0.01596439
3641.58832031,0.01616286
3643.51712769,0.01594572
3645.44593506,0.01609815
3647.37474243,0.01455546
3649.30354980,0.01337549
3651.23235718,0.01359758
3653.16116455,0.01603229
3655.08997192,0.01574190
3657.01877930,0.01419412
3658.94758667,0.01618073
3660.87639404,0.01585779
3662.80520142,0.01619531
3664.73400879,0.01599862
3666.66281616,0.01588185
3668.59162354,0.01550132
3670.52043091,0.01268793
3672.44923828,0.01535362
3674.37804565,0.01465360
3676.30685303,0.01223725
3678.23566040,0.01524692
3680.16446777,0.01556082
3682.09327515,0.01553556
3684.02208252,0.01592638
3685.95088989,0.01573544
3687.87969727,0.01414275
3689.80850464,0.01305082
3691.73731201,0.01490784
3693.66611938,0.01522137
3695.59492676,0.01559537
3697.52373413,0.01562508
3699.45254150,0.01555035
3701.38134888,0.01514960
3703.31015625,0.01453650
3705.23896362,0.01596983
3707.16777100,0.01515349
3709.09657837,0.01489077
3711.02538574,0.01405513
3712.95419312,0.01315131
3714.88300049,0.01533644
3716.81180786,0.01509101
3718.74061523,0.01531500
3720.66942261,0.01497481
3722.59822998,0.01448053
3724.52703735,0.01500965
3726.45584473,0.01391012
3728.38465210,0.01505474
3730.31345947,0.01485532
3732.24226685,0.01378493
3734.17107422,0.01347092
3736.09988159,0.01270539
3738.02868896,0.01345843
3739.95749634,0.01464878
3741.88630371,0.01526611
3743.81511108,0.01189402
3745.74391846,0.01127654
3747.67272583,0.01444206
3749.60153320,0.01255738
3751.53034058,0.01162892
3753.45914795,0.01324678
3755.38795532,0.01423407
3757.31676270,0.01470156
3759.24557007,0.01369739
3761.17437744,0.01416062
3763.10318481,0.01504850
3765.03199219,0.01413679
3766.96079956,0.01433319
3768.88960693,0.01423743
3770.81841431,0.01357070
3772.74722168,0.01456650
3774.67602905,0.01464988
3776.60483643,0.01466168
3778.53364380,0.01427888
3780.46245117,0.01375036
3782.39125854,0.01458143
3784.32006592,0.01425209
3786.24887329,0.01422397
3788.17768066,0.01452906
3790.10648804,0.01445015
3792.03529541,0.01437012
3793.96410278,0.01464820
3795.89291016,0.01378543
3797.82171753,0.01355467
3799.75052490,0.01423979
3801.67933228,0.01136553
3803.60813965,0.01329379
3805.53694702,0.01438508
3807.46575439,0.01182809
3809.39456177,0.01422342
3811.32336914,0.01391203
3813.25217651,0.01445319
3815.18098389,0.01308388
3817.10979126,0.01146969
3819.03859863,0.01438351
3820.96740601,0.01176191
3822.89621338,0.01235712
3824.82502075,0.01428226
3826.75382812,0.01296230
3828.68263550,0.01396616
3830.61144287,0.01339346
3832.54025024,0.01291290
3834.46905762,0.01324434
3836.39786499,0.01267848
3838.32667236,0.01148914
3840.25547974,0.01240998
3842.18428711,0.01340899
3844.11309448,0.01273619
3846.04190186,0.01371612
3847.97070923,0.01357544
3849.89951660,0.01354774
3851.82832397,0.01227773
3853.75713135,0.00926403
3855.68593872,0.01093614
3857.61474609,0.01367158
3859.54355347,0.01321898
3861.47236084,0.01311714
3863.40116821,0.01280028
3865.32997559,0.01189652
3867.25878296,0.01327259
3869.18759033,0.01214499
3871.11639770,0.01126230
3873.04520508,0.01326921
3874.97401245,0.01222805
3876.90281982,0.01308805
3878.83162720,0.01348924
3880.76043457,0.01167815
3882.68924194,0.01319072
3884.61804932,0.01237398
3886.54685669,0.01134929
3888.47566406,0.01325640
3890.40447144,0.01260415
3892.33327881,0.01188895
3894.26208618,0.01297443
3896.19089355,0.01317366
3898.11970093,0.01263220
3900.04850830,0.01187947
3901.97731567,0.01169409
3903.90612305,0.01161483
3905.83493042,0.01190244
3907.76373779,0.01289480
3909.69254517,0.01279994
3911.62135254,0.01280334
3913.55015991,0.01296882
3915.47896728,0.01254590
3917.40777466,0.01219615
3919.33658203,0.01210252
3921.26538940,0.01251459
3923.19419678,0.01244674
3925.12300415,0.01231110
3927.05181152,0.01240512
3928.98061890,0.01256938
3930.90942627,0.01237259
3932.83823364,0.01190518
3934.76704102,0.01243746
3936.69584839,0.01254147
3938.62465576,0.01239261
3940.55346313,0.01243486
3942.48227051,0.01208920
3944.41107788,0.01219431
3946.33988525,0.01228547
3948.26869263,0.01209948
3950.19750000,0.01207236
3952.12630737,0.01228951
3954.05511475,0.01234583
3955.98392212,0.01216808
3957.91272949,0.01216326
3959.84153687,0.01228155
3961.77034424,0.01214021
3963.69915161,0.01203568
3965.62795898,0.01220845
3967.55676636,0.01211318
3969.48557373,0.01207133
3971.41438110,0.01203512
3973.34318848,0.01208898
3975.27199585,0.01207492
3977.20080322,0.01191221
3979.12961060,0.01207227
3981.05841797,0.01192247
3982.98722534,0.01187654
3984.91603271,0.01185671
3986.84484009,0.01183478
3988.77364746,0.01194255
3990.70245483,0.01176258
3992.63126221,0.01182053
3994.56006958,0.01177550
3996.48887695,0.01176107
3998.41768433,0.01178298
4000.34649170,0.01165195
4002.27529907,0.01164336
4004.20410645,0.01163162
4006.13291382,0.01164690
4008.06172119,0.01159611
4009.99052856,0.01164637
4011.91933594,0.01156809
4013.84814331,0.01156191
4015.77695068,0.01164570
4017.70575806,0.01148621
4019.63456543,0.01143255
4021.56337280,0.01141656
4023.49218018,0.01149016
4025.42098755,0.01147703
4027.34979492,0.01135807
4029.27860229,0.01135288
4031.20740967,0.01139761
4033.13621704,0.01131045
4035.06502441,0.01123449
4036.99383179,0.01135639
4038.92263916,0.01124232
4040.85144653,0.01118098
4042.78025391,0.01121916
4044.70906128,0.01117712
4046.63786865,0.01125447
4048.56667603,0.01126168
4050.49548340,0.01113825
4052.42429077,0.01111257
4054.35309814,0.01120150
4056.28190552,0.01109317
4058.21071289,0.01103797
4060.13952026,0.01103679
4062.06832764,0.01098790
4063.99713501,0.01101611
4065.92594238,0.01101136
4067.85474976,0.01097157
4069.78355713,0.01091287
4071.71236450,0.01093459
4073.64117187,0.01081490
4075.56997925,0.01084338
4077.49878662,0.01093210
4079.42759399,0.01087416
4081.35640137,0.01094037
4083.28520874,0.01079218
4085.21401611,0.01072689
4087.14282349,0.01073465
4089.07163086,0.01066123
4091.00043823,0.01067427
4092.92924561,0.01071390
4094.85805298,0.01065915
4096.78686035,0.01055918
4098.71566772,0.01063502
4100.64447510,0.01055002
4102.57328247,0.01054005
4104.50208984,0.01052191
4106.43089722,0.01039339
4108.35970459,0.01046038
4110.28851196,0.01052102
4112.21731934,0.01054393
4114.14612671,0.01043502
4116.07493408,0.01037614
4118.00374145,0.01031928
4119.93254883,0.01043586
4121.86135620,0.01045715
4123.79016357,0.01026299
4125.71897095,0.01030871
4127.64777832,0.01019545
4129.57658569,0.01025344
4131.50539307,0.01021479
4133.43420044,0.01013926
4135.36300781,0.01027060
4137.29181519,0.01010669
4139.22062256,0.01010945
4141.14942993,0.01014150
4143.07823730,0.01009513
4145.00704468,0.01007050
4146.93585205,0.01012757
4148.86465942,0.01010175
4150.79346680,0.01001994
4152.72227417,0.01009132
4154.65108154,0.00995435
4156.57988892,0.00993633
4158.50869629,0.00990158
4160.43750366,0.00989151
4162.36631103,0.00991849
4164.29511841,0.00983818
4166.22392578,0.00992106
4168.15273315,0.00988522
4170.08154053,0.00985648
4172.01034790,0.00977123
4173.93915527,0.00982506
4175.86796265,0.00985931
4177.79677002,0.00966958
4179.72557739,0.00971791
4181.65438477,0.00972344
4183.58319214,0.00968017
4185.51199951,0.00963111
4187.44080688,0.00961220
4189.36961426,0.00957237
4191.29842163,0.00953726
4193.22722900,0.00956970
4195.15603638,0.00949221
4197.08484375,0.00948283
4199.01365112,0.00946040
4200.94245850,0.00944566
4202.87126587,0.00942832
4204.80007324,0.00945234
4206.72888062,0.00941614
4208.65768799,0.00939851
4210.58649536,0.00950697
4212.51530273,0.00933896
4214.44411011,0.00926603
4216.37291748,0.00930535
4218.30172485,0.00934350
4220.23053223,0.00935970
4222.15933960,0.00931310
4224.08814697,0.00931999
4226.01695435,0.00919478
4227.94576172,0.00925537
4229.87456909,0.00920410
4231.80337646,0.00902713
4233.73218384,0.00913928
4235.66099121,0.00915003
4237.58979858,0.00909624
4239.51860596,0.00913006
4241.44741333,0.00911630
4243.37622070,0.00907715
4245.30502808,0.00903752
4247.23383545,0.00902977
4249.16264282,0.00911240
4251.09145020,0.00894989
4253.02025757,0.00884772
4254.94906494,0.00897356
4256.87787231,0.00892444
4258.80667969,0.00894491
4260.73548706,0.00887926
4262.66429443,0.00887931
4264.59310181,0.00892239
4266.52190918,0.00881950
4268.45071655,0.00878151
4270.37952393,0.00875463
4272.30833130,0.00884852
4274.23713867,0.00874108
4276.16594604,0.00867619
4278.09475342,0.00873306
4280.02356079,0.00868802
4281.95236816,0.00874055
4283.88117554,0.00872484
4285.80998291,0.00870207
4287.73879028,0.00853192
4289.66759766,0.00851117
4291.59640503,0.00859694
4293.52521240,0.00848758
4295.45401978,0.00851178
4297.38282715,0.00850249
4299.31163452,0.00853301
4301.24044189,0.00854100
4303.16924927,0.00845960
4305.09805664,0.00848665
4307.02686401,0.00846749
4308.95567139,0.00833504
4310.88447876,0.00831244
4312.81328613,0.00841993
4314.74209351,0.00840546
4316.67090088,0.00834740
4318.59970825,0.00828254
4320.52851562,0.00832670
4322.45732300,0.00838700
4324.38613037,0.00829192
4326.31493774,0.00819534
4328.24374512,0.00817451
4330.17255249,0.00822974
4332.10135986,0.00815928
4334.03016724,0.00813382
4335.95897461,0.00812768
4337.88778198,0.00814729
4339.81658936,0.00822290
4341.74539673,0.00810876
4343.67420410,0.00807196
4345.60301147,0.00804093
4347.53181885,0.00807115
4349.46062622,0.00807556
4351.38943359,0.00800185
4353.31824097,0.00806379
4355.24704834,0.00797839
4357.17585571,0.00796743
4359.10466309,0.00793944
4361.03347046,0.00785572
4362.96227783,0.00793973
4364.89108520,0.00792630
4366.81989258,0.00787627
4368.74869995,0.00783128
4370.67750732,0.00784897
4372.60631470,0.00784301
4374.53512207,0.00773818
4376.46392944,0.00771607
4378.39273682,0.00769629
4380.32154419,0.00772926
4382.25035156,0.00774558
4384.17915894,0.00769657
4386.10796631,0.00769148
4388.03677368,0.00763379
4389.96558105,0.00761558
4391.89438843,0.00756701
4393.82319580,0.00753127
4395.75200317,0.00758133
4397.68081055,0.00754022
4399.60961792,0.00757610
4401.53842529,0.00755512
4403.46723267,0.00752079
4405.39604004,0.00751150
4407.32484741,0.00744355
4409.25365478,0.00751100
4411.18246216,0.00743342
4413.11126953,0.00744814
4415.04007690,0.00747085
4416.96888428,0.00733464
4418.89769165,0.00738784
4420.82649902,0.00735416
4422.75530640,0.00736168
4424.68411377,0.00736146
4426.61292114,0.00725826
4428.54172852,0.00726812
4430.47053589,0.00731136
4432.39934326,0.00727954
4434.32815063,0.00722502
4436.25695801,0.00728915
4438.18576538,0.00722787
4440.11457275,0.00723244
4442.04338013,0.00724240
4443.97218750,0.00714097
4445.90099487,0.00725033
4447.82980225,0.00722978
4449.75860962,0.00710780
4451.68741699,0.00712365
4453.61622437,0.00715513
4455.54503174,0.00707655
4457.47383911,0.00706841
4459.40264648,0.00711302
4461.33145386,0.00705837
4463.26026123,0.00706622
4465.18906860,0.00696692
4467.11787598,0.00691776
4469.04668335,0.00694964
4470.97549072,0.00688871
4472.90429810,0.00684648
4474.83310547,0.00688734
4476.76191284,0.00691880
4478.69072021,0.00683126
4480.61952759,0.00685073
4482.54833496,0.00682173
4484.47714233,0.00682382
4486.40594971,0.00684646
4488.33475708,0.00679193
4490.26356445,0.00684044
4492.19237183,0.00675669
4494.12117920,0.00679007
4496.04998657,0.00676803
4497.97879395,0.00670837
4499.90760132,0.00681905
4501.83640869,0.00667590
4503.76521606,0.00665863
4505.69402344,0.00672613
4507.62283081,0.00661461
4509.55163818,0.00661326
4511.48044556,0.00657466
4513.40925293,0.00653666
4515.33806030,0.00664660
4517.26686768,0.00659921
4519.19567505,0.00658463
4521.12448242,0.00662711
4523.05328979,0.00648984
4524.98209717,0.00649256
4526.91090454,0.00648927
4528.83971191,0.00651446
4530.76851929,0.00648482
4532.69732666,0.00639920
4534.62613403,0.00647462
4536.55494141,0.00634525
4538.48374878,0.00635720
4540.41255615,0.00638700
4542.34136353,0.00632998
4544.27017090,0.00634840
4546.19897827,0.00626770
4548.12778564,0.00636072
4550.05659302,0.00629237
4551.98540039,0.00624760
4553.91420776,0.00631439
4555.84301514,0.00621412
4557.77182251,0.00629182
4559.70062988,0.00630678
4561.62943726,0.00626011
4563.55824463,0.00624508
4565.48705200,0.00617592
4567.41585937,0.00617196
4569.34466675,0.00614159
4571.27347412,0.00616324
4573.20228149,0.00613745
4575.13108887,0.00603338
4577.05989624,0.00613299
4578.98870361,0.00612280
4580.91751099,0.00600163
4582.84631836,0.00605631
4584.77512573,0.00604070
4586.70393311,0.00604653
4588.63274048,0.00603611
4590.56154785,0.00605605
4592.49035522,0.00611910
4594.41916260,0.00599230
4596.34796997,0.00599036
4598.27677734,0.00596151
4600.20558472,0.00589071
4602.13439209,0.00593236
4604.06319946,0.00591540
4605.99200684,0.00595279
4607.92081421,0.00590636
4609.84962158,0.00582530
4611.77842895,0.00589737
4613.70723633,0.00590186
4615.63604370,0.00579778
4617.56485107,0.00576324
4619.49365845,0.00575243
4621.42246582,0.00579892
4623.35127319,0.00579910
4625.28008057,0.00572725
4627.20888794,0.00577246
4629.13769531,0.00572929
4631.06650269,0.00569886
4632.99531006,0.00567944
4634.92411743,0.00567018
4636.85292480,0.00564391
4638.78173218,0.00555299
4640.71053955,0.00567979
4642.63934692,0.00561605
4644.56815430,0.00554656
4646.49696167,0.00563416
4648.42576904,0.00556610
4650.35457642,0.00555724
4652.28338379,0.00558660
4654.21219116,0.00557582
4656.14099853,0.00550028
4658.06980591,0.00557249
4659.99861328,0.00553882
4661.92742065,0.00543690
4663.85622803,0.00554668
4665.78503540,0.00545280
4667.71384277,0.00539845
4669.64265015,0.00539105
4671.57145752,0.00539772
4673.50026489,0.00545697
4675.42907227,0.00533142
4677.35787964,0.00529181
4679.28668701,0.00534594
4681.21549438,0.00536375
4683.14430176,0.00533494
4685.07310913,0.00529020
4687.00191650,0.00526482
4688.93072388,0.00529780
4690.85953125,0.00529660
4692.78833862,0.00520351
4694.71714600,0.00523134
4696.64595337,0.00526299
4698.57476074,0.00520402
4700.50356812,0.00517448
4702.43237549,0.00522351
4704.36118286,0.00524716
4706.28999023,0.00520601
4708.21879761,0.00519806
4710.14760498,0.00522012
4712.07641235,0.00519416
4714.00521973,0.00513088
4715.93402710,0.00516407
4717.86283447,0.00514816
4719.79164185,0.00510182
4721.72044922,0.00512286
4723.64925659,0.00508760
4725.57806396,0.00501667
4727.50687134,0.00501848
4729.43567871,0.00509350
4731.36448608,0.00508941
4733.29329346,0.00500819
4735.22210083,0.00493708
4737.15090820,0.00500983
4739.07971558,0.00500833
4741.00852295,0.00499084
4742.93733032,0.00502649
4744.86613770,0.00489865
4746.79494507,0.00496496
4748.72375244,0.00492024
4750.65255981,0.00488964
4752.58136719,0.00497173
4754.51017456,0.00485937
4756.43898193,0.00489192
4758.36778931,0.00485235
4760.29659668,0.00485595
4762.22540405,0.00482464
4764.15421143,0.00481639
4766.08301880,0.00483628
4768.01182617,0.00472238
4769.94063354,0.00484139
4771.86944092,0.00476328
4773.79824829,0.00475211
4775.72705566,0.00482650
4777.65586304,0.00474979
4779.58467041,0.00474283
4781.51347778,0.00470598
4783.44228516,0.00476239
4785.37109253,0.00465018
4787.29989990,0.00466845
4789.22870728,0.00472330
4791.15751465,0.00464143
4793.08632202,0.00469594
4795.01512939,0.00461036
4796.94393677,0.00460904
4798.87274414,0.00462598
4800.80155151,0.00459984
4802.73035889,0.00459345
4804.65916626,0.00457367
4806.58797363,0.00454302
4808.51678101,0.00447809
4810.44558838,0.00454307
4812.37439575,0.00455538
4814.30320312,0.00456512
4816.23201050,0.00454913
4818.16081787,0.00446046
4820.08962524,0.00444655
4822.01843262,0.00449501
4823.94723999,0.00447870
4825.87604736,0.00444397
4827.80485474,0.00454504
4829.73366211,0.00444541
4831.66246948,0.00431937
4833.59127686,0.00434620
4835.52008423,0.00436902
4837.44889160,0.00442422
4839.37769897,0.00446397
4841.30650635,0.00442541
4843.23531372,0.00432749
4845.16412109,0.00435250
4847.09292847,0.00428737
4849.02173584,0.00428900
4850.95054321,0.00432262
4852.87935059,0.00422442
4854.80815796,0.00430056
4856.73696533,0.00426008
4858.66577270,0.00417692
4860.59458008,0.00417576
4862.52338745,0.00424184
4864.45219482,0.00424054
4866.38100220,0.00417749
4868.30980957,0.00426051
4870.23861694,0.00413669
4872.16742432,0.00408761
4874.09623169,0.00420121
4876.02503906,0.00418972
4877.95384644,0.00414286
4879.88265381,0.00412281
4881.81146118,0.00410529
4883.74026855,0.00407838
4885.66907593,0.00414742
4887.59788330,0.00415042
4889.52669067,0.00410675
4891.45549805,0.00410345
4893.38430542,0.00411768
4895.31311279,0.00404200
4897.24192017,0.00406187
4899.17072754,0.00413170
4901.09953491,0.00393233
4903.02834228,0.00398279
4904.95714966,0.00406785
4906.88595703,0.00401035
4908.81476440,0.00401489
4910.74357178,0.00398569
4912.67237915,0.00401781
4914.60118652,0.00400227
4916.52999390,0.00404782
4918.45880127,0.00393945
4920.38760864,0.00382919
4922.31641602,0.00387809
4924.24522339,0.00389191
4926.17403076,0.00388743
4928.10283813,0.00379211
4930.03164551,0.00386667
4931.96045288,0.00389181
4933.88926025,0.00390794
4935.81806763,0.00387459
4937.74687500,0.00378354
4939.67568237,0.00389016
4941.60448975,0.00384228
4943.53329712,0.00387453
4945.46210449,0.00382965
4947.39091187,0.00372005
4949.31971924,0.00379631
4951.24852661,0.00376195
4953.17733398,0.00364649
4955.10614136,0.00361111
4957.03494873,0.00376668
4958.96375610,0.00376690
4960.89256348,0.00368817
4962.82137085,0.00369502
4964.75017822,0.00371899
4966.67898560,0.00371606
4968.60779297,0.00364960
4970.53660034,0.00372684
4972.46540771,0.00368354
4974.39421509,0.00364538
4976.32302246,0.00366637
4978.25182983,0.00359004
4980.18063721,0.00358618
4982.10944458,0.00364218
4984.03825195,0.00367002
4985.96705933,0.00361293
4987.89586670,0.00361488
4989.82467407,0.00351482
4991.75348145,0.00353766
4993.68228882,0.00360428
4995.61109619,0.00344581
4997.53990356,0.00349062
4999.46871094,0.00353188
5001.39751831,0.00351702
5003.32632568,0.00347581
5005.25513306,0.00341609
5007.18394043,0.00345933
5009.11274780,0.00346193
5011.04155518,0.00347738
5012.97036255,0.00350362
5014.89916992,0.00346833
5016.82797729,0.00340433
5018.75678467,0.00345947
5020.68559204,0.00341660
5022.61439941,0.00340381
5024.54320679,0.00347635
5026.47201416,0.00335942
5028.40082153,0.00335273
5030.32962891,0.00334234
5032.25843628,0.00334678
5034.18724365,0.00338501
5036.11605103,0.00333714
5038.04485840,0.00331073
5039.97366577,0.00333445
5041.90247314,0.00338312
5043.83128052,0.00328659
5045.76008789,0.00336914
5047.68889526,0.00337631
5049.61770264,0.00319886
5051.54651001,0.00330599
5053.47531738,0.00333784
5055.40412476,0.00324937
5057.33293213,0.00324173
5059.26173950,0.00326291
5061.19054687,0.00323990
5063.11935425,0.00325705
5065.04816162,0.00325676
5066.97696899,0.00314233
5068.90577637,0.00316343
5070.83458374,0.00320739
5072.76339111,0.00319575
5074.69219849,0.00316795
5076.62100586,0.00310603
5078.54981323,0.00311847
5080.47862061,0.00314893
5082.40742798,0.00309287
5084.33623535,0.00309744
5086.26504272,0.00314528
5088.19385010,0.00306673
5090.12265747,0.00308234
5092.05146484,0.00313087
5093.98027222,0.00308082
5095.90907959,0.00304601
5097.83788696,0.00305834
5099.76669434,0.00308178
5101.69550171,0.00309953
5103.62430908,0.00310541
5105.55311645,0.00299759
5107.48192383,0.00301292
5109.41073120,0.00302425
5111.33953857,0.00301008
5113.26834595,0.00308802
5115.19715332,0.00298207
5117.12596069,0.00301095
5119.05476807,0.00302817
5120.98357544,0.00294124
5122.91238281,0.00297906
5124.84119019,0.00296077
5126.76999756,0.00296390
5128.69880493,0.00297404
5130.62761230,0.00302131
5132.55641968,0.00300857
5134.48522705,0.00294296
5136.41403442,0.00297139
5138.34284180,0.00296309
5140.27164917,0.00290955
5142.20045654,0.00287729
5144.12926392,0.00292322
5146.05807129,0.00291008
5147.98687866,0.00287268
5149.91568603,0.00283142
5151.84449341,0.00281514
5153.77330078,0.00291964
5155.70210815,0.00284840
5157.63091553,0.00277249
5159.55972290,0.00283520
5161.48853027,0.00278398
5163.41733765,0.00271172
5165.34614502,0.00276122
5167.27495239,0.00283798
5169.20375977,0.00278183
5171.13256714,0.00275001
5173.06137451,0.00277469
5174.99018188,0.00274088
5176.91898926,0.00279395
5178.84779663,0.00279303
5180.77660400,0.00270661
5182.70541138,0.00272909
5184.63421875,0.00275996
5186.56302612,0.00273162
5188.49183350,0.00266751
5190.42064087,0.00268076
5192.34944824,0.00267541
5194.27825562,0.00261597
5196.20706299,0.00263667
5198.13587036,0.00263224
5200.06467773,0.00271700
5201.99348511,0.00271707
5203.92229248,0.00263194
5205.85109985,0.00262211
5207.77990723,0.00254321
5209.70871460,0.00260316
5211.63752197,0.00266078
5213.56632935,0.00266326
5215.49513672,0.00256437
5217.42394409,0.00249258
5219.35275146,0.00265834
5221.28155884,0.00261584
5223.21036621,0.00257647
5225.13917358,0.00256452
5227.06798096,0.00253571
5228.99678833,0.00261479
5230.92559570,0.00256109
5232.85440308,0.00253193
5234.78321045,0.00250992
5236.71201782,0.00250824
5238.64082520,0.00251279
5240.56963257,0.00256267
5242.49843994,0.00254336
5244.42724731,0.00239395
5246.35605469,0.00247863
5248.28486206,0.00245387
5250.21366943,0.00242272
5252.14247681,0.00250405
5254.07128418,0.00243155
5256.00009155,0.00246352
5257.92889893,0.00245555
5259.85770630,0.00242409
5261.78651367,0.00245368
5263.71532104,0.00234344
5265.64412842,0.00232222
5267.57293579,0.00244904
5269.50174316,0.00242243
5271.43055054,0.00237579
5273.35935791,0.00242736
5275.28816528,0.00238654
5277.21697266,0.00237574
5279.14578003,0.00239001
5281.07458740,0.00238563
5283.00339478,0.00239052
5284.93220215,0.00232941
5286.86100952,0.00239340
5288.78981689,0.00240840
5290.71862427,0.00224515
5292.64743164,0.00228066
5294.57623901,0.00234711
5296.50504639,0.00235899
5298.43385376,0.00237514
5300.36266113,0.00225421
5302.29146851,0.00232652
5304.22027588,0.00239411
5306.14908325,0.00229758
5308.07789062,0.00229400
5310.00669800,0.00225989
5311.93550537,0.00227482
5313.86431274,0.00226258
5315.79312012,0.00222302
5317.72192749,0.00220949
5319.65073486,0.00225015
5321.57954224,0.00232208
5323.50834961,0.00226139
5325.43715698,0.00223860
5327.36596436,0.00217851
5329.29477173,0.00222346
5331.22357910,0.00222044
5333.15238647,0.00209713
5335.08119385,0.00222349
5337.01000122,0.00216949
5338.93880859,0.00207766
5340.86761597,0.00220140
5342.79642334,0.00220794
5344.72523071,0.00208637
5346.65403809,0.00205834
5348.58284546,0.00212596
5350.51165283,0.00218731
5352.44046020,0.00220066
5354.36926758,0.00206501
5356.29807495,0.00211838
5358.22688232,0.00218235
5360.15568970,0.00214601
5362.08449707,0.00212449
5364.01330444,0.00201541
5365.94211182,0.00212040
5367.87091919,0.00212001
5369.79972656,0.00212139
5371.72853394,0.00212187
5373.65734131,0.00205859
5375.58614868,0.00214348
5377.51495605,0.00196991
5379.44376343,0.00200729
5381.37257080,0.00212381
5383.30137817,0.00206963
5385.23018555,0.00210421
5387.15899292,0.00203480
5389.08780029,0.00202280
5391.01660767,0.00203859
5392.94541504,0.00206231
5394.87422241,0.00196715
5396.80302978,0.00199684
5398.73183716,0.00211442
5400.66064453,0.00196048
5402.58945190,0.00198056
5404.51825928,0.00197840
5406.44706665,0.00194026
5408.37587402,0.00201810
5410.30468140,0.00195959
5412.23348877,0.00188652
5414.16229614,0.00190433
5416.09110352,0.00194840
5418.01991089,0.00192738
5419.94871826,0.00194247
5421.87752563,0.00189610
5423.80633301,0.00187771
5425.73514038,0.00191956
5427.66394775,0.00182630
5429.59275513,0.00179689
5431.52156250,0.00183709
5433.45036987,0.00186656
5435.37917725,0.00182142
5437.30798462,0.00185372
5439.23679199,0.00192257
5441.16559936,0.00187402
5443.09440674,0.00187705
5445.02321411,0.00181312
5446.95202148,0.00183021
5448.88082886,0.00187998
5450.80963623,0.00185451
5452.73844360,0.00190889
5454.66725098,0.00188044
5456.59605835,0.00183090
5458.52486572,0.00178265
5460.45367310,0.00181688
5462.38248047,0.00184172
5464.31128784,0.00174466
5466.24009521,0.00179787
5468.16890259,0.00182818
5470.09770996,0.00182055
5472.02651733,0.00181773
5473.95532471,0.00174759
5475.88413208,0.00175335
5477.81293945,0.00172726
5479.74174683,0.00174287
5481.67055420,0.00180641
5483.59936157,0.00178003
5485.52816895,0.00178370
5487.45697632,0.00179706
5489.38578369,0.00174356
5491.31459106,0.00170661
5493.24339844,0.00171837
5495.17220581,0.00169753
5497.10101318,0.00172423
5499.02982056,0.00170268
5500.95862793,0.00162650
5502.88743530,0.00170703
5504.81624268,0.00169249
5506.74505005,0.00165935
5508.67385742,0.00175628
5510.60266479,0.00172456
5512.53147217,0.00166648
5514.46027954,0.00169012
5516.38908691,0.00164640
5518.31789429,0.00161370
5520.24670166,0.00169170
5522.17550903,0.00168549
5524.10431641,0.00171529
5526.03312378,0.00170930
5527.96193115,0.00156570
5529.89073853,0.00165808
5531.81954590,0.00169233
5533.74835327,0.00158661
5535.67716064,0.00161474
5537.60596802,0.00164541
5539.53477539,0.00164115
5541.46358276,0.00163719
5543.39239014,0.00165517
5545.32119751,0.00158554
5547.25000488,0.00157906
5549.17881226,0.00161532
5551.10761963,0.00152469
5553.03642700,0.00153054
5554.96523437,0.00159510
5556.89404175,0.00159676
5558.82284912,0.00156393
5560.75165649,0.00160466
5562.68046387,0.00160408
5564.60927124,0.00155680
5566.53807861,0.00161263
5568.46688599,0.00156069
5570.39569336,0.00151039
5572.32450073,0.00156794
5574.25330811,0.00157325
5576.18211548,0.00151375
5578.11092285,0.00149935
5580.03973022,0.00154076
5581.96853760,0.00152930
5583.89734497,0.00150996
5585.82615234,0.00151692
5587.75495972,0.00155348
5589.68376709,0.00153347
5591.61257446,0.00149945
5593.54138184,0.00150373
5595.47018921,0.00150382
5597.39899658,0.00151589
5599.32780395,0.00149255
5601.25661133,0.00150286
5603.18541870,0.00146180
5605.11422607,0.00150405
5607.04303345,0.00156960
5608.97184082,0.00143372
5610.90064819,0.00142927
5612.82945557,0.00144102
5614.75826294,0.00142107
5616.68707031,0.00148356
5618.61587769,0.00144940
5620.54468506,0.00141387
5622.47349243,0.00145209
5624.40229980,0.00145964
5626.33110718,0.00142960
5628.25991455,0.00142140
5630.18872192,0.00137681
5632.11752930,0.00138362
5634.04633667,0.00138365
5635.97514404,0.00138240
5637.90395142,0.00145333
5639.83275879,0.00144414
5641.76156616,0.00145882
5643.69037353,0.00137064
5645.61918091,0.00136609
5647.54798828,0.00144943
5649.47679565,0.00135173
5651.40560303,0.00138929
5653.33441040,0.00134124
5655.26321777,0.00132805
5657.19202515,0.00143164
5659.12083252,0.00132503
5661.04963989,0.00134849
5662.97844727,0.00139589
5664.90725464,0.00129385
5666.83606201,0.00126974
5668.76486938,0.00133052
5670.69367676,0.00132557
5672.62248413,0.00130361
5674.55129150,0.00139007
5676.48009888,0.00138239
5678.40890625,0.00131459
5680.33771362,0.00135056
5682.26652100,0.00135138
5684.19532837,0.00129375
5686.12413574,0.00132491
5688.05294311,0.00134118
5689.98175049,0.00127261
5691.91055786,0.00129915
5693.83936523,0.00130395
5695.76817261,0.00123630
5697.69697998,0.00126956
5699.62578735,0.00128847
5701.55459473,0.00122964
5703.48340210,0.00123987
5705.41220947,0.00122944
5707.34101685,0.00117729
5709.26982422,0.00126438
5711.19863159,0.00132793
5713.12743896,0.00123482
5715.05624634,0.00118443
5716.98505371,0.00129261
5718.91386108,0.00130277
5720.84266846,0.00114156
5722.77147583,0.00116982
5724.70028320,0.00126732
5726.62909058,0.00121968
5728.55789795,0.00119306
5730.48670532,0.00123642
5732.41551270,0.00123905
5734.34432007,0.00119419
5736.27312744,0.00123825
5738.20193481,0.00122553
5740.13074219,0.00113748
5742.05954956,0.00115131
5743.98835693,0.00119853
5745.91716431,0.00123400
5747.84597168,0.00120826
5749.77477905,0.00120285
5751.70358643,0.00120435
5753.63239380,0.00115617
5755.56120117,0.00122471
5757.49000854,0.00123958
5759.41881592,0.00116931
5761.34762329,0.00119874
5763.27643066,0.00117299
5765.20523804,0.00111268
5767.13404541,0.00113048
5769.06285278,0.00112222
5770.99166016,0.00109027
5772.92046753,0.00111714
5774.84927490,0.00116102
5776.77808228,0.00115076
5778.70688965,0.00115668
5780.63569702,0.00113605
5782.56450439,0.00109614
5784.49331177,0.00114964
5786.42211914,0.00109571
5788.35092651,0.00108254
5790.27973389,0.00113442
5792.20854126,0.00102740
5794.13734863,0.00108869
5796.06615601,0.00111026
5797.99496338,0.00102207
5799.92377075,0.00112289
5801.85257812,0.00111669
5803.78138550,0.00105194
5805.71019287,0.00107547
5807.63900024,0.00108183
5809.56780762,0.00105828
5811.49661499,0.00105722
5813.42542236,0.00109210
5815.35422974,0.00109854
5817.28303711,0.00107491
5819.21184448,0.00103826
5821.14065186,0.00104564
5823.06945923,0.00099955
5824.99826660,0.00099419
5826.92707397,0.00105558
5828.85588135,0.00101838
5830.78468872,0.00103903
5832.71349609,0.00105306
5834.64230347,0.00103409
5836.57111084,0.00097655
5838.49991821,0.00098274
5840.42872559,0.00111588
5842.35753296,0.00102039
5844.28634033,0.00090164
5846.21514770,0.00097483
5848.14395508,0.00104687
5850.07276245,0.00099515
5852.00156982,0.00093485
5853.93037720,0.00096337
5855.85918457,0.00096068
5857.78799194,0.00099793
5859.71679932,0.00098235
5861.64560669,0.00092573
5863.57441406,0.00091795
5865.50322144,0.00092790
5867.43202881,0.00096685
5869.36083618,0.00097403
5871.28964355,0.00098406
5873.21845093,0.00092106
5875.14725830,0.00094379
5877.07606567,0.00100547
5879.00487305,0.00097909
5880.93368042,0.00100620
5882.86248779,0.00090623
5884.79129517,0.00087647
5886.72010254,0.00096516
5888.64890991,0.00094175
5890.57771728,0.00093750
5892.50652466,0.00093861
5894.43533203,0.00089442
5896.36413940,0.00090612
5898.29294678,0.00091214
5900.22175415,0.00086858
5902.15056152,0.00089862
5904.07936890,0.00084889
5906.00817627,0.00086285
5907.93698364,0.00095960
5909.86579102,0.00090793
5911.79459839,0.00091315
5913.72340576,0.00086887
5915.65221313,0.00087847
5917.58102051,0.00093387
5919.50982788,0.00085640
5921.43863525,0.00085463
5923.36744263,0.00088517
5925.29625000,0.00091208
5927.22505737,0.00087086
5929.15386475,0.00083794
5931.08267212,0.00080975
5933.01147949,0.00082214
5934.94028686,0.00093144
5936.86909424,0.00085599
5938.79790161,0.00080755
5940.72670898,0.00082890
5942.65551636,0.00083270
5944.58432373,0.00085206
5946.51313110,0.00082037
5948.44193848,0.00085187
5950.37074585,0.00084107
5952.29955322,0.00086292
5954.22836060,0.00088395
5956.15716797,0.00081725
5958.08597534,0.00082703
5960.01478271,0.00081826
5961.94359009,0.00084523
5963.87239746,0.00085087
5965.80120483,0.00079076
5967.73001221,0.00083512
5969.65881958,0.00080095
5971.58762695,0.00077561
5973.51643433,0.00083284
5975.44524170,0.00076654
5977.37404907,0.00079649
5979.30285645,0.00082940
5981.23166382,0.00074845
5983.16047119,0.00075095
5985.08927856,0.00075254
5987.01808594,0.00077865
5988.94689331,0.00079582
5990.87570068,0.00080872
5992.80450806,0.00084166
5994.73331543,0.00081714
5996.66212280,0.00078904
5998.59093018,0.00076556
6000.51973755,0.00076778
