399.26312622,0.00029911
401.19193359,-0.00015064
403.12074097,0.00034257
405.04954834,0.00076956
406.97835571,0.00047819
408.90716309,-0.00012226
410.83597046,-0.00000944
412.76477783,0.00058661
414.69358521,0.00060482
416.62239258,0.00038742
418.55119995,0.00013790
420.48000732,0.00034827
422.40881470,0.00083709
424.33762207,0.00051340
426.26642944,0.00049348
428.19523682,0.00073648
430.12404419,0.00059327
432.05285156,0.00052496
433.98165894,0.00037226
435.91046631,0.00061326
437.83927368,0.00059903
439.76808105,0.00035540
441.69688843,0.00021286
443.62569580,0.00014801
445.55450317,0.00056396
447.48331055,0.00046111
449.41211792,0.00039599
451.34092529,0.00043018
453.26973267,0.00061756
455.19854004,0.00061837
457.12734741,-0.00017501
459.05615479,0.00015264
460.98496216,0.00027190
462.91376953,-0.00014787
464.84257690,-0.00000040
466.77138428,-0.00009790
468.70019165,0.00008696
470.62899902,0.00024657
472.55780640,0.00034040
474.48661377,0.00012819
476.41542114,0.00015883
478.34422852,0.00024553
480.27303589,-0.00040229
482.20184326,0.00027113
484.13065063,0.00072300
486.05945801,-0.00002332
487.98826538,-0.00013136
489.91707275,0.00039313
491.84588013,0.00023973
493.77468750,-0.00011911
495.70349487,0.00005743
497.63230225,0.00026374
499.56110962,0.00038952
501.48991699,0.00009638
503.41872437,0.00045076
505.34753174,0.00017931
507.27633911,-0.00003398
509.20514648,0.00025512
511.13395386,-0.00023445
513.06276123,0.00010657
514.99156860,0.00034463
516.92037598,0.00023226
518.84918335,0.00021722
520.77799072,0.00007098
522.70679810,0.00018242
524.63560547,0.00021399
526.56441284,0.00021505
528.49322021,0.00001039
530.42202759,-0.00006564
532.35083496,0.00014214
534.27964233,0.00019310
536.20844971,0.00008214
538.13725708,0.00002207
540.06606445,-0.00002028
541.99487183,0.00011454
543.92367920,0.00016435
545.85248657,0.00001837
547.78129395,-0.00003128
549.71010132,-0.00030896
551.63890869,-0.00014500
553.56771606,0.00010059
555.49652344,0.00009345
557.42533081,0.00045525
559.35413818,0.00025281
561.28294556,0.00002904
563.21175293,0.00010427
565.14056030,-0.00017601
567.06936768,0.00033402
568.99817505,0.00041790
570.92698242,-0.00017639
572.85578979,0.00023063
574.78459717,0.00025089
576.71340454,0.00019882
578.64221191,0.00047392
580.57101929,-0.00003240
582.49982666,0.00005248
584.42863403,0.00019651
586.35744141,-0.00013885
588.28624878,0.00022501
590.21505615,0.00004108
592.14386353,-0.00011227
594.07267090,-0.00009578
596.00147827,0.00002542
597.93028564,0.00034750
599.85909302,0.00018091
601.78790039,0.00034286
603.71670776,0.00013732
605.64551514,-0.00013414
607.57432251,-0.00008983
609.50312988,0.00009509
611.43193726,0.00034931
613.36074463,0.00034077
615.28955200,0.00033898
617.21835938,0.00017251
619.14716675,0.00032706
621.07597412,-0.00001015
623.00478149,-0.00023777
624.93358887,0.00030235
626.86239624,0.00034295
628.79120361,0.00013632
630.72001099,-0.00003877
632.64881836,-0.00006540
634.57762573,0.00041309
636.50643311,0.00037339
638.43524048,0.00011438
640.36404785,0.00024349
642.29285522,0.00014549
644.22166260,0.00040704
646.15046997,0.00074649
648.07927734,0.00097701
650.00808472,0.00056649
651.93689209,0.00026693
653.86569946,0.00082146
655.79450684,0.00083777
657.72331421,0.00060272
659.65212158,0.00058764
661.58092896,0.00066043
663.50973633,0.00038979
665.43854370,0.00088262
667.36735107,0.00121704
669.29615845,0.00062058
671.22496582,0.00090886
673.15377319,0.00088936
675.08258057,0.00112991
677.01138794,0.00144191
678.94019531,0.00114048
680.86900269,0.00117576
682.79781006,0.00096180
684.72661743,0.00092465
686.65542480,0.00108710
688.58423218,0.00128865
690.51303955,0.00108309
692.44184692,0.00105624
694.37065430,0.00150628
696.29946167,0.00155079
698.22826904,0.00172199
700.15707642,0.00210530
702.08588379,0.00215724
704.01469116,0.00137331
705.94349854,0.00136765
707.87230591,0.00128145
709.80111328,0.00067666
711.72992065,0.00109330
713.65872803,0.00042538
715.58753540,-0.00009902
717.51634277,0.00011405
719.44515015,0.00023432
721.37395752,0.00035336
723.30276489,-0.00007673
725.23157227,0.00012136
727.16037964,-0.00000102
729.08918701,0.00006563
731.01799438,0.00023215
732.94680176,0.00022599
734.87560913,0.00014226
736.80441650,-0.00017852
738.73322388,0.00015947
740.66203125,0.00025860
742.59083862,-0.00014721
744.51964600,0.00024416
746.44845337,0.00011894
748.37726074,-0.00005861
750.30606812,0.00027657
752.23487549,0.00017395
754.16368286,0.00042982
756.09249023,0.00018016
758.02129761,0.00033632
759.95010498,0.00037829
761.87891235,-0.00017536
763.80771973,0.00008003
765.73652710,0.00015031
767.66533447,0.00015605
769.59414185,0.00013030
771.52294922,0.00009561
773.45175659,0.00008570
775.38056396,0.00005144
777.30937134,0.00031524
779.23817871,0.00036539
781.16698608,0.00028749
783.09579346,0.00022367
785.02460083,0.00025824
786.95340820,0.00034666
788.88221558,0.00023157
790.81102295,-0.00000865
792.73983032,0.00010360
794.66863770,0.00023362
796.59744507,0.00013338
798.52625244,0.00028961
800.45505981,0.00006072
802.38386719,0.00009027
804.31267456,0.00056008
806.24148193,0.00030447
808.17028931,0.00018098
810.09909668,0.00019076
812.02790405,-0.00003960
813.95671143,0.00039198
815.88551880,0.00045789
817.81432617,0.00019818
819.74313354,0.00030480
821.67194092,0.00009763
823.60074829,0.00001221
825.52955566,0.00026727
827.45836304,0.00036229
829.38717041,0.00039052
831.31597778,0.00058935
833.24478516,0.00045998
835.17359253,0.00032550
837.10239990,0.00041273
839.03120728,0.00030188
840.96001465,0.00056956
842.88882202,0.00056060
844.81762939,0.00039174
846.74643677,0.00067318
848.67524414,0.00038099
850.60405151,0.00015349
852.53285889,0.00052101
854.46166626,0.00043648
856.39047363,0.00028689
858.31928101,0.00026794
860.24808838,0.00007366
862.17689575,0.00018519
864.10570313,0.00021140
866.03451050,0.00034628
867.96331787,0.00034091
869.89212524,0.00010837
871.82093262,0.00036920
873.74973999,0.00042293
875.67854736,0.00037225
877.60735474,0.00026764
879.53616211,0.00029720
881.46496948,0.00058817
883.39377686,0.00045206
885.32258423,0.00017908
887.25139160,-0.00001654
889.18019897,0.00008678
891.10900635,0.00003959
893.03781372,-0.00008712
894.96662109,0.00021344
896.89542847,0.00025414
898.82423584,0.00037009
900.75304321,0.00067667
902.68185059,0.00056577
904.61065796,0.00027374
906.53946533,0.00019328
908.46827271,0.00029606
910.39708008,0.00031278
912.32588745,0.00029372
914.25469482,0.00040770
916.18350220,0.00047211
918.11230957,0.00022462
920.04111694,0.00024556
921.96992432,0.00050423
923.89873169,0.00060413
925.82753906,0.00058256
927.75634644,0.00046103
929.68515381,0.00055989
931.61396118,0.00048084
933.54276855,0.00059852
935.47157593,0.00071681
937.40038330,0.00058142
939.32919067,0.00078227
941.25799805,0.00071097
943.18680542,0.00066853
945.11561279,0.00074683
947.04442017,0.00080109
948.97322754,0.00094248
950.90203491,0.00081100
952.83084229,0.00076800
954.75964966,0.00088436
956.68845703,0.00095718
958.61726440,0.00080052
960.54607178,0.00074111
962.47487915,0.00082281
964.40368652,0.00059439
966.33249390,0.00074915
968.26130127,0.00105432
970.19010864,0.00091662
972.11891602,0.00077423
974.04772339,0.00076382
975.97653076,0.00095152
977.90533813,0.00103380
979.83414551,0.00107737
981.76295288,0.00130580
983.69176025,0.00133815
985.62056763,0.00151304
987.54937500,0.00170470
989.47818237,0.00183098
991.40698975,0.00226110
993.33579712,0.00235032
995.26460449,0.00235041
997.19341187,0.00270839
999.12221924,0.00289324
1001.05102661,0.00302285
1002.97983398,0.00338604
1004.90864136,0.00356131
1006.83744873,0.00377425
1008.76625610,0.00445307
1010.69506348,0.00449138
1012.62387085,0.00424939
1014.55267822,0.00471860
1016.48148560,0.00486793
1018.41029297,0.00487313
1020.33910034,0.00529659
1022.26790771,0.00557866
1024.19671509,0.00577676
1026.12552246,0.00604846
1028.05432983,0.00622627
1029.98313721,0.00652753
1031.91194458,0.00686175
1033.84075195,0.00678849
1035.76955933,0.00678991
1037.69836670,0.00701088
1039.62717407,0.00696740
1041.55598145,0.00695120
1043.48478882,0.00710514
1045.41359619,0.00706418
1047.34240356,0.00686507
1049.27121094,0.00672678
1051.20001831,0.00665362
1053.12882568,0.00664789
1055.05763306,0.00642858
1056.98644043,0.00614055
1058.91524780,0.00604122
1060.84405518,0.00573104
1062.77286255,0.00565352
1064.70166992,0.00562826
1066.63047729,0.00530345
1068.55928467,0.00527069
1070.48809204,0.00502325
1072.41689941,0.00482636
1074.34570679,0.00468573
1076.27451416,0.00428780
1078.20332153,0.00431301
1080.13212891,0.00405737
1082.06093628,0.00392139
1083.98974365,0.00392570
1085.91855103,0.00337438
1087.84735840,0.00327372
1089.77616577,0.00327915
1091.70497314,0.00316794
1093.63378052,0.00299382
1095.56258789,0.00270067
1097.49139526,0.00280953
1099.42020264,0.00296467
1101.34901001,0.00267681
1103.27781738,0.00230501
1105.20662476,0.00250769
1107.13543213,0.00240189
1109.06423950,0.00229504
1110.99304687,0.00247918
1112.92185425,0.00228097
1114.85066162,0.00258935
1116.77946899,0.00240505
1118.70827637,0.00218176
1120.63708374,0.00265389
1122.56589111,0.00257906
1124.49469849,0.00262548
1126.42350586,0.00255137
1128.35231323,0.00248438
1130.28112061,0.00273581
1132.20992798,0.00275131
1134.13873535,0.00295067
1136.06754272,0.00301920
1137.99635010,0.00302481
1139.92515747,0.00342767
1141.85396484,0.00358605
1143.78277222,0.00355372
1145.71157959,0.00392571
1147.64038696,0.00414795
1149.56919434,0.00434047
1151.49800171,0.00463877
1153.42680908,0.00472327
1155.35561646,0.00495707
1157.28442383,0.00507815
1159.21323120,0.00533818
1161.14203857,0.00558549
1163.07084595,0.00579099
1164.99965332,0.00625196
1166.92846069,0.00625238
1168.85726807,0.00643919
1170.78607544,0.00676597
1172.71488281,0.00687649
1174.64369019,0.00740626
1176.57249756,0.00774485
1178.50130493,0.00780195
1180.43011230,0.00801511
1182.35891968,0.00834035
1184.28772705,0.00883727
1186.21653442,0.00908713
1188.14534180,0.00953758
1190.07414917,0.01038335
1192.00295654,0.01062443
1193.93176392,0.01111338
1195.86057129,0.01180689
1197.78937866,0.01211047
1199.71818604,0.01276656
1201.64699341,0.01319042
1203.57580078,0.01365399
1205.50460815,0.01441198
1207.43341553,0.01489448
1209.36222290,0.01537514
1211.29103027,0.01599963
1213.21983765,0.01646641
1215.14864502,0.01668752
1217.07745239,0.01711550
1219.00625977,0.01730958
1220.93506714,0.01752741
1222.86387451,0.01801668
1224.79268188,0.01812767
1226.72148926,0.01827441
1228.65029663,0.01836923
1230.57910400,0.01832990
1232.50791138,0.01830621
1234.43671875,0.01836293
1236.36552612,0.01851844
1238.29433350,0.01847267
1240.22314087,0.01850472
1242.15194824,0.01852506
1244.08075562,0.01817719
1246.00956299,0.01805989
1247.93837036,0.01823129
1249.86717773,0.01806835
1251.79598511,0.01793388
1253.72479248,0.01774689
1255.65359985,0.01766722
1257.58240723,0.01752326
1259.51121460,0.01713071
1261.44002197,0.01717840
1263.36882935,0.01670748
1265.29763672,0.01652927
1267.22644409,0.01658160
1269.15525146,0.01607710
1271.08405884,0.01596330
1273.01286621,0.01553850
1274.94167358,0.01546938
1276.87048096,0.01525841
1278.79928833,0.01463335
1280.72809570,0.01451712
1282.65690308,0.01423752
1284.58571045,0.01405947
1286.51451782,0.01380720
1288.44332520,0.01373717
1290.37213257,0.01358739
1292.30093994,0.01340710
1294.22974731,0.01332822
1296.15855469,0.01302837
1298.08736206,0.01331583
1300.01616943,0.01332845
1301.94497681,0.01339507
1303.87378418,0.01353846
1305.80259155,0.01350307
1307.73139893,0.01388804
1309.66020630,0.01397616
1311.58901367,0.01424089
1313.51782104,0.01449906
1315.44662842,0.01480400
1317.37543579,0.01526750
1319.30424316,0.01561655
1321.23305054,0.01632126
1323.16185791,0.01678200
1325.09066528,0.01710416
1327.01947266,0.01762770
1328.94828003,0.01811604
1330.87708740,0.01852606
1332.80589478,0.01903569
1334.73470215,0.01925791
1336.66350952,0.01923352
1338.59231689,0.01948234
1340.52112427,0.01980509
1342.44993164,0.02036442
1344.37873901,0.02050055
1346.30754639,0.02063927
1348.23635376,0.02077520
1350.16516113,0.02040040
1352.09396851,0.02054487
1354.02277588,0.02027236
1355.95158325,0.02000443
1357.88039062,0.02006555
1359.80919800,0.01961247
1361.73800537,0.01903962
1363.66681274,0.01878778
1365.59562012,0.01934295
1367.52442749,0.01906206
1369.45323486,0.01889578
1371.38204224,0.01923954
1373.31084961,0.01824802
1375.23965698,0.01835508
1377.16846436,0.01899541
1379.09727173,0.01876449
1381.02607910,0.01870414
1382.95488647,0.01884793
1384.88369385,0.01906271
1386.81250122,0.01818630
1388.74130859,0.01826259
1390.67011597,0.01994596
1392.59892334,0.01933965
1394.52773071,0.01825989
1396.45653809,0.01911871
1398.38534546,0.01885059
1400.31415283,0.01911238
1402.24296021,0.02027539
1404.17176758,0.01924110
1406.10057495,0.01960126
1408.02938232,0.02019597
1409.95818970,0.01971947
1411.88699707,0.01985006
1413.81580444,0.01914709
1415.74461182,0.01953274
1417.67341919,0.01762600
1419.60222656,0.01605061
1421.53103394,0.01834286
1423.45984131,0.01772668
1425.38864868,0.01719185
1427.31745605,0.01760033
1429.24626343,0.01620800
1431.17507080,0.01570630
1433.10387817,0.01613522
1435.03268555,0.01460029
1436.96149292,0.01267999
1438.89030029,0.01451016
1440.81910767,0.01449761
1442.74791504,0.01350771
1444.67672241,0.01431863
1446.60552979,0.01299829
1448.53433716,0.01324684
1450.46314453,0.01393543
1452.39195190,0.01420529
1454.32075928,0.01451769
1456.24956665,0.01209486
1458.17837402,0.01280529
1460.10718140,0.01665419
1462.03598877,0.01777288
1463.96479614,0.01766770
1465.89360352,0.01843920
1467.82241089,0.02109916
1469.75121826,0.02233015
1471.68002563,0.02012821
1473.60883301,0.02122040
1475.53764038,0.02402995
1477.46644775,0.02591369
1479.39525513,0.02836872
1481.32406250,0.02889881
1483.25286987,0.03043732
1485.18167725,0.03146513
1487.11048462,0.03108586
1489.03929199,0.03076893
1490.96809937,0.03114455
1492.89690674,0.03619387
1494.82571411,0.03544752
1496.75452148,0.03209203
1498.68332886,0.03610104
1500.61213623,0.03709799
1502.54094360,0.03973674
1504.46975098,0.03754820
1506.39855835,0.02776475
1508.32736572,0.03384346
1510.25617310,0.03933577
1512.18498047,0.03821848
1514.11378784,0.04123579
1516.04259521,0.03734446
1517.97140259,0.03897839
1519.90020996,0.03758091
1521.82901733,0.03301686
1523.75782471,0.03990970
1525.68663208,0.03911672
1527.61543945,0.03922389
1529.54424683,0.04319645
1531.47305420,0.04164959
1533.40186157,0.03835232
1535.33066895,0.04054193
1537.25947632,0.04318878
1539.18828369,0.03142873
1541.11709106,0.03304568
1543.04589844,0.03937343
1544.97470581,0.03784011
1546.90351318,0.04432437
1548.83232056,0.04141204
1550.76112793,0.04253718
1552.68993530,0.04239447
1554.61874268,0.03891280
1556.54755005,0.04153294
1558.47635742,0.02984894
1560.40516479,0.03202374
1562.33397217,0.04490273
1564.26277954,0.04264488
1566.19158691,0.04374371
1568.12039429,0.04337823
1570.04920166,0.03861530
1571.97800903,0.04436519
1573.90681641,0.04488162
1575.83562378,0.03596044
1577.76443115,0.04050006
1579.69323853,0.04542539
1581.62204590,0.04372807
1583.55085327,0.04488725
1585.47966064,0.04415695
1587.40846802,0.04450218
1589.33727539,0.04427055
1591.26608276,0.04436481
1593.19489014,0.04432645
1595.12369751,0.04395803
1597.05250488,0.04459644
1598.98131226,0.04426101
1600.91011963,0.04453620
1602.83892700,0.04374121
1604.76773437,0.04449312
1606.69654175,0.04384870
1608.62534912,0.04390933
1610.55415649,0.04383243
1612.48296387,0.04409381
1614.41177124,0.04487901
1616.34057861,0.03688939
1618.26938599,0.03985906
1620.19819336,0.04630793
1622.12700073,0.04143590
1624.05580811,0.04153565
1625.98461548,0.04343873
1627.91342285,0.04342282
1629.84223022,0.04313013
1631.77103760,0.04591879
1633.69984497,0.04249156
1635.62865234,0.03542031
1637.55745972,0.04117564
1639.48626709,0.04519567
1641.41507446,0.04395236
1643.34388184,0.04508609
1645.27268921,0.04098465
1647.20149658,0.03625379
1649.13030396,0.04473377
1651.05911133,0.04238167
1652.98791870,0.02790647
1654.91672607,0.03741539
1656.84553345,0.04636683
1658.77434082,0.04453149
1660.70314819,0.04568814
1662.63195557,0.04167065
1664.56076294,0.04402292
1666.48957031,0.04714072
1668.41837769,0.04143514
1670.34718506,0.04033897
1672.27599243,0.04558271
1674.20479980,0.04225537
1676.13360718,0.04030497
1678.06241455,0.04621286
1679.99122192,0.04478929
1681.92002930,0.04420073
1683.84883667,0.03632473
1685.77764404,0.03605841
1687.70645142,0.04891960
1689.63525879,0.04283338
1691.56406616,0.04666755
1693.49287354,0.04758855
1695.42168091,0.03519712
1697.35048828,0.04303533
1699.27929565,0.03815017
1701.20810303,0.03434184
1703.13691040,0.04643616
1705.06571777,0.04268815
1706.99452515,0.04309839
1708.92333252,0.04706850
1710.85213989,0.04501256
1712.78094727,0.04574208
1714.70975464,0.04274910
1716.63856201,0.03843655
1718.56736938,0.03773538
1720.49617676,0.04456425
1722.42498413,0.04627106
1724.35379150,0.04305687
1726.28259888,0.04691091
1728.21140625,0.04347832
1730.14021362,0.04377966
1732.06902100,0.04270365
1733.99782837,0.03290746
1735.92663574,0.04060987
1737.85544312,0.04477533
1739.78425049,0.04013825
1741.71305786,0.04349858
1743.64186523,0.04399372
1745.57067261,0.04414236
1747.49947998,0.04461830
1749.42828735,0.04283045
1751.35709473,0.04088639
1753.28590210,0.04516082
1755.21470947,0.04728397
1757.14351685,0.04326829
1759.07232422,0.04758079
1761.00113159,0.04477870
1762.92993896,0.04322909
1764.85874634,0.04931831
1766.78755371,0.04444119
1768.71636108,0.04497063
1770.64516846,0.04492664
1772.57397583,0.04045274
1774.50278320,0.04495006
1776.43159058,0.04736872
1778.36039795,0.04668877
1780.28920532,0.04633526
1782.21801270,0.04666879
1784.14682007,0.04657100
1786.07562744,0.04567939
1788.00443481,0.04790583
1789.93324219,0.04689125
1791.86204956,0.04262213
1793.79085693,0.04434568
1795.71966431,0.04747937
1797.64847168,0.04695498
1799.57727905,0.04638611
1801.50608643,0.04564553
1803.43489380,0.04714004
1805.36370117,0.04812267
1807.29250854,0.04747594
1809.22131592,0.04763418
1811.15012329,0.04639530
1813.07893066,0.04786451
1815.00773804,0.04809905
1816.93654541,0.04765825
1818.86535278,0.04807112
1820.79416016,0.04780822
1822.72296753,0.04855442
1824.65177490,0.04553974
1826.58058228,0.04708603
1828.50938965,0.04715677
1830.43819702,0.04443114
1832.36700439,0.04823778
1834.29581177,0.04791641
1836.22461914,0.04790698
1838.15342651,0.04780272
1840.08223389,0.04816121
1842.01104126,0.04823967
1843.93984863,0.04307172
1845.86865601,0.04584615
1847.79746338,0.04831738
1849.72627075,0.04728066
1851.65507812,0.04853503
1853.58388550,0.04772808
1855.51269287,0.04819103
1857.44150024,0.04795585
1859.37030762,0.04777890
1861.29911499,0.04797964
1863.22792236,0.04745233
1865.15672974,0.04793504
1867.08553711,0.04650486
1869.01434448,0.04471590
1870.94315186,0.04630796
1872.87195923,0.04812615
1874.80076660,0.04742084
1876.72957397,0.04771862
1878.65838135,0.04759227
1880.58718872,0.04732485
1882.51599609,0.04784454
1884.44480347,0.04709233
1886.37361084,0.04784727
1888.30241821,0.04691764
1890.23122559,0.04595324
1892.16003296,0.04755259
1894.08884033,0.04701035
1896.01764771,0.04690596
1897.94645508,0.04741564
1899.87526245,0.04724629
1901.80406982,0.04732138
1903.73287720,0.04703266
1905.66168457,0.04721506
1907.59049194,0.04692813
1909.51929932,0.04680087
1911.44810669,0.04682686
1913.37691406,0.04700219
1915.30572144,0.04748496
1917.23452881,0.04533537
1919.16333618,0.04550643
1921.09214355,0.04709438
1923.02095093,0.04567610
1924.94975830,0.04671578
1926.87856567,0.04714122
1928.80737305,0.04662461
1930.73618042,0.04720523
1932.66498779,0.04666551
1934.59379517,0.04715540
1936.52260254,0.04676596
1938.45140991,0.04699685
1940.38021729,0.04697610
1942.30902466,0.04552446
1944.23783203,0.04647027
1946.16663940,0.04682647
1948.09544678,0.04678880
1950.02425415,0.04701516
1951.95306152,0.04682276
1953.88186890,0.04695613
1955.81067627,0.04669556
1957.73948364,0.04688895
1959.66829102,0.04697222
1961.59709839,0.04694714
1963.52590576,0.04703876
1965.45471313,0.04668726
1967.38352051,0.04629137
1969.31232788,0.04659352
1971.24113525,0.04691704
1973.16994263,0.04674536
1975.09875000,0.04694194
1977.02755737,0.04683132
1978.95636475,0.04678742
1980.88517212,0.04671125
1982.81397949,0.04678201
1984.74278687,0.04686935
1986.67159424,0.04638333
1988.60040161,0.04667148
1990.52920898,0.04618255
1992.45801636,0.04568877
1994.38682373,0.04639244
1996.31563110,0.04641692
1998.24443848,0.04636620
2000.17324585,0.04642997
2002.10205322,0.04632086
2004.03086060,0.04634983
2005.95966797,0.04628176
2007.88847534,0.04609374
2009.81728271,0.04602244
2011.74609009,0.04609356
2013.67489746,0.04614399
2015.60370483,0.04573831
2017.53251221,0.04546165
2019.46131958,0.04580715
2021.39012695,0.04570540
2023.31893433,0.04555342
2025.24774170,0.04553706
2027.17654907,0.04547191
2029.10535645,0.04557396
2031.03416382,0.04551222
2032.96297119,0.04546265
2034.89177856,0.04529655
2036.82058594,0.04516919
2038.74939331,0.04513086
2040.67820068,0.04501642
2042.60700806,0.04485077
2044.53581543,0.04485437
2046.46462280,0.04482140
2048.39343018,0.04464233
2050.32223755,0.04481171
2052.25104492,0.04466129
2054.17985229,0.04454343
2056.10865967,0.04463391
2058.03746704,0.04450035
2059.96627441,0.04439958
2061.89508179,0.04425585
2063.82388916,0.04413195
2065.75269653,0.04394876
2067.68150391,0.04416091
2069.61031128,0.04425213
2071.53911865,0.04407483
2073.46792603,0.04401888
2075.39673340,0.04388206
2077.32554077,0.04398640
2079.25434814,0.04395898
2081.18315552,0.04399752
2083.11196289,0.04386696
2085.04077026,0.04368327
2086.96957764,0.04376599
2088.89838501,0.04366244
2090.82719238,0.04366892
2092.75599976,0.04352192
2094.68480713,0.04341616
2096.61361450,0.04344865
2098.54242187,0.04346430
2100.47122925,0.04332791
2102.40003662,0.04330730
2104.32884399,0.04340937
2106.25765137,0.04311574
2108.18645874,0.04316990
2110.11526611,0.04313289
2112.04407349,0.04302722
2113.97288086,0.04303819
2115.90168823,0.04300087
2117.83049561,0.04308730
2119.75930298,0.04286110
2121.68811035,0.04296483
2123.61691772,0.04287260
2125.54572510,0.04271160
2127.47453247,0.04281113
2129.40333984,0.04262470
2131.33214722,0.04265930
2133.26095459,0.04266382
2135.18976196,0.04280948
2137.11856934,0.04277898
2139.04737671,0.04255862
2140.97618408,0.04263061
2142.90499146,0.04251087
2144.83379883,0.04248580
2146.76260620,0.04257197
2148.69141357,0.04242080
2150.62022095,0.04237989
2152.54902832,0.04252049
2154.47783569,0.04236773
2156.40664307,0.04235875
2158.33545044,0.04240993
2160.26425781,0.04226070
2162.19306519,0.04229269
2164.12187256,0.04227242
2166.05067993,0.04237623
2167.97948730,0.04225676
2169.90829468,0.04216120
2171.83710205,0.04234151
2173.76590942,0.04222280
2175.69471680,0.04215503
2177.62352417,0.04212449
2179.55233154,0.04205655
2181.48113892,0.04204296
2183.40994629,0.04209438
2185.33875366,0.04204777
2187.26756104,0.04209493
2189.19636841,0.04211522
2191.12517578,0.04188933
2193.05398315,0.04195895
2194.98279053,0.04189081
2196.91159790,0.04186131
2198.84040527,0.04190752
2200.76921265,0.04175641
2202.69802002,0.04174921
2204.62682739,0.04170550
2206.55563477,0.04170536
2208.48444214,0.04164309
2210.41324951,0.04169590
2212.34205688,0.04174135
2214.27086426,0.04162242
2216.19967163,0.04153419
2218.12847900,0.04152256
2220.05728638,0.04168242
2221.98609375,0.04157849
2223.91490112,0.04155932
2225.84370850,0.04143807
2227.77251587,0.04120637
2229.70132324,0.04141058
2231.63013062,0.04141089
2233.55893799,0.04134215
2235.48774536,0.04130228
2237.41655273,0.04124676
2239.34536011,0.04121699
2241.27416748,0.04106013
2243.20297485,0.04113002
2245.13178223,0.04112935
2247.06058960,0.04091592
2248.98939697,0.04094564
2250.91820435,0.04101500
2252.84701172,0.04090188
2254.77581909,0.04083716
2256.70462646,0.04086024
2258.63343384,0.04097799
2260.56224121,0.04098609
2262.49104858,0.04079275
2264.41985596,0.04067493
2266.34866333,0.04066601
2268.27747070,0.04066648
2270.20627808,0.04060463
2272.13508545,0.04067440
2274.06389282,0.04066270
2275.99270020,0.04059947
2277.92150757,0.04069635
2279.85031494,0.04055853
2281.77912231,0.04051262
2283.70792969,0.04056578
2285.63673706,0.04048219
2287.56554443,0.04043215
2289.49435181,0.04032852
2291.42315918,0.04032397
2293.35196655,0.04028022
2295.28077393,0.04009575
2297.20958130,0.04000510
2299.13838867,0.03989676
2301.06719604,0.03974643
2302.99600342,0.03962019
2304.92481079,0.03943278
2306.85361816,0.03920661
2308.78242554,0.03903531
2310.71123291,0.03878968
2312.64004028,0.03830160
2314.56884766,0.03801034
2316.49765503,0.03767506
2318.42646240,0.03697328
2320.35526978,0.03661498
2322.28407715,0.03611356
2324.21288452,0.03558349
2326.14169189,0.03544028
2328.07049927,0.03498824
2329.99930664,0.03458974
2331.92811401,0.03444251
2333.85692139,0.03434498
2335.78572876,0.03416014
2337.71453613,0.03410897
2339.64334351,0.03413557
2341.57215088,0.03421845
2343.50095825,0.03474325
2345.42976562,0.03531571
2347.35857300,0.03673397
2349.28738037,0.03789001
2351.21618774,0.03677838
2353.14499512,0.03488295
2355.07380249,0.03359353
2357.00260986,0.03281184
2358.93141724,0.03208463
2360.86022461,0.03172791
2362.78903198,0.03177029
2364.71783936,0.03193706
2366.64664673,0.03239810
2368.57545410,0.03300054
2370.50426147,0.03386204
2372.43306885,0.03477510
2374.36187622,0.03568434
2376.29068359,0.03667490
2378.21949097,0.03761687
2380.14829834,0.03821966
2382.07710571,0.03857446
2384.00591309,0.03884214
2385.93472046,0.03882782
2387.86352783,0.03897101
2389.79233521,0.03897914
2391.72114258,0.03893206
2393.64994995,0.03900856
2395.57875732,0.03898662
2397.50756470,0.03892299
2399.43637207,0.03876351
2401.36517944,0.03887578
2403.29398682,0.03883671
2405.22279419,0.03888577
2407.15160156,0.03883888
2409.08040894,0.03861176
2411.00921631,0.03875001
2412.93802368,0.03858976
2414.86683105,0.03861929
2416.79563843,0.03859054
2418.72444580,0.03843828
2420.65325317,0.03845945
2422.58206055,0.03847417
2424.51086792,0.03857009
2426.43967529,0.03833165
2428.36848267,0.03844092
2430.29729004,0.03843889
2432.22609741,0.03830457
2434.15490479,0.03841601
2436.08371216,0.03825832
2438.01251953,0.03825099
2439.94132690,0.03821726
2441.87013428,0.03825690
2443.79894165,0.03811315
2445.72774902,0.03803488
2447.65655640,0.03812513
2449.58536377,0.03803249
2451.51417114,0.03818423
2453.44297852,0.03807931
2455.37178589,0.03798642
2457.30059326,0.03793046
2459.22940063,0.03792594
2461.15820801,0.03788996
2463.08701538,0.03773673
2465.01582275,0.03802032
2466.94463013,0.03784111
2468.87343750,0.03768842
2470.80224487,0.03784257
2472.73105225,0.03780387
2474.65985962,0.03783993
2476.58866699,0.03766198
2478.51747437,0.03769623
2480.44628174,0.03774175
2482.37508911,0.03764805
2484.30389648,0.03771091
2486.23270386,0.03752668
2488.16151123,0.03744821
2490.09031860,0.03753024
2492.01912598,0.03740995
2493.94793335,0.03748992
2495.87674072,0.03746604
2497.80554810,0.03722506
2499.73435547,0.03738058
2501.66316284,0.03735334
2503.59197021,0.03726342
2505.52077759,0.03731006
2507.44958496,0.03716122
2509.37839233,0.03724775
2511.30719971,0.03722361
2513.23600708,0.03716388
2515.16481445,0.03716289
2517.09362183,0.03699963
2519.02242920,0.03705614
2520.95123657,0.03708164
2522.88004395,0.03700116
2524.80885132,0.03693876
2526.73765869,0.03684505
2528.66646606,0.03685129
2530.59527344,0.03686742
2532.52408081,0.03687197
2534.45288818,0.03687266
2536.38169556,0.03674259
2538.31050293,0.03674771
2540.23931030,0.03679425
2542.16811768,0.03666873
2544.09692505,0.03672864
2546.02573242,0.03670728
2547.95453979,0.03657272
2549.88334717,0.03652732
2551.81215454,0.03649596
2553.74096191,0.03654981
2555.66976929,0.03648981
2557.59857666,0.03652969
2559.52738403,0.03652599
2561.45619141,0.03633064
2563.38499878,0.03637823
2565.31380615,0.03639145
2567.24261353,0.03626489
2569.17142090,0.03620947
2571.10022827,0.03621794
2573.02903564,0.03631209
2574.95784302,0.03628848
2576.88665039,0.03620495
2578.81545776,0.03618898
2580.74426514,0.03606238
2582.67307251,0.03609879
2584.60187988,0.03619934
2586.53068726,0.03605599
2588.45949463,0.03599630
2590.38830200,0.03599554
2592.31710937,0.03592411
2594.24591675,0.03591648
2596.17472412,0.03596048
2598.10353149,0.03587987
2600.03233887,0.03589714
2601.96114624,0.03589402
2603.88995361,0.03569413
2605.81876099,0.03579531
2607.74756836,0.03576599
2609.67637573,0.03562680
2611.60518311,0.03563822
2613.53399048,0.03552675
2615.46279785,0.03557565
2617.39160522,0.03557576
2619.32041260,0.03550467
2621.24921997,0.03549676
2623.17802734,0.03545807
2625.10683472,0.03544900
2627.03564209,0.03539076
2628.96444946,0.03529532
2630.89325684,0.03538708
2632.82206421,0.03540136
2634.75087158,0.03517180
2636.67967895,0.03525922
2638.60848633,0.03517071
2640.53729370,0.03505931
2642.46610107,0.03518807
2644.39490845,0.03510368
2646.32371582,0.03520600
2648.25252319,0.03505986
2650.18133057,0.03500990
2652.11013794,0.03516147
2654.03894531,0.03498013
2655.96775269,0.03487476
2657.89656006,0.03484001
2659.82536743,0.03490031
2661.75417480,0.03476091
2663.68298218,0.03472278
2665.61178955,0.03482080
2667.54059692,0.03475276
2669.46940430,0.03478695
2671.39821167,0.03472421
2673.32701904,0.03462918
2675.25582642,0.03457705
2677.18463379,0.03470905
2679.11344116,0.03462222
2681.04224854,0.03446694
2682.97105591,0.03447047
2684.89986328,0.03435047
2686.82867065,0.03443702
2688.75747803,0.03430075
2690.68628540,0.03435512
2692.61509277,0.03443921
2694.54390015,0.03426091
2696.47270752,0.03430872
2698.40151489,0.03418870
2700.33032227,0.03421453
2702.25912964,0.03415397
2704.18793701,0.03407349
2706.11674438,0.03405878
2708.04555176,0.03399094
2709.97435913,0.03413228
2711.90316650,0.03396314
2713.83197388,0.03387833
2715.76078125,0.03394037
2717.68958862,0.03387468
2719.61839600,0.03381770
2721.54720337,0.03381656
2723.47601074,0.03378826
2725.40481812,0.03362749
2727.33362549,0.03366632
2729.26243286,0.03368311
2731.19124023,0.03372798
2733.12004761,0.03370230
2735.04885498,0.03353600
2736.97766235,0.03355899
2738.90646973,0.03357556
2740.83527710,0.03351138
2742.76408447,0.03340195
2744.69289185,0.03342983
2746.62169922,0.03339429
2748.55050659,0.03331248
2750.47931396,0.03319924
2752.40812134,0.03314185
2754.33692871,0.03329590
2756.26573608,0.03322592
2758.19454346,0.03317358
2760.12335083,0.03308843
2762.05215820,0.03308291
2763.98096558,0.03302404
2765.90977295,0.03287785
2767.83858032,0.03306682
2769.76738770,0.03299738
2771.69619507,0.03292901
2773.62500244,0.03288073
2775.55380981,0.03285855
2777.48261719,0.03282787
2779.41142456,0.03263446
2781.34023193,0.03273604
2783.26903931,0.03252473
2785.19784668,0.03245034
2787.12665405,0.03258173
2789.05546143,0.03245213
2790.98426880,0.03247977
2792.91307617,0.03242041
2794.84188354,0.03243236
2796.77069092,0.03239205
2798.69949829,0.03229052
2800.62830566,0.03228118
2802.55711304,0.03222170
2804.48592041,0.03222140
2806.41472778,0.03211767
2808.34353516,0.03204417
2810.27234253,0.03204890
2812.20114990,0.03198747
2814.12995728,0.03189329
2816.05876465,0.03190008
2817.98757202,0.03187898
2819.91637939,0.03179910
2821.84518677,0.03179170
2823.77399414,0.03168905
2825.70280151,0.03171727
2827.63160889,0.03171302
2829.56041626,0.03160663
2831.48922363,0.03157590
2833.41803101,0.03145179
2835.34683838,0.03135865
2837.27564575,0.03127884
2839.20445312,0.03136149
2841.13326050,0.03136166
2843.06206787,0.03110505
2844.99087524,0.03098352
2846.91968262,0.03082979
2848.84848999,0.03074869
2850.77729736,0.03079781
2852.70610474,0.03071542
2854.63491211,0.03060338
2856.56371948,0.03058638
2858.49252686,0.03057852
2860.42133423,0.03053016
2862.35014160,0.03058382
2864.27894897,0.03049576
2866.20775635,0.03034278
2868.13656372,0.03042815
2870.06537109,0.03037890
2871.99417847,0.03027709
2873.92298584,0.03026100
2875.85179321,0.03026279
2877.78060059,0.03029220
2879.70940796,0.03013994
2881.63821533,0.03017120
2883.56702270,0.03022079
2885.49583008,0.03009454
2887.42463745,0.03019136
2889.35344482,0.03009793
2891.28225220,0.02996809
2893.21105957,0.02992249
2895.13986694,0.02978701
2897.06867432,0.02986494
2898.99748169,0.02981714
2900.92628906,0.02965226
2902.85509644,0.02959410
2904.78390381,0.02960521
2906.71271118,0.02958188
2908.64151855,0.02942392
2910.57032593,0.02933287
2912.49913330,0.02918693
2914.42794067,0.02915179
2916.35674805,0.02914599
2918.28555542,0.02896435
2920.21436279,0.02893470
2922.14317017,0.02887375
2924.07197754,0.02883845
2926.00078491,0.02879371
2927.92959229,0.02870420
2929.85839966,0.02874723
2931.78720703,0.02868264
2933.71601440,0.02881415
2935.64482178,0.02886730
2937.57362915,0.02870556
2939.50243652,0.02884755
2941.43124390,0.02881487
2943.36005127,0.02872527
2945.28885864,0.02875578
2947.21766602,0.02865214
2949.14647339,0.02865562
2951.07528076,0.02863189
2953.00408813,0.02860086
2954.93289551,0.02854541
2956.86170288,0.02841930
2958.79051025,0.02838532
2960.71931763,0.02827108
2962.64812500,0.02819812
2964.57693237,0.02815057
2966.50573975,0.02808461
2968.43454712,0.02820700
2970.36335449,0.02823308
2972.29216187,0.02821098
2974.22096924,0.02832941
2976.14977661,0.02831277
2978.07858398,0.02829574
2980.00739136,0.02831035
2981.93619873,0.02825025
2983.86500610,0.02826567
2985.79381348,0.02825929
2987.72262085,0.02826561
2989.65142822,0.02822095
2991.58023560,0.02816784
2993.50904297,0.02818068
2995.43785034,0.02811804
2997.36665771,0.02816292
2999.29546509,0.02809682
3001.22427246,0.02800410
3003.15307983,0.02805422
3005.08188721,0.02793651
3007.01069458,0.02784833
3008.93950195,0.02780234
3010.86830933,0.02776030
3012.79711670,0.02776035
3014.72592407,0.02770721
3016.65473145,0.02764745
3018.58353882,0.02757831
3020.51234619,0.02759585
3022.44115356,0.02766918
3024.36996094,0.02760713
3026.29876831,0.02750050
3028.22757568,0.02744501
3030.15638306,0.02730663
3032.08519043,0.02729063
3034.01399780,0.02736876
3035.94280518,0.02728113
3037.87161255,0.02716247
3039.80041992,0.02716830
3041.72922729,0.02723603
3043.65803467,0.02710613
3045.58684204,0.02707378
3047.51564941,0.02702357
3049.44445679,0.02690819
3051.37326416,0.02700131
3053.30207153,0.02686666
3055.23087891,0.02681443
3057.15968628,0.02683010
3059.08849365,0.02685533
3061.01730103,0.02683255
3062.94610840,0.02662301
3064.87491577,0.02669531
3066.80372314,0.02655566
3068.73253052,0.02648599
3070.66133789,0.02657653
3072.59014526,0.02646713
3074.51895264,0.02645432
3076.44776001,0.02635592
3078.37656738,0.02632718
3080.30537476,0.02629636
3082.23418213,0.02630818
3084.16298950,0.02623428
3086.09179687,0.02621252
3088.02060425,0.02629785
3089.94941162,0.02606952
3091.87821899,0.02614344
3093.80702637,0.02607615
3095.73583374,0.02585048
3097.66464111,0.02591323
3099.59344849,0.02584384
3101.52225586,0.02579032
3103.45106323,0.02580184
3105.37987061,0.02591603
3107.30867798,0.02573228
3109.23748535,0.02554436
3111.16629272,0.02569994
3113.09510010,0.02556408
3115.02390747,0.02538047
3116.95271484,0.02537690
3118.88152222,0.02532965
3120.81032959,0.02525521
3122.73913696,0.02530291
3124.66794434,0.02526779
3126.59675171,0.02512655
3128.52555908,0.02507621
3130.45436645,0.02509370
3132.38317383,0.02508972
3134.31198120,0.02495155
3136.24078857,0.02495450
3138.16959595,0.02490701
3140.09840332,0.02483595
3142.02721069,0.02484743
3143.95601807,0.02471596
3145.88482544,0.02472931
3147.81363281,0.02468873
3149.74244019,0.02451909
3151.67124756,0.02442749
3153.60005493,0.02448174
3155.52886230,0.02445661
3157.45766968,0.02423859
3159.38647705,0.02428088
3161.31528442,0.02427900
3163.24409180,0.02412028
3165.17289917,0.02421277
3167.10170654,0.02414995
3169.03051392,0.02395620
3170.95932129,0.02408632
3172.88812866,0.02401245
3174.81693604,0.02388700
3176.74574341,0.02385918
3178.67455078,0.02367591
3180.60335815,0.02381112
3182.53216553,0.02373843
3184.46097290,0.02362593
3186.38978027,0.02365919
3188.31858765,0.02354605
3190.24739502,0.02358767
3192.17620239,0.02337249
3194.10500977,0.02338210
3196.03381714,0.02340249
3197.96262451,0.02320321
3199.89143188,0.02330760
3201.82023926,0.02321015
3203.74904663,0.02314205
3205.67785400,0.02316936
3207.60666138,0.02308438
3209.53546875,0.02296067
3211.46427612,0.02290934
3213.39308350,0.02290820
3215.32189087,0.02286729
3217.25069824,0.02287058
3219.17950562,0.02274843
3221.10831299,0.02276878
3223.03712036,0.02276378
3224.96592773,0.02273934
3226.89473511,0.02279148
3228.82354248,0.02262119
3230.75234985,0.02260039
3232.68115723,0.02264925
3234.60996460,0.02261029
3236.53877197,0.02255644
3238.46757935,0.02256243
3240.39638672,0.02255534
3242.32519409,0.02246984
3244.25400146,0.02243091
3246.18280884,0.02240359
3248.11161621,0.02245015
3250.04042358,0.02239258
3251.96923096,0.02236790
3253.89803833,0.02234757
3255.82684570,0.02226589
3257.75565308,0.02232086
3259.68446045,0.02226681
3261.61326782,0.02222543
3263.54207520,0.02227465
3265.47088257,0.02222314
3267.39968994,0.02212306
3269.32849731,0.02218225
3271.25730469,0.02214251
3273.18611206,0.02201652
3275.11491943,0.02207607
3277.04372681,0.02202145
3278.97253418,0.02201148
3280.90134155,0.02203880
3282.83014893,0.02201483
3284.75895630,0.02195791
3286.68776367,0.02194429
3288.61657104,0.02203573
3290.54537842,0.02194236
3292.47418579,0.02193007
3294.40299316,0.02198391
3296.33180054,0.02202603
3298.26060791,0.02198090
3300.18941528,0.02179295
3302.11822266,0.02180934
3304.04703003,0.02181547
3305.97583740,0.02175389
3307.90464478,0.02171586
3309.83345215,0.02164064
3311.76225952,0.02163992
3313.69106689,0.02169275
3315.61987427,0.02163913
3317.54868164,0.02161925
3319.47748901,0.02161931
3321.40629639,0.02159809
3323.33510376,0.02164343
3325.26391113,0.02150799
3327.19271851,0.02147445
3329.12152588,0.02149034
3331.05033325,0.02150890
3332.97914062,0.02151076
3334.90794800,0.02136614
3336.83675537,0.02143812
3338.76556274,0.02132920
3340.69437012,0.02131085
3342.62317749,0.02134850
3344.55198486,0.02123896
3346.48079224,0.02130232
3348.40959961,0.02116487
3350.33840698,0.02119342
3352.26721436,0.02118716
3354.19602173,0.02104722
3356.12482910,0.02107394
3358.05363647,0.02106037
3359.98244385,0.02110748
3361.91125122,0.02100200
3363.84005859,0.02088947
3365.76886597,0.02092653
3367.69767334,0.02090748
3369.62648071,0.02083017
3371.55528809,0.02088953
3373.48409546,0.02089258
3375.41290283,0.02076017
3377.34171020,0.02085963
3379.27051758,0.02087254
3381.19932495,0.02074916
3383.12813232,0.02073970
3385.05693970,0.02066548
3386.98574707,0.02049313
3388.91455444,0.02056108
3390.84336182,0.02055440
3392.77216919,0.02038031
3394.70097656,0.02052011
3396.62978394,0.02043659
3398.55859131,0.02028834
3400.48739868,0.02034251
3402.41620605,0.02024105
3404.34501343,0.02018525
3406.27382080,0.02030811
3408.20262817,0.02031756
3410.13143555,0.02022045
3412.06024292,0.02024864
3413.98905029,0.02003499
3415.91785767,0.02002905
3417.84666504,0.02013982
3419.77547241,0.01997886
3421.70427979,0.01998228
3423.63308716,0.01995581
3425.56189453,0.01999505
3427.49070190,0.01997759
3429.41950928,0.01995975
3431.34831665,0.01981751
3433.27712402,0.01968095
3435.20593140,0.01974531
3437.13473877,0.01961837
3439.06354614,0.01975667
3440.99235352,0.01968203
3442.92116089,0.01957355
3444.84996826,0.01965379
3446.77877563,0.01951064
3448.70758301,0.01958113
3450.63639038,0.01964755
3452.56519775,0.01964311
3454.49400513,0.01946830
3456.42281250,0.01940627
3458.35161987,0.01953042
3460.28042725,0.01945631
3462.20923462,0.01939285
3464.13804199,0.01947256
3466.06684937,0.01943650
3467.99565674,0.01927972
3469.92446411,0.01940804
3471.85327148,0.01935566
3473.78207886,0.01931130
3475.71088623,0.01926914
3477.63969360,0.01926676
3479.56850098,0.01935935
3481.49730835,0.01905682
3483.42611572,0.01922846
3485.35492310,0.01927643
3487.28373047,0.01913918
3489.21253784,0.01918457
3491.14134521,0.01917714
3493.07015259,0.01929362
3494.99895996,0.01911052
3496.92776733,0.01918887
3498.85657471,0.01916050
3500.78538208,0.01898743
3502.71418945,0.01882379
3504.64299683,0.01887983
3506.57180420,0.01927174
3508.50061157,0.01900023
3510.42941895,0.01893522
3512.35822632,0.01906030
3514.28703369,0.01914078
3516.21584106,0.01912815
3518.14464844,0.01901084
3520.07345581,0.01909897
3522.00226318,0.01880920
3523.93107056,0.01875539
3525.85987793,0.01878475
3527.78868530,0.01871698
3529.71749268,0.01874853
3531.64630005,0.01896969
3533.57510742,0.01913985
3535.50391479,0.01889305
3537.43272217,0.01900094
3539.36152954,0.01912199
3541.29033691,0.01908905
3543.21914429,0.01898325
3545.14795166,0.01860010
3547.07675903,0.01831229
3549.00556641,0.01882690
3550.93437378,0.01898084
3552.86318115,0.01847583
3554.79198853,0.01894008
3556.72079590,0.01902977
3558.64960327,0.01900237
3560.57841064,0.01885219
3562.50721802,0.01866558
3564.43602539,0.01889664
3566.36483276,0.01750351
3568.29364014,0.01717321
3570.22244751,0.01862906
3572.15125488,0.01897351
3574.08006226,0.01872465
3576.00886963,0.01887545
3577.93767700,0.01883920
3579.86648437,0.01869274
3581.79529175,0.01883281
3583.72409912,0.01882917
3585.65290649,0.01844500
3587.58171387,0.01703566
3589.51052124,0.01744133
3591.43932861,0.01899253
3593.36813599,0.01842345
3595.29694336,0.01819712
3597.22575073,0.01848063
3599.15455811,0.01855108
3601.08336548,0.01843594
3603.01217285,0.01856040
3604.94098022,0.01890652
3606.86978760,0.01828635
3608.79859497,0.01735618
3610.72740234,0.01770702
3612.65620972,0.01807519
3614.58501709,0.01759372
3616.51382446,0.01876080
3618.44263184,0.01740063
3620.37143921,0.01676834
3622.30024658,0.01894245
3624.22905395,0.01838508
3626.15786133,0.01910854
3628.08666870,0.01645014
3630.01547607,0.01499019
3631.94428345,0.01863119
3633.87309082,0.01825852
3635.80189819,0.01850427
3637.73070557,0.01885645
3639.65951294,0.01864749
3641.58832031,0.01871733
3643.51712769,0.01850751
3645.44593506,0.01876040
3647.37474243,0.01688093
3649.30354980,0.01557804
3651.23235718,0.01571876
3653.16116455,0.01857824
3655.08997192,0.01832922
3657.01877930,0.01645601
3658.94758667,0.01894088
3660.87639404,0.01854420
3662.80520142,0.01875984
3664.73400879,0.01863825
3666.66281616,0.01859676
3668.59162354,0.01812898
3670.52043091,0.01480228
3672.44923828,0.01780615
3674.37804565,0.01697258
3676.30685303,0.01416809
3678.23566040,0.01767812
3680.16446777,0.01805987
3682.09327515,0.01808158
3684.02208252,0.01863384
3685.95088989,0.01834795
3687.87969727,0.01660346
3689.80850464,0.01534696
3691.73731201,0.01730260
3693.66611938,0.01776641
3695.59492676,0.01819381
3697.52373413,0.01814893
3699.45254150,0.01801683
3701.38134888,0.01757818
3703.31015625,0.01687473
3705.23896362,0.01840699
3707.16777100,0.01756774
3709.09657837,0.01727666
3711.02538574,0.01632550
3712.95419312,0.01535142
3714.88300049,0.01782789
3716.81180786,0.01750226
3718.74061523,0.01772649
3720.66942261,0.01741687
3722.59822998,0.01682678
3724.52703735,0.01748137
3726.45584473,0.01623702
3728.38465210,0.01744555
3730.31345947,0.01726990
3732.24226685,0.01601864
3734.17107422,0.01561529
3736.09988159,0.01485797
3738.02868896,0.01570947
3739.95749634,0.01689520
3741.88630371,0.01775620
3743.81511108,0.01398449
3745.74391846,0.01320797
3747.67272583,0.01692290
3749.60153320,0.01461805
3751.53034058,0.01349195
3753.45914795,0.01540962
3755.38795532,0.01659819
3757.31676270,0.01723002
3759.24557007,0.01604584
3761.17437744,0.01648544
3763.10318481,0.01741808
3765.03199219,0.01643264
3766.96079956,0.01673990
3768.88960693,0.01657993
3770.81841431,0.01574579
3772.74722168,0.01700610
3774.67602905,0.01709203
3776.60483643,0.01706457
3778.53364380,0.01669867
3780.46245117,0.01601230
3782.39125854,0.01711005
3784.32006592,0.01658834
3786.24887329,0.01647331
3788.17768066,0.01704415
3790.10648804,0.01686761
3792.03529541,0.01675469
3793.96410278,0.01691006
3795.89291016,0.01602438
3797.82171753,0.01586970
3799.75052490,0.01661066
3801.67933228,0.01343964
3803.60813965,0.01547195
3805.53694702,0.01679773
3807.46575439,0.01388280
3809.39456177,0.01657123
3811.32336914,0.01629419
3813.25217651,0.01680786
3815.18098389,0.01530106
3817.10979126,0.01349626
3819.03859863,0.01685786
3820.96740601,0.01385968
3822.89621338,0.01450862
3824.82502075,0.01672337
3826.75382812,0.01520752
3828.68263550,0.01631357
3830.61144287,0.01570463
3832.54025024,0.01523719
3834.46905762,0.01546170
3836.39786499,0.01479687
3838.32667236,0.01344245
3840.25547974,0.01443023
3842.18428711,0.01556469
3844.11309448,0.01486803
3846.04190186,0.01604734
3847.97070923,0.01579869
3849.89951660,0.01582193
3851.82832397,0.01433193
3853.75713135,0.01093236
3855.68593872,0.01279150
3857.61474609,0.01588533
3859.54355347,0.01550689
3861.47236084,0.01515398
3863.40116821,0.01488275
3865.32997559,0.01396951
3867.25878296,0.01558252
3869.18759033,0.01439031
3871.11639770,0.01322050
3873.04520508,0.01555145
3874.97401245,0.01439779
3876.90281982,0.01534631
3878.83162720,0.01565266
3880.76043457,0.01368811
3882.68924194,0.01558559
3884.61804932,0.01448829
3886.54685669,0.01340376
3888.47566406,0.01558404
3890.40447144,0.01472329
3892.33327881,0.01393629
3894.26208618,0.01523310
3896.19089355,0.01533289
3898.11970093,0.01465691
3900.04850830,0.01393334
3901.97731567,0.01375106
3903.90612305,0.01369033
3905.83493042,0.01390810
3907.76373779,0.01516738
3909.69254517,0.01512648
3911.62135254,0.01500631
3913.55015991,0.01524607
3915.47896728,0.01469417
3917.40777466,0.01437636
3919.33658203,0.01422264
3921.26538940,0.01473608
3923.19419678,0.01476104
3925.12300415,0.01448624
3927.05181152,0.01468424
3928.98061890,0.01476466
3930.90942627,0.01447650
3932.83823364,0.01402752
3934.76704102,0.01462162
3936.69584839,0.01474155
3938.62465576,0.01460548
3940.55346313,0.01474105
3942.48227051,0.01421648
3944.41107788,0.01432327
3946.33988525,0.01459186
3948.26869263,0.01426252
3950.19750000,0.01412970
3952.12630737,0.01442050
3954.05511475,0.01447029
3955.98392212,0.01442104
3957.91272949,0.01438979
3959.84153687,0.01431114
3961.77034424,0.01426450
3963.69915161,0.01417728
3965.62795898,0.01438369
3967.55676636,0.01422713
3969.48557373,0.01415707
3971.41438110,0.01417158
3973.34318848,0.01400739
3975.27199585,0.01413378
3977.20080322,0.01407876
3979.12961060,0.01414162
3981.05841797,0.01404776
3982.98722534,0.01404825
3984.91603271,0.01411689
3986.84484009,0.01400465
3988.77364746,0.01400669
3990.70245483,0.01386272
3992.63126221,0.01396352
3994.56006958,0.01387651
3996.48887695,0.01385870
3998.41768433,0.01396682
4000.34649170,0.01376465
4002.27529907,0.01376531
4004.20410645,0.01380949
4006.13291382,0.01374518
4008.06172119,0.01368131
4009.99052856,0.01375134
4011.91933594,0.01368114
4013.84814331,0.01369309
4015.77695068,0.01368860
4017.70575806,0.01353137
4019.63456543,0.01357918
4021.56337280,0.01346687
4023.49218018,0.01351247
4025.42098755,0.01354817
4027.34979492,0.01342903
4029.27860229,0.01344839
4031.20740967,0.01338681
4033.13621704,0.01330717
4035.06502441,0.01336896
4036.99383179,0.01337636
4038.92263916,0.01324124
4040.85144653,0.01331550
4042.78025391,0.01325766
4044.70906128,0.01317806
4046.63786865,0.01321962
4048.56667603,0.01322878
4050.49548340,0.01322104
4052.42429077,0.01314505
4054.35309814,0.01324101
4056.28190552,0.01310377
4058.21071289,0.01307772
4060.13952026,0.01314527
4062.06832764,0.01306621
4063.99713501,0.01300362
4065.92594238,0.01291134
4067.85474976,0.01304105
4069.78355713,0.01284512
4071.71236450,0.01282865
4073.64117187,0.01295915
4075.56997925,0.01283357
4077.49878662,0.01281368
4079.42759399,0.01273757
4081.35640137,0.01276522
4083.28520874,0.01270575
4085.21401611,0.01275482
4087.14282349,0.01268231
4089.07163086,0.01263287
4091.00043823,0.01270199
4092.92924561,0.01257880
4094.85805298,0.01263102
4096.78686035,0.01246624
4098.71566772,0.01250258
4100.64447510,0.01258189
4102.57328247,0.01251802
4104.50208984,0.01252566
4106.43089722,0.01244812
4108.35970459,0.01248615
4110.28851196,0.01237657
4112.21731934,0.01241752
4114.14612671,0.01232226
4116.07493408,0.01230821
4118.00374145,0.01240225
4119.93254883,0.01225259
4121.86135620,0.01231277
4123.79016357,0.01222623
4125.71897095,0.01223721
4127.64777832,0.01221913
4129.57658569,0.01217155
4131.50539307,0.01215703
4133.43420044,0.01211582
4135.36300781,0.01215619
4137.29181519,0.01206044
4139.22062256,0.01220468
4141.14942993,0.01199883
4143.07823730,0.01193174
4145.00704468,0.01213712
4146.93585205,0.01189565
4148.86465942,0.01194439
4150.79346680,0.01199437
4152.72227417,0.01183562
4154.65108154,0.01181415
4156.57988892,0.01195112
4158.50869629,0.01190155
4160.43750366,0.01179606
4162.36631103,0.01178941
4164.29511841,0.01170424
4166.22392578,0.01176632
4168.15273315,0.01163330
4170.08154053,0.01160112
4172.01034790,0.01167898
4173.93915527,0.01160300
4175.86796265,0.01161510
4177.79677002,0.01158869
4179.72557739,0.01155461
4181.65438477,0.01152418
4183.58319214,0.01155283
4185.51199951,0.01148413
4187.44080688,0.01147815
4189.36961426,0.01146987
4191.29842163,0.01136867
4193.22722900,0.01135494
4195.15603638,0.01130090
4197.08484375,0.01138321
4199.01365112,0.01133287
4200.94245850,0.01130950
4202.87126587,0.01134402
4204.80007324,0.01123636
4206.72888062,0.01119572
4208.65768799,0.01114590
4210.58649536,0.01117741
4212.51530273,0.01106521
4214.44411011,0.01104194
4216.37291748,0.01114032
4218.30172485,0.01106669
4220.23053223,0.01107784
4222.15933960,0.01109929
4224.08814697,0.01103374
4226.01695435,0.01097801
4227.94576172,0.01102203
4229.87456909,0.01099150
4231.80337646,0.01095269
4233.73218384,0.01095432
4235.66099121,0.01089403
4237.58979858,0.01084023
4239.51860596,0.01082375
4241.44741333,0.01082208
4243.37622070,0.01075373
4245.30502808,0.01081467
4247.23383545,0.01079907
4249.16264282,0.01071897
4251.09145020,0.01066086
4253.02025757,0.01064118
4254.94906494,0.01077451
4256.87787231,0.01067445
4258.80667969,0.01062353
4260.73548706,0.01062603
4262.66429443,0.01059314
4264.59310181,0.01056622
4266.52190918,0.01049738
4268.45071655,0.01058638
4270.37952393,0.01050674
4272.30833130,0.01044085
4274.23713867,0.01045452
4276.16594604,0.01046012
4278.09475342,0.01043875
4280.02356079,0.01033096
4281.95236816,0.01035211
4283.88117554,0.01032794
4285.80998291,0.01031250
4287.73879028,0.01031752
4289.66759766,0.01029001
4291.59640503,0.01019568
4293.52521240,0.01016842
4295.45401978,0.01020431
4297.38282715,0.01014114
4299.31163452,0.01021199
4301.24044189,0.01021774
4303.16924927,0.01019608
4305.09805664,0.01011491
4307.02686401,0.01005400
4308.95567139,0.01010351
4310.88447876,0.00997458
4312.81328613,0.00998700
4314.74209351,0.00999493
4316.67090088,0.00992372
4318.59970825,0.00994747
4320.52851562,0.00992297
4322.45732300,0.00993928
4324.38613037,0.00993598
4326.31493774,0.00982309
4328.24374512,0.00982565
4330.17255249,0.00986489
4332.10135986,0.00977216
4334.03016724,0.00979961
4335.95897461,0.00980627
4337.88778198,0.00982182
4339.81658936,0.00974770
4341.74539673,0.00962491
4343.67420410,0.00975640
4345.60301147,0.00971723
4347.53181885,0.00966434
4349.46062622,0.00959551
4351.38943359,0.00956476
4353.31824097,0.00964388
4355.24704834,0.00957323
4357.17585571,0.00956036
4359.10466309,0.00947857
4361.03347046,0.00946352
4362.96227783,0.00946479
4364.89108520,0.00944618
4366.81989258,0.00940994
4368.74869995,0.00938366
4370.67750732,0.00953002
4372.60631470,0.00942047
4374.53512207,0.00932988
4376.46392944,0.00939276
4378.39273682,0.00940353
4380.32154419,0.00929133
4382.25035156,0.00924287
4384.17915894,0.00937279
4386.10796631,0.00927632
4388.03677368,0.00920952
4389.96558105,0.00916024
4391.89438843,0.00915433
4393.82319580,0.00918062
4395.75200317,0.00914100
4397.68081055,0.00915293
4399.60961792,0.00904980
4401.53842529,0.00912273
4403.46723267,0.00911456
4405.39604004,0.00901671
4407.32484741,0.00905162
4409.25365478,0.00899136
4411.18246216,0.00898957
4413.11126953,0.00897444
4415.04007690,0.00895140
4416.96888428,0.00897804
4418.89769165,0.00893009
4420.82649902,0.00878878
4422.75530640,0.00884167
4424.68411377,0.00893584
4426.61292114,0.00885145
4428.54172852,0.00884955
4430.47053589,0.00881791
4432.39934326,0.00880468
4434.32815063,0.00877309
4436.25695801,0.00871589
4438.18576538,0.00869158
4440.11457275,0.00871277
4442.04338013,0.00878478
4443.97218750,0.00870242
4445.90099487,0.00864045
4447.82980225,0.00861383
4449.75860962,0.00867207
4451.68741699,0.00865448
4453.61622437,0.00851801
4455.54503174,0.00858119
4457.47383911,0.00857465
4459.40264648,0.00849042
4461.33145386,0.00847304
4463.26026123,0.00847427
4465.18906860,0.00845613
4467.11787598,0.00848929
4469.04668335,0.00845337
4470.97549072,0.00839042
4472.90429810,0.00846510
4474.83310547,0.00838634
4476.76191284,0.00836416
4478.69072021,0.00839648
4480.61952759,0.00838147
4482.54833496,0.00836080
4484.47714233,0.00825300
4486.40594971,0.00828827
4488.33475708,0.00835572
4490.26356445,0.00829196
4492.19237183,0.00813785
4494.12117920,0.00816685
4496.04998657,0.00821927
4497.97879395,0.00815529
4499.90760132,0.00815794
4501.83640869,0.00810013
4503.76521606,0.00815345
4505.69402344,0.00810991
4507.62283081,0.00805209
4509.55163818,0.00807233
4511.48044556,0.00797971
4513.40925293,0.00800391
4515.33806030,0.00797200
4517.26686768,0.00798659
4519.19567505,0.00795496
4521.12448242,0.00789724
4523.05328979,0.00795110
4524.98209717,0.00782491
4526.91090454,0.00787221
4528.83971191,0.00792392
4530.76851929,0.00778648
4532.69732666,0.00777565
4534.62613403,0.00781080
4536.55494141,0.00785010
4538.48374878,0.00780016
4540.41255615,0.00780352
4542.34136353,0.00777957
4544.27017090,0.00770521
4546.19897827,0.00783717
4548.12778564,0.00769936
4550.05659302,0.00760171
4551.98540039,0.00771242
4553.91420776,0.00757807
4555.84301514,0.00759376
4557.77182251,0.00753306
4559.70062988,0.00750053
4561.62943726,0.00759044
4563.55824463,0.00752104
4565.48705200,0.00759548
4567.41585937,0.00753579
4569.34466675,0.00752214
4571.27347412,0.00748351
4573.20228149,0.00742414
4575.13108887,0.00755884
4577.05989624,0.00734276
4578.98870361,0.00732910
4580.91751099,0.00747922
4582.84631836,0.00740463
4584.77512573,0.00741983
4586.70393311,0.00736509
4588.63274048,0.00735191
4590.56154785,0.00734749
4592.49035522,0.00727123
4594.41916260,0.00725929
4596.34796997,0.00727360
4598.27677734,0.00726498
4600.20558472,0.00722529
4602.13439209,0.00721355
4604.06319946,0.00724580
4605.99200684,0.00725165
4607.92081421,0.00720076
4609.84962158,0.00712270
4611.77842895,0.00704090
4613.70723633,0.00701819
4615.63604370,0.00703928
4617.56485107,0.00712281
4619.49365845,0.00707561
4621.42246582,0.00702160
4623.35127319,0.00710625
4625.28008057,0.00701785
4627.20888794,0.00699426
4629.13769531,0.00696289
4631.06650269,0.00699584
4632.99531006,0.00705709
4634.92411743,0.00691184
4636.85292480,0.00697444
4638.78173218,0.00694813
4640.71053955,0.00685871
4642.63934692,0.00686651
4644.56815430,0.00685443
4646.49696167,0.00689227
4648.42576904,0.00687387
4650.35457642,0.00687303
4652.28338379,0.00683478
4654.21219116,0.00688764
4656.14099853,0.00686504
4658.06980591,0.00673296
4659.99861328,0.00673713
4661.92742065,0.00677461
4663.85622803,0.00675897
4665.78503540,0.00666711
4667.71384277,0.00668896
4669.64265015,0.00665060
4671.57145752,0.00666641
4673.50026489,0.00665251
4675.42907227,0.00655471
4677.35787964,0.00663373
4679.28668701,0.00657552
4681.21549438,0.00659557
4683.14430176,0.00655545
4685.07310913,0.00653381
4687.00191650,0.00659421
4688.93072388,0.00649487
4690.85953125,0.00647386
4692.78833862,0.00637986
4694.71714600,0.00648530
4696.64595337,0.00648687
4698.57476074,0.00639190
4700.50356812,0.00647639
4702.43237549,0.00640077
4704.36118286,0.00641086
4706.28999023,0.00635646
4708.21879761,0.00636645
4710.14760498,0.00633398
4712.07641235,0.00630382
4714.00521973,0.00642828
4715.93402710,0.00631571
4717.86283447,0.00631688
4719.79164185,0.00626722
4721.72044922,0.00626277
4723.64925659,0.00630038
4725.57806396,0.00616726
4727.50687134,0.00620614
4729.43567871,0.00619454
4731.36448608,0.00625730
4733.29329346,0.00621140
4735.22210083,0.00606465
4737.15090820,0.00610551
4739.07971558,0.00605792
4741.00852295,0.00609593
4742.93733032,0.00611113
4744.86613770,0.00608944
4746.79494507,0.00608022
4748.72375244,0.00600173
4750.65255981,0.00610364
4752.58136719,0.00606389
4754.51017456,0.00592285
4756.43898193,0.00603909
4758.36778931,0.00604418
4760.29659668,0.00597092
4762.22540405,0.00601804
4764.15421143,0.00596183
4766.08301880,0.00594793
4768.01182617,0.00600125
4769.94063354,0.00596489
4771.86944092,0.00595690
4773.79824829,0.00591198
4775.72705566,0.00583502
4777.65586304,0.00579182
4779.58467041,0.00580670
4781.51347778,0.00590786
4783.44228516,0.00592555
4785.37109253,0.00587943
4787.29989990,0.00587491
4789.22870728,0.00584985
4791.15751465,0.00577463
4793.08632202,0.00578232
4795.01512939,0.00577746
4796.94393677,0.00568968
4798.87274414,0.00575074
4800.80155151,0.00572618
4802.73035889,0.00568515
4804.65916626,0.00568204
4806.58797363,0.00558626
4808.51678101,0.00569280
4810.44558838,0.00564434
4812.37439575,0.00555615
4814.30320312,0.00559727
4816.23201050,0.00556320
4818.16081787,0.00560383
4820.08962524,0.00550905
4822.01843262,0.00556180
4823.94723999,0.00562070
4825.87604736,0.00555254
4827.80485474,0.00557822
4829.73366211,0.00548975
4831.66246948,0.00557521
4833.59127686,0.00557483
4835.52008423,0.00545491
4837.44889160,0.00544928
4839.37769897,0.00546599
4841.30650635,0.00548998
4843.23531372,0.00537558
4845.16412109,0.00543813
4847.09292847,0.00546251
4849.02173584,0.00538674
4850.95054321,0.00539828
4852.87935059,0.00535838
4854.80815796,0.00536995
4856.73696533,0.00527912
4858.66577270,0.00525864
4860.59458008,0.00531939
4862.52338745,0.00531786
4864.45219482,0.00525736
4866.38100220,0.00522161
4868.30980957,0.00535062
4870.23861694,0.00527405
4872.16742432,0.00514047
4874.09623169,0.00517382
4876.02503906,0.00520960
4877.95384644,0.00524803
4879.88265381,0.00521660
4881.81146118,0.00517401
4883.74026855,0.00518594
4885.66907593,0.00511110
4887.59788330,0.00504844
4889.52669067,0.00510675
4891.45549805,0.00510139
4893.38430542,0.00510584
4895.31311279,0.00503108
4897.24192017,0.00502206
4899.17072754,0.00512381
4901.09953491,0.00503955
4903.02834228,0.00504967
4904.95714966,0.00501489
4906.88595703,0.00501010
4908.81476440,0.00501111
4910.74357178,0.00493294
4912.67237915,0.00503861
4914.60118652,0.00494147
4916.52999390,0.00492341
4918.45880127,0.00498209
4920.38760864,0.00490212
4922.31641602,0.00495783
4924.24522339,0.00489652
4926.17403076,0.00483195
4928.10283813,0.00490891
4930.03164551,0.00488784
4931.96045288,0.00482751
4933.88926025,0.00489708
4935.81806763,0.00484447
4937.74687500,0.00479267
4939.67568237,0.00484232
4941.60448975,0.00477271
4943.53329712,0.00480272
4945.46210449,0.00478219
4947.39091187,0.00477670
4949.31971924,0.00477745
4951.24852661,0.00465254
4953.17733398,0.00465564
4955.10614136,0.00474609
4957.03494873,0.00479338
4958.96375610,0.00467327
4960.89256348,0.00470127
4962.82137085,0.00473461
4964.75017822,0.00462238
4966.67898560,0.00464304
4968.60779297,0.00461349
4970.53660034,0.00462083
4972.46540771,0.00460879
4974.39421509,0.00462313
4976.32302246,0.00460530
4978.25182983,0.00452684
4980.18063721,0.00457897
4982.10944458,0.00451378
4984.03825195,0.00454126
4985.96705933,0.00457338
4987.89586670,0.00449672
4989.82467407,0.00447665
4991.75348145,0.00440284
4993.68228882,0.00444710
4995.61109619,0.00448577
4997.53990356,0.00443199
4999.46871094,0.00442045
5001.39751831,0.00441013
5003.32632568,0.00437255
5005.25513306,0.00436533
5007.18394043,0.00445076
5009.11274780,0.00442704
5011.04155518,0.00432274
5012.97036255,0.00432201
5014.89916992,0.00434186
5016.82797729,0.00439450
5018.75678467,0.00439407
5020.68559204,0.00430088
5022.61439941,0.00429184
5024.54320679,0.00427554
5026.47201416,0.00430454
5028.40082153,0.00434894
5030.32962891,0.00427726
5032.25843628,0.00426353
5034.18724365,0.00419861
5036.11605103,0.00419841
5038.04485840,0.00421945
5039.97366577,0.00413661
5041.90247314,0.00427374
5043.83128052,0.00426676
5045.76008789,0.00415334
5047.68889526,0.00421004
5049.61770264,0.00409010
5051.54651001,0.00409958
5053.47531738,0.00422144
5055.40412476,0.00416275
5057.33293213,0.00415424
5059.26173950,0.00408791
5061.19054687,0.00406175
5063.11935425,0.00409807
5065.04816162,0.00408299
5066.97696899,0.00409420
5068.90577637,0.00403494
5070.83458374,0.00409428
5072.76339111,0.00405301
5074.69219849,0.00403182
5076.62100586,0.00412984
5078.54981323,0.00393871
5080.47862061,0.00399997
5082.40742798,0.00403612
5084.33623535,0.00392204
5086.26504272,0.00403226
5088.19385010,0.00395880
5090.12265747,0.00388004
5092.05146484,0.00385198
5093.98027222,0.00388562
5095.90907959,0.00390431
5097.83788696,0.00391773
5099.76669434,0.00399045
5101.69550171,0.00387767
5103.62430908,0.00389383
5105.55311645,0.00383058
5107.48192383,0.00374245
5109.41073120,0.00384130
5111.33953857,0.00384024
5113.26834595,0.00384138
5115.19715332,0.00380939
5117.12596069,0.00388117
5119.05476807,0.00384290
5120.98357544,0.00366380
5122.91238281,0.00376075
5124.84119019,0.00388268
5126.76999756,0.00385692
5128.69880493,0.00375432
5130.62761230,0.00376465
5132.55641968,0.00377193
5134.48522705,0.00366886
5136.41403442,0.00372950
5138.34284180,0.00375558
5140.27164917,0.00371067
5142.20045654,0.00373035
5144.12926392,0.00365727
5146.05807129,0.00361900
5147.98687866,0.00371107
5149.91568603,0.00374499
5151.84449341,0.00367641
5153.77330078,0.00365676
5155.70210815,0.00364078
5157.63091553,0.00357012
5159.55972290,0.00363263
5161.48853027,0.00363614
5163.41733765,0.00356821
5165.34614502,0.00362175
5167.27495239,0.00357311
5169.20375977,0.00355299
5171.13256714,0.00358581
5173.06137451,0.00352733
5174.99018188,0.00347166
5176.91898926,0.00347175
5178.84779663,0.00349614
5180.77660400,0.00344935
5182.70541138,0.00348874
5184.63421875,0.00348611
5186.56302612,0.00340180
5188.49183350,0.00342334
5190.42064087,0.00343149
5192.34944824,0.00343614
5194.27825562,0.00342368
5196.20706299,0.00342169
5198.13587036,0.00338105
5200.06467773,0.00339389
5201.99348511,0.00346691
5203.92229248,0.00342520
5205.85109985,0.00343007
5207.77990723,0.00331888
5209.70871460,0.00325959
5211.63752197,0.00340201
5213.56632935,0.00335010
5215.49513672,0.00332046
5217.42394409,0.00340694
5219.35275146,0.00332882
5221.28155884,0.00329825
5223.21036621,0.00335819
5225.13917358,0.00326346
5227.06798096,0.00323806
5228.99678833,0.00331605
5230.92559570,0.00330921
5232.85440308,0.00328233
5234.78321045,0.00330900
5236.71201782,0.00329815
5238.64082520,0.00318951
5240.56963257,0.00326647
5242.49843994,0.00326517
5244.42724731,0.00314027
5246.35605469,0.00323566
5248.28486206,0.00314155
5250.21366943,0.00311359
5252.14247681,0.00328051
5254.07128418,0.00315933
5256.00009155,0.00315949
5257.92889893,0.00325001
5259.85770630,0.00316022
5261.78651367,0.00318516
5263.71532104,0.00310985
5265.64412842,0.00306818
5267.57293579,0.00314957
5269.50174316,0.00302560
5271.43055054,0.00304493
5273.35935791,0.00312322
5275.28816528,0.00312106
5277.21697266,0.00314069
5279.14578003,0.00311518
5281.07458740,0.00315113
5283.00339478,0.00311764
5284.93220215,0.00308271
5286.86100952,0.00305012
5288.78981689,0.00303298
5290.71862427,0.00303528
5292.64743164,0.00302291
5294.57623901,0.00311310
5296.50504639,0.00304798
5298.43385376,0.00299637
5300.36266113,0.00301258
5302.29146851,0.00300423
5304.22027588,0.00303180
5306.14908325,0.00296038
5308.07789062,0.00295134
5310.00669800,0.00298119
5311.93550537,0.00299538
5313.86431274,0.00293743
5315.79312012,0.00290398
5317.72192749,0.00293501
5319.65073486,0.00292583
5321.57954224,0.00295459
5323.50834961,0.00288305
5325.43715698,0.00291888
5327.36596436,0.00291242
5329.29477173,0.00283728
5331.22357910,0.00295297
5333.15238647,0.00289594
5335.08119385,0.00290184
5337.01000122,0.00288244
5338.93880859,0.00268616
5340.86761597,0.00283497
5342.79642334,0.00287838
5344.72523071,0.00264829
5346.65403809,0.00271952
5348.58284546,0.00282611
5350.51165283,0.00280970
5352.44046020,0.00277045
5354.36926758,0.00268477
5356.29807495,0.00276129
5358.22688232,0.00281407
5360.15568970,0.00276174
5362.08449707,0.00272882
5364.01330444,0.00277529
5365.94211182,0.00280074
5367.87091919,0.00269530
5369.79972656,0.00267889
5371.72853394,0.00267390
5373.65734131,0.00270657
5375.58614868,0.00266851
5377.51495605,0.00266711
5379.44376343,0.00274491
5381.37257080,0.00262765
5383.30137817,0.00272851
5385.23018555,0.00270031
5387.15899292,0.00256240
5389.08780029,0.00266177
5391.01660767,0.00266164
5392.94541504,0.00272286
5394.87422241,0.00268414
5396.80302978,0.00255748
5398.73183716,0.00256806
5400.66064453,0.00266886
5402.58945190,0.00264884
5404.51825928,0.00254794
5406.44706665,0.00263940
5408.37587402,0.00262572
5410.30468140,0.00257823
5412.23348877,0.00253142
5414.16229614,0.00248298
5416.09110352,0.00258645
5418.01991089,0.00262352
5419.94871826,0.00259941
5421.87752563,0.00258098
5423.80633301,0.00258828
5425.73514038,0.00254123
5427.66394775,0.00248678
5429.59275513,0.00244676
5431.52156250,0.00247873
5433.45036987,0.00254843
5435.37917725,0.00245472
5437.30798462,0.00251310
5439.23679199,0.00254847
5441.16559936,0.00246152
5443.09440674,0.00250990
5445.02321411,0.00244580
5446.95202148,0.00239398
5448.88082886,0.00248856
5450.80963623,0.00247655
5452.73844360,0.00245151
5454.66725098,0.00250222
5456.59605835,0.00245851
5458.52486572,0.00249522
5460.45367310,0.00244511
5462.38248047,0.00230853
5464.31128784,0.00243161
5466.24009521,0.00239914
5468.16890259,0.00230948
5470.09770996,0.00237687
5472.02651733,0.00243014
5473.95532471,0.00242357
5475.88413208,0.00231919
5477.81293945,0.00234089
5479.74174683,0.00233615
5481.67055420,0.00230939
5483.59936157,0.00239764
5485.52816895,0.00237043
5487.45697632,0.00230209
5489.38578369,0.00232130
5491.31459106,0.00234652
5493.24339844,0.00230490
5495.17220581,0.00231756
5497.10101318,0.00234583
5499.02982056,0.00232139
5500.95862793,0.00235126
5502.88743530,0.00231816
5504.81624268,0.00226894
5506.74505005,0.00230567
5508.67385742,0.00223919
5510.60266479,0.00223664
5512.53147217,0.00235574
5514.46027954,0.00224888
5516.38908691,0.00217049
5518.31789429,0.00224119
5520.24670166,0.00222941
5522.17550903,0.00220675
5524.10431641,0.00225769
5526.03312378,0.00232307
5527.96193115,0.00222396
5529.89073853,0.00220621
5531.81954590,0.00222239
5533.74835327,0.00215683
5535.67716064,0.00219862
5537.60596802,0.00212015
5539.53477539,0.00215062
5541.46358276,0.00222164
5543.39239014,0.00219488
5545.32119751,0.00224466
5547.25000488,0.00215244
5549.17881226,0.00213838
5551.10761963,0.00219601
5553.03642700,0.00218888
5554.96523437,0.00208840
5556.89404175,0.00202854
5558.82284912,0.00217007
5560.75165649,0.00208881
5562.68046387,0.00206781
5564.60927124,0.00212461
5566.53807861,0.00203350
5568.46688599,0.00209716
5570.39569336,0.00204505
5572.32450073,0.00204384
5574.25330811,0.00212211
5576.18211548,0.00203726
5578.11092285,0.00204752
5580.03973022,0.00204973
5581.96853760,0.00202916
5583.89734497,0.00202714
5585.82615234,0.00203968
5587.75495972,0.00209139
5589.68376709,0.00206568
5591.61257446,0.00198184
5593.54138184,0.00196507
5595.47018921,0.00205176
5597.39899658,0.00202119
5599.32780395,0.00201671
5601.25661133,0.00201245
5603.18541870,0.00192897
5605.11422607,0.00204164
5607.04303345,0.00198011
5608.97184082,0.00193106
5610.90064819,0.00202251
5612.82945557,0.00191450
5614.75826294,0.00199115
5616.68707031,0.00202100
5618.61587769,0.00187653
5620.54468506,0.00192171
5622.47349243,0.00196166
5624.40229980,0.00191168
5626.33110718,0.00186492
5628.25991455,0.00190463
5630.18872192,0.00197569
5632.11752930,0.00189640
5634.04633667,0.00186392
5635.97514404,0.00197609
5637.90395142,0.00195552
5639.83275879,0.00186235
5641.76156616,0.00181560
5643.69037353,0.00183218
5645.61918091,0.00188060
5647.54798828,0.00185045
5649.47679565,0.00187214
5651.40560303,0.00188511
5653.33441040,0.00188273
5655.26321777,0.00185223
5657.19202515,0.00182565
5659.12083252,0.00192262
5661.04963989,0.00185622
5662.97844727,0.00180107
5664.90725464,0.00184454
5666.83606201,0.00183869
5668.76486938,0.00183171
5670.69367676,0.00177469
5672.62248413,0.00182299
5674.55129150,0.00182133
5676.48009888,0.00175622
5678.40890625,0.00178839
5680.33771362,0.00184718
5682.26652100,0.00186439
5684.19532837,0.00176524
5686.12413574,0.00178026
5688.05294311,0.00179582
5689.98175049,0.00171425
5691.91055786,0.00174932
5693.83936523,0.00173406
5695.76817261,0.00173130
5697.69697998,0.00180120
5699.62578735,0.00174522
5701.55459473,0.00173146
5703.48340210,0.00175445
5705.41220947,0.00168866
5707.34101685,0.00169376
5709.26982422,0.00165153
5711.19863159,0.00166294
5713.12743896,0.00175025
5715.05624634,0.00166957
5716.98505371,0.00166006
5718.91386108,0.00172630
5720.84266846,0.00175575
5722.77147583,0.00171387
5724.70028320,0.00166952
5726.62909058,0.00168554
5728.55789795,0.00165113
5730.48670532,0.00170493
5732.41551270,0.00171000
5734.34432007,0.00171724
5736.27312744,0.00173049
5738.20193481,0.00163501
5740.13074219,0.00167645
5742.05954956,0.00161690
5743.98835693,0.00155931
5745.91716431,0.00163050
5747.84597168,0.00161334
5749.77477905,0.00163699
5751.70358643,0.00163253
5753.63239380,0.00163274
5755.56120117,0.00164700
5757.49000854,0.00161379
5759.41881592,0.00160086
5761.34762329,0.00156381
5763.27643066,0.00158394
5765.20523804,0.00161203
5767.13404541,0.00159539
5769.06285278,0.00160921
5770.99166016,0.00159943
5772.92046753,0.00158172
5774.84927490,0.00155357
5776.77808228,0.00151738
5778.70688965,0.00154294
5780.63569702,0.00155659
5782.56450439,0.00153085
5784.49331177,0.00155233
5786.42211914,0.00156650
5788.35092651,0.00150408
5790.27973389,0.00146997
5792.20854126,0.00147186
5794.13734863,0.00147319
5796.06615601,0.00150667
5797.99496338,0.00147699
5799.92377075,0.00145987
5801.85257812,0.00150216
5803.78138550,0.00146424
5805.71019287,0.00145270
5807.63900024,0.00150246
5809.56780762,0.00151318
5811.49661499,0.00149732
5813.42542236,0.00145517
5815.35422974,0.00144670
5817.28303711,0.00148899
5819.21184448,0.00145136
5821.14065186,0.00139356
5823.06945923,0.00141906
5824.99826660,0.00144550
5826.92707397,0.00143911
5828.85588135,0.00141449
5830.78468872,0.00139505
5832.71349609,0.00139533
5834.64230347,0.00143575
5836.57111084,0.00145128
5838.49991821,0.00145850
5840.42872559,0.00144586
5842.35753296,0.00134161
5844.28634033,0.00140559
5846.21514770,0.00143359
5848.14395508,0.00138322
5850.07276245,0.00147270
5852.00156982,0.00142412
5853.93037720,0.00142403
5855.85918457,0.00139227
5857.78799194,0.00131742
5859.71679932,0.00138511
5861.64560669,0.00136249
5863.57441406,0.00141963
5865.50322144,0.00138614
5867.43202881,0.00132322
5869.36083618,0.00140347
5871.28964355,0.00132181
5873.21845093,0.00133367
5875.14725830,0.00137990
5877.07606567,0.00126374
5879.00487305,0.00127813
5880.93368042,0.00134949
5882.86248779,0.00130703
5884.79129517,0.00132856
5886.72010254,0.00137691
5888.64890991,0.00131970
5890.57771728,0.00127878
5892.50652466,0.00125254
5894.43533203,0.00126190
5896.36413940,0.00132961
5898.29294678,0.00131877
5900.22175415,0.00124811
5902.15056152,0.00125176
5904.07936890,0.00127469
5906.00817627,0.00126522
5907.93698364,0.00127042
5909.86579102,0.00128703
5911.79459839,0.00131027
5913.72340576,0.00128563
5915.65221313,0.00130822
5917.58102051,0.00127816
5919.50982788,0.00117959
5921.43863525,0.00119179
5923.36744263,0.00117924
5925.29625000,0.00120842
5927.22505737,0.00121181
5929.15386475,0.00123624
5931.08267212,0.00128864
5933.01147949,0.00121171
5934.94028686,0.00122236
5936.86909424,0.00121655
5938.79790161,0.00118137
5940.72670898,0.00113343
5942.65551636,0.00119162
5944.58432373,0.00128828
5946.51313110,0.00117167
5948.44193848,0.00119814
5950.37074585,0.00121701
5952.29955322,0.00120297
5954.22836060,0.00118100
5956.15716797,0.00111560
5958.08597534,0.00124141
5960.01478271,0.00119624
5961.94359009,0.00115285
5963.87239746,0.00117026
5965.80120483,0.00109792
5967.73001221,0.00115171
5969.65881958,0.00114140
5971.58762695,0.00115942
5973.51643433,0.00118077
5975.44524170,0.00112324
5977.37404907,0.00115564
5979.30285645,0.00113384
5981.23166382,0.00108331
5983.16047119,0.00109230
5985.08927856,0.00109072
5987.01808594,0.00112457
5988.94689331,0.00112046
5990.87570068,0.00109736
5992.80450806,0.00114011
5994.73331543,0.00110368
5996.66212280,0.00111885
5998.59093018,0.00114282
6000.51973755,0.00108714
