399.26312622,0.00006350
401.19193359,0.00044558
403.12074097,0.00029211
405.04954834,0.00042456
406.97835571,0.00040382
408.90716309,0.00020027
410.83597046,0.00095390
412.76477783,0.00063525
414.69358521,0.00058393
416.62239258,0.00064349
418.55119995,0.00014971
420.48000732,0.00029948
422.40881470,0.00076149
424.33762207,0.00052012
426.26642944,0.00004469
428.19523682,0.00043120
430.12404419,0.00040815
432.05285156,0.00042827
433.98165894,0.00049111
435.91046631,0.00023969
437.83927368,0.00048374
439.76808105,0.00042934
441.69688843,0.00052880
443.62569580,0.00025675
445.55450317,0.00020270
447.48331055,0.00069089
449.41211792,0.00047052
451.34092529,0.00030076
453.26973267,0.00037972
455.19854004,0.00067545
457.12734741,0.00052070
459.05615479,0.00029634
460.98496216,0.00045311
462.91376953,0.00031285
464.84257690,0.00030769
466.77138428,0.00047227
468.70019165,0.00024210
470.62899902,0.00018913
472.55780640,0.00037427
474.48661377,0.00017585
476.41542114,0.00039175
478.34422852,0.00016333
480.27303589,-0.00003689
482.20184326,0.00026453
484.13065063,0.00011486
486.05945801,0.00017879
487.98826538,0.00019223
489.91707275,-0.00000785
491.84588013,-0.00026678
493.77468750,0.00016849
495.70349487,0.00046744
497.63230225,0.00029805
499.56110962,0.00002606
501.48991699,-0.00002603
503.41872437,0.00055136
505.34753174,0.00053084
507.27633911,0.00036795
509.20514648,0.00014936
511.13395386,0.00006951
513.06276123,0.00022197
514.99156860,0.00001704
516.92037598,0.00009779
518.84918335,-0.00011246
520.77799072,0.00010473
522.70679810,0.00013845
524.63560547,-0.00006793
526.56441284,0.00029865
528.49322021,-0.00009499
530.42202759,-0.00034856
532.35083496,0.00013034
534.27964233,0.00013563
536.20844971,0.00005611
538.13725708,0.00043123
540.06606445,0.00003677
541.99487183,0.00006885
543.92367920,0.00024345
545.85248657,0.00000209
547.78129395,0.00044222
549.71010132,0.00020987
551.63890869,0.00025555
553.56771606,0.00034183
555.49652344,0.00008162
557.42533081,0.00024299
559.35413818,0.00043829
561.28294556,0.00038598
563.21175293,-0.00010046
565.14056030,0.00033723
567.06936768,0.00023507
568.99817505,0.00008838
570.92698242,0.00030520
572.85578979,-0.00014581
574.78459717,0.00022956
576.71340454,0.00001733
578.64221191,-0.00001763
580.57101929,0.00018054
582.49982666,-0.00000023
584.42863403,0.00042014
586.35744141,0.00036380
588.28624878,0.00011671
590.21505615,-0.00004942
592.14386353,0.00029470
594.07267090,0.00037151
596.00147827,-0.00008532
597.93028564,-0.00007371
599.85909302,0.00000027
601.78790039,-0.00012132
603.71670776,-0.00040763
605.64551514,0.00025388
607.57432251,0.00036946
609.50312988,0.00017398
611.43193726,0.00030175
613.36074463,-0.00013024
615.28955200,0.00027418
617.21835938,0.00044799
619.14716675,0.00021507
621.07597412,0.00036351
623.00478149,-0.00011375
624.93358887,-0.00008799
626.86239624,0.00030270
628.79120361,-0.00014459
630.72001099,0.00025780
632.64881836,0.00063422
634.57762573,0.00048391
636.50643311,0.00031842
638.43524048,0.00021010
640.36404785,0.00056219
642.29285522,0.00053035
644.22166260,0.00049478
646.15046997,0.00040741
648.07927734,0.00075636
650.00808472,0.00081455
651.93689209,0.00085448
653.86569946,0.00120959
655.79450684,0.00061864
657.72331421,0.00097024
659.65212158,0.00080002
661.58092896,0.00064866
663.50973633,0.00131778
665.43854370,0.00083923
667.36735107,0.00077799
669.29615845,0.00074428
671.22496582,0.00127461
673.15377319,0.00149983
675.08258057,0.00102412
677.01138794,0.00148793
678.94019531,0.00129375
680.86900269,0.00129272
682.79781006,0.00138876
684.72661743,0.00113932
686.65542480,0.00144613
688.58423218,0.00148324
690.51303955,0.00120405
692.44184692,0.00116584
694.37065430,0.00160493
696.29946167,0.00165538
698.22826904,0.00156880
700.15707642,0.00196404
702.08588379,0.00213871
704.01469116,0.00199380
705.94349854,0.00153456
707.87230591,0.00102494
709.80111328,0.00092653
711.72992065,0.00078805
713.65872803,0.00043515
715.58753540,0.00043765
717.51634277,0.00026642
719.44515015,-0.00008878
721.37395752,-0.00016981
723.30276489,-0.00022119
725.23157227,-0.00008626
727.16037964,0.00014029
729.08918701,0.00018125
731.01799438,-0.00009538
732.94680176,0.00004406
734.87560913,-0.00004042
736.80441650,-0.00009730
738.73322388,0.00040076
740.66203125,-0.00001394
742.59083862,0.00003999
744.51964600,0.00014305
746.44845337,-0.00021553
748.37726074,0.00024524
750.30606812,0.00018791
752.23487549,0.00029902
754.16368286,0.00039346
756.09249023,0.00005240
758.02129761,0.00006390
759.95010498,-0.00009337
761.87891235,0.00004925
763.80771973,0.00013398
765.73652710,0.00022306
767.66533447,0.00034000
769.59414185,0.00021745
771.52294922,0.00007535
773.45175659,0.00002624
775.38056396,0.00010399
777.30937134,0.00008666
779.23817871,0.00026996
781.16698608,0.00021161
783.09579346,0.00024305
785.02460083,0.00026263
786.95340820,-0.00002436
788.88221558,0.00004827
790.81102295,0.00025217
792.73983032,0.00020772
794.66863770,0.00026085
796.59744507,0.00030713
798.52625244,0.00007261
800.45505981,0.00009594
802.38386719,0.00013763
804.31267456,0.00010373
806.24148193,0.00019082
808.17028931,0.00030658
810.09909668,0.00035207
812.02790405,0.00004713
813.95671143,0.00020664
815.88551880,0.00038275
817.81432617,0.00016916
819.74313354,0.00000343
821.67194092,0.00007525
823.60074829,0.00039779
825.52955566,0.00025835
827.45836304,0.00040134
829.38717041,0.00039050
831.31597778,0.00027953
833.24478516,0.00061839
835.17359253,0.00040977
837.10239990,0.00049735
839.03120728,0.00063990
840.96001465,0.00054406
842.88882202,0.00049811
844.81762939,0.00052312
846.74643677,0.00072865
848.67524414,0.00036449
850.60405151,0.00025153
852.53285889,0.00048903
854.46166626,0.00043978
856.39047363,0.00036894
858.31928101,0.00018876
860.24808838,0.00015172
862.17689575,0.00023062
864.10570313,0.00022861
866.03451050,0.00021860
867.96331787,0.00006570
869.89212524,0.00031178
871.82093262,0.00081315
873.74973999,0.00029825
875.67854736,-0.00000816
877.60735474,0.00031975
879.53616211,0.00020075
881.46496948,0.00018727
883.39377686,0.00015105
885.32258423,0.00022985
887.25139160,0.00019154
889.18019897,0.00021701
891.10900635,0.00049915
893.03781372,0.00025314
894.96662109,0.00020556
896.89542847,0.00016658
898.82423584,0.00012837
900.75304321,0.00031255
902.68185059,0.00043817
904.61065796,0.00033036
906.53946533,0.00011596
908.46827271,0.00017741
910.39708008,0.00009101
912.32588745,0.00042546
914.25469482,0.00054624
916.18350220,0.00024579
918.11230957,0.00027528
920.04111694,0.00020040
921.96992432,0.00045637
923.89873169,0.00064690
925.82753906,0.00072000
927.75634644,0.00070034
929.68515381,0.00053399
931.61396118,0.00071451
933.54276855,0.00077391
935.47157593,0.00072685
937.40038330,0.00073511
939.32919067,0.00085734
941.25799805,0.00077408
943.18680542,0.00077414
945.11561279,0.00092569
947.04442017,0.00080104
948.97322754,0.00084825
950.90203491,0.00073849
952.83084229,0.00081652
954.75964966,0.00076933
956.68845703,0.00068877
958.61726440,0.00095451
960.54607178,0.00051348
962.47487915,0.00054776
964.40368652,0.00084350
966.33249390,0.00061038
968.26130127,0.00067735
970.19010864,0.00078718
972.11891602,0.00094863
974.04772339,0.00102833
975.97653076,0.00094564
977.90533813,0.00119108
979.83414551,0.00142444
981.76295288,0.00113252
983.69176025,0.00133817
985.62056763,0.00172963
987.54937500,0.00172657
989.47818237,0.00212657
991.40698975,0.00224631
993.33579712,0.00257026
995.26460449,0.00281508
997.19341187,0.00269329
999.12221924,0.00295419
1001.05102661,0.00301185
1002.97983398,0.00353364
1004.90864136,0.00385248
1006.83744873,0.00391053
1008.76625610,0.00414680
1010.69506348,0.00419748
1012.62387085,0.00481711
1014.55267822,0.00511094
1016.48148560,0.00525273
1018.41029297,0.00554042
1020.33910034,0.00573625
1022.26790771,0.00606811
1024.19671509,0.00629833
1026.12552246,0.00663290
1028.05432983,0.00667896
1029.98313721,0.00682289
1031.91194458,0.00688869
1033.84075195,0.00712479
1035.76955933,0.00750481
1037.69836670,0.00722971
1039.62717407,0.00746446
1041.55598145,0.00749901
1043.48478882,0.00736947
1045.41359619,0.00734384
1047.34240356,0.00707730
1049.27121094,0.00716323
1051.20001831,0.00674915
1053.12882568,0.00671475
1055.05763306,0.00676893
1056.98644043,0.00647718
1058.91524780,0.00661897
1060.84405518,0.00622254
1062.77286255,0.00603711
1064.70166992,0.00593494
1066.63047729,0.00549990
1068.55928467,0.00543833
1070.48809204,0.00527220
1072.41689941,0.00501359
1074.34570679,0.00476912
1076.27451416,0.00460785
1078.20332153,0.00432128
1080.13212891,0.00401626
1082.06093628,0.00415315
1083.98974365,0.00393293
1085.91855103,0.00346951
1087.84735840,0.00348352
1089.77616577,0.00335737
1091.70497314,0.00312043
1093.63378052,0.00308320
1095.56258789,0.00293444
1097.49139526,0.00292665
1099.42020264,0.00283672
1101.34901001,0.00267678
1103.27781738,0.00282573
1105.20662476,0.00271807
1107.13543213,0.00254454
1109.06423950,0.00266355
1110.99304687,0.00260419
1112.92185425,0.00255884
1114.85066162,0.00263900
1116.77946899,0.00249290
1118.70827637,0.00239980
1120.63708374,0.00244661
1122.56589111,0.00265056
1124.49469849,0.00265716
1126.42350586,0.00257575
1128.35231323,0.00289222
1130.28112061,0.00261513
1132.20992798,0.00272765
1134.13873535,0.00324077
1136.06754272,0.00289816
1137.99635010,0.00316176
1139.92515747,0.00349836
1141.85396484,0.00357945
1143.78277222,0.00390443
1145.71157959,0.00393892
1147.64038696,0.00417214
1149.56919434,0.00447635
1151.49800171,0.00474370
1153.42680908,0.00492538
1155.35561646,0.00504049
1157.28442383,0.00533908
1159.21323120,0.00567517
1161.14203857,0.00582864
1163.07084595,0.00583026
1164.99965332,0.00615212
1166.92846069,0.00646365
1168.85726807,0.00677061
1170.78607544,0.00704031
1172.71488281,0.00714954
1174.64369019,0.00752085
1176.57249756,0.00777754
1178.50130493,0.00788725
1180.43011230,0.00820141
1182.35891968,0.00878497
1184.28772705,0.00900357
1186.21653442,0.00939646
1188.14534180,0.01018257
1190.07414917,0.01016762
1192.00295654,0.01075177
1193.93176392,0.01159164
1195.86057129,0.01180799
1197.78937866,0.01262776
1199.71818604,0.01314102
1201.64699341,0.01360011
1203.57580078,0.01437090
1205.50460815,0.01462870
1207.43341553,0.01514009
1209.36222290,0.01576184
1211.29103027,0.01608386
1213.21983765,0.01666280
1215.14864502,0.01725085
1217.07745239,0.01751263
1219.00625977,0.01782601
1220.93506714,0.01817480
1222.86387451,0.01817652
1224.79268188,0.01821356
1226.72148926,0.01857578
1228.65029663,0.01873062
1230.57910400,0.01874372
1232.50791138,0.01883070
1234.43671875,0.01886266
1236.36552612,0.01894469
1238.29433350,0.01883155
1240.22314087,0.01880541
1242.15194824,0.01889235
1244.08075562,0.01862537
1246.00956299,0.01856123
1247.93837036,0.01855599
1249.86717773,0.01822501
1251.79598511,0.01797802
1253.72479248,0.01794074
1255.65359985,0.01781743
1257.58240723,0.01751491
1259.51121460,0.01749340
1261.44002197,0.01730847
1263.36882935,0.01674843
1265.29763672,0.01670531
1267.22644409,0.01660851
1269.15525146,0.01611255
1271.08405884,0.01611538
1273.01286621,0.01595609
1274.94167358,0.01544622
1276.87048096,0.01540319
1278.79928833,0.01514602
1280.72809570,0.01478922
1282.65690308,0.01461528
1284.58571045,0.01414873
1286.51451782,0.01383806
1288.44332520,0.01364898
1290.37213257,0.01353262
1292.30093994,0.01346016
1294.22974731,0.01333336
1296.15855469,0.01340455
1298.08736206,0.01336431
1300.01616943,0.01331457
1301.94497681,0.01344134
1303.87378418,0.01368704
1305.80259155,0.01385875
1307.73139893,0.01386099
1309.66020630,0.01396699
1311.58901367,0.01413792
1313.51782104,0.01460487
1315.44662842,0.01506355
1317.37543579,0.01519979
1319.30424316,0.01567300
1321.23305054,0.01636788
1323.16185791,0.01667954
1325.09066528,0.01698113
1327.01947266,0.01768394
1328.94828003,0.01815650
1330.87708740,0.01849676
1332.80589478,0.01905837
1334.73470215,0.01940425
1336.66350952,0.01952235
1338.59231689,0.01941072
1340.52112427,0.01967197
1342.44993164,0.02034264
1344.37873901,0.02051949
1346.30754639,0.02063027
1348.23635376,0.02059558
1350.16516113,0.02038465
1352.09396851,0.02047237
1354.02277588,0.02028818
1355.95158325,0.02004490
1357.88039062,0.02006479
1359.80919800,0.01985967
1361.73800537,0.01876094
1363.66681274,0.01837587
1365.59562012,0.01939921
1367.52442749,0.01907793
1369.45323486,0.01898664
1371.38204224,0.01918736
1373.31084961,0.01820251
1375.23965698,0.01848355
1377.16846436,0.01881209
1379.09727173,0.01882259
1381.02607910,0.01877573
1382.95488647,0.01860422
1384.88369385,0.01887618
1386.81250122,0.01786176
1388.74130859,0.01798802
1390.67011597,0.01975594
1392.59892334,0.01925068
1394.52773071,0.01786159
1396.45653809,0.01882735
1398.38534546,0.01902254
1400.31415283,0.01864071
1402.24296021,0.02009885
1404.17176758,0.01930116
1406.10057495,0.01929944
1408.02938232,0.02025962
1409.95818970,0.01962325
1411.88699707,0.01974728
1413.81580444,0.01900585
1415.74461182,0.01932212
1417.67341919,0.01758042
1419.60222656,0.01573965
1421.53103394,0.01809749
1423.45984131,0.01770720
1425.38864868,0.01710622
1427.31745605,0.01739173
1429.24626343,0.01612300
1431.17507080,0.01550415
1433.10387817,0.01577771
1435.03268555,0.01445209
1436.96149292,0.01225050
1438.89030029,0.01393566
1440.81910767,0.01430334
1442.74791504,0.01337505
1444.67672241,0.01414006
1446.60552979,0.01304697
1448.53433716,0.01326743
1450.46314453,0.01361952
1452.39195190,0.01365552
1454.32075928,0.01435185
1456.24956665,0.01218603
1458.17837402,0.01234715
1460.10718140,0.01636655
1462.03598877,0.01759347
1463.96479614,0.01741874
1465.89360352,0.01825863
1467.82241089,0.02046692
1469.75121826,0.02215060
1471.68002563,0.01991031
1473.60883301,0.02061313
1475.53764038,0.02368152
1477.46644775,0.02539853
1479.39525513,0.02780883
1481.32406250,0.02818688
1483.25286987,0.02999379
1485.18167725,0.03107205
1487.11048462,0.03038292
1489.03929199,0.03052777
1490.96809937,0.03071146
1492.89690674,0.03538940
1494.82571411,0.03487242
1496.75452148,0.03137527
1498.68332886,0.03521192
1500.61213623,0.03635357
1502.54094360,0.03886617
1504.46975098,0.03706223
1506.39855835,0.02746070
1508.32736572,0.03293434
1510.25617310,0.03860544
1512.18498047,0.03743597
1514.11378784,0.04068387
1516.04259521,0.03689884
1517.97140259,0.03818768
1519.90020996,0.03727219
1521.82901733,0.03225267
1523.75782471,0.03929788
1525.68663208,0.03873500
1527.61543945,0.03829409
1529.54424683,0.04253639
1531.47305420,0.04093583
1533.40186157,0.03774274
1535.33066895,0.03954782
1537.25947632,0.04246392
1539.18828369,0.03115014
1541.11709106,0.03192960
1543.04589844,0.03853308
1544.97470581,0.03686338
1546.90351318,0.04331698
1548.83232056,0.04074248
1550.76112793,0.04164886
1552.68993530,0.04172697
1554.61874268,0.03785162
1556.54755005,0.04064447
1558.47635742,0.02925549
1560.40516479,0.03101956
1562.33397217,0.04393014
1564.26277954,0.04170721
1566.19158691,0.04267593
1568.12039429,0.04243551
1570.04920166,0.03780674
1571.97800903,0.04317237
1573.90681641,0.04408808
1575.83562378,0.03524604
1577.76443115,0.03919233
1579.69323853,0.04449974
1581.62204590,0.04274695
1583.55085327,0.04375960
1585.47966064,0.04314315
1587.40846802,0.04346443
1589.33727539,0.04304203
1591.26608276,0.04302711
1593.19489014,0.04327777
1595.12369751,0.04277251
1597.05250488,0.04346255
1598.98131226,0.04313718
1600.91011963,0.04327142
1602.83892700,0.04253166
1604.76773437,0.04346569
1606.69654175,0.04284293
1608.62534912,0.04271787
1610.55415649,0.04293623
1612.48296387,0.04283817
1614.41177124,0.04376825
1616.34057861,0.03619285
1618.26938599,0.03870841
1620.19819336,0.04514877
1622.12700073,0.04015638
1624.05580811,0.04055766
1625.98461548,0.04243886
1627.91342285,0.04220905
1629.84223022,0.04207776
1631.77103760,0.04472327
1633.69984497,0.04169368
1635.62865234,0.03440142
1637.55745972,0.03973795
1639.48626709,0.04378524
1641.41507446,0.04274938
1643.34388184,0.04405257
1645.27268921,0.03989033
1647.20149658,0.03515495
1649.13030396,0.04327141
1651.05911133,0.04164899
1652.98791870,0.02721290
1654.91672607,0.03586441
1656.84553345,0.04508522
1658.77434082,0.04318755
1660.70314819,0.04471705
1662.63195557,0.04070815
1664.56076294,0.04251328
1666.48957031,0.04581710
1668.41837769,0.04029967
1670.34718506,0.03909630
1672.27599243,0.04410389
1674.20479980,0.04108659
1676.13360718,0.03912000
1678.06241455,0.04490864
1679.99122192,0.04347569
1681.92002930,0.04305322
1683.84883667,0.03568178
1685.77764404,0.03459902
1687.70645142,0.04716785
1689.63525879,0.04139620
1691.56406616,0.04507438
1693.49287354,0.04655918
1695.42168091,0.03407486
1697.35048828,0.04171400
1699.27929565,0.03723241
1701.20810303,0.03307618
1703.13691040,0.04507605
1705.06571777,0.04155131
1706.99452515,0.04136980
1708.92333252,0.04519705
1710.85213989,0.04352348
1712.78094727,0.04428502
1714.70975464,0.04149771
1716.63856201,0.03734780
1718.56736938,0.03653047
1720.49617676,0.04306836
1722.42498413,0.04491587
1724.35379150,0.04174198
1726.28259888,0.04530829
1728.21140625,0.04207991
1730.14021362,0.04221104
1732.06902100,0.04155342
1733.99782837,0.03186090
1735.92663574,0.03881858
1737.85544312,0.04339409
1739.78425049,0.03860939
1741.71305786,0.04188524
1743.64186523,0.04269633
1745.57067261,0.04240080
1747.49947998,0.04284015
1749.42828735,0.04122604
1751.35709473,0.03941435
1753.28590210,0.04342014
1755.21470947,0.04571543
1757.14351685,0.04185906
1759.07232422,0.04572700
1761.00113159,0.04333153
1762.92993896,0.04159525
1764.85874634,0.04760742
1766.78755371,0.04306273
1768.71636108,0.04315330
1770.64516846,0.04330762
1772.57397583,0.03896558
1774.50278320,0.04323221
1776.43159058,0.04571745
1778.36039795,0.04501449
1780.28920532,0.04450647
1782.21801270,0.04489090
1784.14682007,0.04496791
1786.07562744,0.04405234
1788.00443481,0.04631511
1789.93324219,0.04534958
1791.86204956,0.04119501
1793.79085693,0.04271993
1795.71966431,0.04571728
1797.64847168,0.04527085
1799.57727905,0.04453973
1801.50608643,0.04380905
1803.43489380,0.04511609
1805.36370117,0.04626713
1807.29250854,0.04562045
1809.22131592,0.04567995
1811.15012329,0.04474055
1813.07893066,0.04594369
1815.00773804,0.04630034
1816.93654541,0.04576593
1818.86535278,0.04613132
1820.79416016,0.04598594
1822.72296753,0.04653446
1824.65177490,0.04389170
1826.58058228,0.04525284
1828.50938965,0.04535577
1830.43819702,0.04266682
1832.36700439,0.04624473
1834.29581177,0.04610099
1836.22461914,0.04587653
1838.15342651,0.04588894
1840.08223389,0.04614480
1842.01104126,0.04626543
1843.93984863,0.04128811
1845.86865601,0.04374168
1847.79746338,0.04629631
1849.72627075,0.04534543
1851.65507812,0.04666647
1853.58388550,0.04580085
1855.51269287,0.04625396
1857.44150024,0.04587822
1859.37030762,0.04556679
1861.29911499,0.04610328
1863.22792236,0.04553010
1865.15672974,0.04601825
1867.08553711,0.04458160
1869.01434448,0.04275575
1870.94315186,0.04441205
1872.87195923,0.04623519
1874.80076660,0.04552086
1876.72957397,0.04561546
1878.65838135,0.04561851
1880.58718872,0.04530454
1882.51599609,0.04582020
1884.44480347,0.04503655
1886.37361084,0.04559220
1888.30241821,0.04497375
1890.23122559,0.04395933
1892.16003296,0.04556132
1894.08884033,0.04501297
1896.01764771,0.04476298
1897.94645508,0.04540252
1899.87526245,0.04513066
1901.80406982,0.04522577
1903.73287720,0.04484795
1905.66168457,0.04505958
1907.59049194,0.04480646
1909.51929932,0.04464599
1911.44810669,0.04493837
1913.37691406,0.04484542
1915.30572144,0.04539717
1917.23452881,0.04354220
1919.16333618,0.04344968
1921.09214355,0.04510240
1923.02095093,0.04378610
1924.94975830,0.04471788
1926.87856567,0.04504419
1928.80737305,0.04454742
1930.73618042,0.04521944
1932.66498779,0.04456640
1934.59379517,0.04494338
1936.52260254,0.04454060
1938.45140991,0.04476577
1940.38021729,0.04480027
1942.30902466,0.04351100
1944.23783203,0.04437356
1946.16663940,0.04458325
1948.09544678,0.04460301
1950.02425415,0.04473960
1951.95306152,0.04454996
1953.88186890,0.04485572
1955.81067627,0.04475117
1957.73948364,0.04483791
1959.66829102,0.04471172
1961.59709839,0.04465333
1963.52590576,0.04477265
1965.45471313,0.04465982
1967.38352051,0.04425589
1969.31232788,0.04458603
1971.24113525,0.04492357
1973.16994263,0.04452847
1975.09875000,0.04477857
1977.02755737,0.04438838
1978.95636475,0.04462268
1980.88517212,0.04491800
1982.81397949,0.04440874
1984.74278687,0.04455604
1986.67159424,0.04431870
1988.60040161,0.04450818
1990.52920898,0.04402757
1992.45801636,0.04348541
1994.38682373,0.04417013
1996.31563110,0.04427082
1998.24443848,0.04424567
2000.17324585,0.04417537
2002.10205322,0.04410894
2004.03086060,0.04409882
2005.95966797,0.04399521
2007.88847534,0.04395434
2009.81728271,0.04381597
2011.74609009,0.04379249
2013.67489746,0.04388199
2015.60370483,0.04361980
2017.53251221,0.04324955
2019.46131958,0.04350263
2021.39012695,0.04345320
2023.31893433,0.04327703
2025.24774170,0.04342096
2027.17654907,0.04335318
2029.10535645,0.04327814
2031.03416382,0.04317322
2032.96297119,0.04321944
2034.89177856,0.04311666
2036.82058594,0.04292930
2038.74939331,0.04285873
2040.67820068,0.04285865
2042.60700806,0.04287416
2044.53581543,0.04274211
2046.46462280,0.04279708
2048.39343018,0.04264887
2050.32223755,0.04243583
2052.25104492,0.04249109
2054.17985229,0.04251637
2056.10865967,0.04250179
2058.03746704,0.04248108
2059.96627441,0.04231191
2061.89508179,0.04225932
2063.82388916,0.04226405
2065.75269653,0.04195941
2067.68150391,0.04204712
2069.61031128,0.04210512
2071.53911865,0.04196753
2073.46792603,0.04198807
2075.39673340,0.04194373
2077.32554077,0.04190987
2079.25434814,0.04180425
2081.18315552,0.04185753
2083.11196289,0.04164706
2085.04077026,0.04169315
2086.96957764,0.04180241
2088.89838501,0.04158977
2090.82719238,0.04163748
2092.75599976,0.04145443
2094.68480713,0.04146207
2096.61361450,0.04125196
2098.54242187,0.04120306
2100.47122925,0.04130044
2102.40003662,0.04108928
2104.32884399,0.04123782
2106.25765137,0.04109878
2108.18645874,0.04118236
2110.11526611,0.04111727
2112.04407349,0.04097837
2113.97288086,0.04099864
2115.90168823,0.04082977
2117.83049561,0.04096995
2119.75930298,0.04084199
2121.68811035,0.04088640
2123.61691772,0.04077949
2125.54572510,0.04075474
2127.47453247,0.04086538
2129.40333984,0.04066651
2131.33214722,0.04081212
2133.26095459,0.04068551
2135.18976196,0.04063546
2137.11856934,0.04057264
2139.04737671,0.04061180
2140.97618408,0.04069646
2142.90499146,0.04060535
2144.83379883,0.04065803
2146.76260620,0.04040485
2148.69141357,0.04055231
2150.62022095,0.04043973
2152.54902832,0.04031067
2154.47783569,0.04050131
2156.40664307,0.04033422
2158.33545044,0.04034680
2160.26425781,0.04019325
2162.19306519,0.04024816
2164.12187256,0.04022442
2166.05067993,0.04015495
2167.97948730,0.04030202
2169.90829468,0.04012608
2171.83710205,0.04007750
2173.76590942,0.04001691
2175.69471680,0.04011358
2177.62352417,0.04017339
2179.55233154,0.03998435
2181.48113892,0.04005898
2183.40994629,0.04011202
2185.33875366,0.03982921
2187.26756104,0.03979361
2189.19636841,0.04002088
2191.12517578,0.03984830
2193.05398315,0.03980232
2194.98279053,0.03984845
2196.91159790,0.03974853
2198.84040527,0.03979696
2200.76921265,0.03983504
2202.69802002,0.03969859
2204.62682739,0.03964456
2206.55563477,0.03974411
2208.48444214,0.03961993
2210.41324951,0.03968699
2212.34205688,0.03959556
2214.27086426,0.03942814
2216.19967163,0.03956321
2218.12847900,0.03949015
2220.05728638,0.03944693
2221.98609375,0.03940259
2223.91490112,0.03957586
2225.84370850,0.03950091
2227.77251587,0.03922099
2229.70132324,0.03927926
2231.63013062,0.03920028
2233.55893799,0.03913873
2235.48774536,0.03904833
2237.41655273,0.03917553
2239.34536011,0.03919973
2241.27416748,0.03904419
2243.20297485,0.03903357
2245.13178223,0.03894136
2247.06058960,0.03896025
2248.98939697,0.03883647
2250.91820435,0.03891770
2252.84701172,0.03883929
2254.77581909,0.03872036
2256.70462646,0.03899719
2258.63343384,0.03879057
2260.56224121,0.03866268
2262.49104858,0.03868970
2264.41985596,0.03869550
2266.34866333,0.03874499
2268.27747070,0.03862689
2270.20627808,0.03868178
2272.13508545,0.03862721
2274.06389282,0.03848012
2275.99270020,0.03847200
2277.92150757,0.03856635
2279.85031494,0.03858866
2281.77912231,0.03843972
2283.70792969,0.03844708
2285.63673706,0.03839422
2287.56554443,0.03829968
2289.49435181,0.03834931
2291.42315918,0.03814904
2293.35196655,0.03805874
2295.28077393,0.03805691
2297.20958130,0.03781076
2299.13838867,0.03788828
2301.06719604,0.03785704
2302.99600342,0.03755787
2304.92481079,0.03742976
2306.85361816,0.03721607
2308.78242554,0.03694653
2310.71123291,0.03665446
2312.64004028,0.03641038
2314.56884766,0.03618276
2316.49765503,0.03581667
2318.42646240,0.03535990
2320.35526978,0.03502939
2322.28407715,0.03459731
2324.21288452,0.03407323
2326.14169189,0.03382041
2328.07049927,0.03323972
2329.99930664,0.03276554
2331.92811401,0.03278372
2333.85692139,0.03268465
2335.78572876,0.03250077
2337.71453613,0.03250335
2339.64334351,0.03263807
2341.57215088,0.03264657
2343.50095825,0.03297757
2345.42976562,0.03363509
2347.35857300,0.03499917
2349.28738037,0.03604411
2351.21618774,0.03494259
2353.14499512,0.03342536
2355.07380249,0.03222975
2357.00260986,0.03128816
2358.93141724,0.03087109
2360.86022461,0.03038955
2362.78903198,0.03034709
2364.71783936,0.03055057
2366.64664673,0.03086300
2368.57545410,0.03150924
2370.50426147,0.03213010
2372.43306885,0.03302548
2374.36187622,0.03409084
2376.29068359,0.03478739
2378.21949097,0.03549916
2380.14829834,0.03616244
2382.07710571,0.03652506
2384.00591309,0.03684488
2385.93472046,0.03685342
2387.86352783,0.03691983
2389.79233521,0.03689380
2391.72114258,0.03671386
2393.64994995,0.03687131
2395.57875732,0.03678442
2397.50756470,0.03674719
2399.43637207,0.03681174
2401.36517944,0.03672436
2403.29398682,0.03673445
2405.22279419,0.03670077
2407.15160156,0.03663185
2409.08040894,0.03654093
2411.00921631,0.03646916
2412.93802368,0.03650900
2414.86683105,0.03662651
2416.79563843,0.03649710
2418.72444580,0.03639665
2420.65325317,0.03641362
2422.58206055,0.03633197
2424.51086792,0.03636123
2426.43967529,0.03626362
2428.36848267,0.03623510
2430.29729004,0.03629797
2432.22609741,0.03627449
2434.15490479,0.03621324
2436.08371216,0.03623386
2438.01251953,0.03623488
2439.94132690,0.03611535
2441.87013428,0.03618784
2443.79894165,0.03605370
2445.72774902,0.03602864
2447.65655640,0.03603683
2449.58536377,0.03588993
2451.51417114,0.03601668
2453.44297852,0.03595014
2455.37178589,0.03589984
2457.30059326,0.03589187
2459.22940063,0.03590909
2461.15820801,0.03577010
2463.08701538,0.03558289
2465.01582275,0.03573181
2466.94463013,0.03575312
2468.87343750,0.03580122
2470.80224487,0.03568665
2472.73105225,0.03569820
2474.65985962,0.03573252
2476.58866699,0.03553191
2478.51747437,0.03560424
2480.44628174,0.03552848
2482.37508911,0.03547369
2484.30389648,0.03542995
2486.23270386,0.03540631
2488.16151123,0.03537741
2490.09031860,0.03526092
2492.01912598,0.03538662
2493.94793335,0.03541841
2495.87674072,0.03537663
2497.80554810,0.03526462
2499.73435547,0.03524825
2501.66316284,0.03520481
2503.59197021,0.03511905
2505.52077759,0.03515573
2507.44958496,0.03507157
2509.37839233,0.03517410
2511.30719971,0.03505316
2513.23600708,0.03493275
2515.16481445,0.03507826
2517.09362183,0.03494484
2519.02242920,0.03490806
2520.95123657,0.03497474
2522.88004395,0.03490742
2524.80885132,0.03491228
2526.73765869,0.03494669
2528.66646606,0.03484595
2530.59527344,0.03486762
2532.52408081,0.03478657
2534.45288818,0.03466650
2536.38169556,0.03484584
2538.31050293,0.03472392
2540.23931030,0.03459910
2542.16811768,0.03471179
2544.09692505,0.03463175
2546.02573242,0.03455066
2547.95453979,0.03462544
2549.88334717,0.03459357
2551.81215454,0.03449794
2553.74096191,0.03455580
2555.66976929,0.03448915
2557.59857666,0.03443438
2559.52738403,0.03445055
2561.45619141,0.03437489
2563.38499878,0.03428383
2565.31380615,0.03423807
2567.24261353,0.03428054
2569.17142090,0.03418182
2571.10022827,0.03410021
2573.02903564,0.03415427
2574.95784302,0.03416378
2576.88665039,0.03412376
2578.81545776,0.03421106
2580.74426514,0.03425663
2582.67307251,0.03404317
2584.60187988,0.03400590
2586.53068726,0.03404681
2588.45949463,0.03402222
2590.38830200,0.03395608
2592.31710937,0.03382028
2594.24591675,0.03384768
2596.17472412,0.03381843
2598.10353149,0.03372864
2600.03233887,0.03384113
2601.96114624,0.03380496
2603.88995361,0.03357179
2605.81876099,0.03367550
2607.74756836,0.03375057
2609.67637573,0.03366800
2611.60518311,0.03364335
2613.53399048,0.03349474
2615.46279785,0.03352810
2617.39160522,0.03354054
2619.32041260,0.03348988
2621.24921997,0.03350778
2623.17802734,0.03342225
2625.10683472,0.03332997
2627.03564209,0.03339661
2628.96444946,0.03347579
2630.89325684,0.03329860
2632.82206421,0.03334325
2634.75087158,0.03332463
2636.67967895,0.03328320
2638.60848633,0.03332166
2640.53729370,0.03305098
2642.46610107,0.03314931
2644.39490845,0.03317259
2646.32371582,0.03308050
2648.25252319,0.03304876
2650.18133057,0.03291615
2652.11013794,0.03299952
2654.03894531,0.03289216
2655.96775269,0.03294504
2657.89656006,0.03299958
2659.82536743,0.03287856
2661.75417480,0.03285519
2663.68298218,0.03276293
2665.61178955,0.03282390
2667.54059692,0.03281502
2669.46940430,0.03279724
2671.39821167,0.03274169
2673.32701904,0.03262974
2675.25582642,0.03259550
2677.18463379,0.03247726
2679.11344116,0.03256485
2681.04224854,0.03259497
2682.97105591,0.03245526
2684.89986328,0.03252323
2686.82867065,0.03249417
2688.75747803,0.03230823
2690.68628540,0.03240038
2692.61509277,0.03247544
2694.54390015,0.03231834
2696.47270752,0.03224761
2698.40151489,0.03220251
2700.33032227,0.03224130
2702.25912964,0.03232425
2704.18793701,0.03225808
2706.11674438,0.03211713
2708.04555176,0.03206977
2709.97435913,0.03209038
2711.90316650,0.03203170
2713.83197388,0.03198311
2715.76078125,0.03197671
2717.68958862,0.03199168
2719.61839600,0.03198784
2721.54720337,0.03191905
2723.47601074,0.03176249
2725.40481812,0.03181124
2727.33362549,0.03187644
2729.26243286,0.03169154
2731.19124023,0.03180445
2733.12004761,0.03172175
2735.04885498,0.03160664
2736.97766235,0.03181876
2738.90646973,0.03157137
2740.83527710,0.03150899
2742.76408447,0.03162539
2744.69289185,0.03143556
2746.62169922,0.03143694
2748.55050659,0.03138380
2750.47931396,0.03130800
2752.40812134,0.03136885
2754.33692871,0.03134140
2756.26573608,0.03134032
2758.19454346,0.03128178
2760.12335083,0.03122798
2762.05215820,0.03121300
2763.98096558,0.03110250
2765.90977295,0.03111775
2767.83858032,0.03113286
2769.76738770,0.03102905
2771.69619507,0.03093335
2773.62500244,0.03095872
2775.55380981,0.03096103
2777.48261719,0.03083834
2779.41142456,0.03087515
2781.34023193,0.03075472
2783.26903931,0.03067150
2785.19784668,0.03077426
2787.12665405,0.03065967
2789.05546143,0.03065725
2790.98426880,0.03067337
2792.91307617,0.03058884
2794.84188354,0.03055967
2796.77069092,0.03052276
2798.69949829,0.03040585
2800.62830566,0.03041060
2802.55711304,0.03052425
2804.48592041,0.03039614
2806.41472778,0.03024603
2808.34353516,0.03012231
2810.27234253,0.03012802
2812.20114990,0.03021510
2814.12995728,0.03021749
2816.05876465,0.03015465
2817.98757202,0.02998910
2819.91637939,0.03000821
2821.84518677,0.03001205
2823.77399414,0.02996972
2825.70280151,0.02987539
2827.63160889,0.02984947
2829.56041626,0.02986709
2831.48922363,0.02971354
2833.41803101,0.02981466
2835.34683838,0.02969876
2837.27564575,0.02954767
2839.20445312,0.02957881
2841.13326050,0.02945673
2843.06206787,0.02943278
2844.99087524,0.02927454
2846.91968262,0.02911153
2848.84848999,0.02901835
2850.77729736,0.02899320
2852.70610474,0.02889941
2854.63491211,0.02883403
2856.56371948,0.02891925
2858.49252686,0.02880662
2860.42133423,0.02882344
2862.35014160,0.02882712
2864.27894897,0.02883642
2866.20775635,0.02875683
2868.13656372,0.02859455
2870.06537109,0.02872780
2871.99417847,0.02869024
2873.92298584,0.02867775
2875.85179321,0.02871424
2877.78060059,0.02861138
2879.70940796,0.02856121
2881.63821533,0.02857148
2883.56702270,0.02849616
2885.49583008,0.02837052
2887.42463745,0.02845310
2889.35344482,0.02841432
2891.28225220,0.02831278
2893.21105957,0.02824130
2895.13986694,0.02819864
2897.06867432,0.02822772
2898.99748169,0.02808975
2900.92628906,0.02799900
2902.85509644,0.02802054
2904.78390381,0.02804437
2906.71271118,0.02794703
2908.64151855,0.02783174
2910.57032593,0.02775335
2912.49913330,0.02763643
2914.42794067,0.02750674
2916.35674805,0.02740323
2918.28555542,0.02741477
2920.21436279,0.02728299
2922.14317017,0.02724227
2924.07197754,0.02730656
2926.00078491,0.02722461
2927.92959229,0.02717352
2929.85839966,0.02719284
2931.78720703,0.02725724
2933.71601440,0.02720196
2935.64482178,0.02716010
2937.57362915,0.02715661
2939.50243652,0.02722932
2941.43124390,0.02728084
2943.36005127,0.02721254
2945.28885864,0.02721130
2947.21766602,0.02715667
2949.14647339,0.02712410
2951.07528076,0.02703782
2953.00408813,0.02698961
2954.93289551,0.02692688
2956.86170288,0.02692648
2958.79051025,0.02690789
2960.71931763,0.02664400
2962.64812500,0.02670556
2964.57693237,0.02667992
2966.50573975,0.02658973
2968.43454712,0.02658498
2970.36335449,0.02656046
2972.29216187,0.02669049
2974.22096924,0.02662124
2976.14977661,0.02669049
2978.07858398,0.02670836
2980.00739136,0.02675797
2981.93619873,0.02679310
2983.86500610,0.02665917
2985.79381348,0.02676916
2987.72262085,0.02665753
2989.65142822,0.02668110
2991.58023560,0.02674582
2993.50904297,0.02663213
2995.43785034,0.02661150
2997.36665771,0.02655852
2999.29546509,0.02662439
3001.22427246,0.02664584
3003.15307983,0.02657206
3005.08188721,0.02634002
3007.01069458,0.02637993
3008.93950195,0.02644175
3010.86830933,0.02619854
3012.79711670,0.02628168
3014.72592407,0.02620808
3016.65473145,0.02609218
3018.58353882,0.02618252
3020.51234619,0.02611172
3022.44115356,0.02605634
3024.36996094,0.02606475
3026.29876831,0.02603395
3028.22757568,0.02594468
3030.15638306,0.02586430
3032.08519043,0.02583370
3034.01399780,0.02585012
3035.94280518,0.02577185
3037.87161255,0.02576723
3039.80041992,0.02570915
3041.72922729,0.02556650
3043.65803467,0.02565997
3045.58684204,0.02554544
3047.51564941,0.02545847
3049.44445679,0.02556123
3051.37326416,0.02546199
3053.30207153,0.02542439
3055.23087891,0.02540465
3057.15968628,0.02528795
3059.08849365,0.02535042
3061.01730103,0.02532839
3062.94610840,0.02517224
3064.87491577,0.02522533
3066.80372314,0.02512660
3068.73253052,0.02511339
3070.66133789,0.02517482
3072.59014526,0.02503964
3074.51895264,0.02507912
3076.44776001,0.02502028
3078.37656738,0.02501970
3080.30537476,0.02494609
3082.23418213,0.02472272
3084.16298950,0.02479562
3086.09179687,0.02482964
3088.02060425,0.02480076
3089.94941162,0.02477558
3091.87821899,0.02470984
3093.80702637,0.02468690
3095.73583374,0.02462940
3097.66464111,0.02443932
3099.59344849,0.02450078
3101.52225586,0.02464099
3103.45106323,0.02439663
3105.37987061,0.02439803
3107.30867798,0.02442473
3109.23748535,0.02427186
3111.16629272,0.02427475
3113.09510010,0.02422792
3115.02390747,0.02415613
3116.95271484,0.02411085
3118.88152222,0.02412227
3120.81032959,0.02406992
3122.73913696,0.02398803
3124.66794434,0.02390504
3126.59675171,0.02385460
3128.52555908,0.02380934
3130.45436645,0.02372701
3132.38317383,0.02377825
3134.31198120,0.02366897
3136.24078857,0.02365453
3138.16959595,0.02366751
3140.09840332,0.02344104
3142.02721069,0.02345002
3143.95601807,0.02349577
3145.88482544,0.02344197
3147.81363281,0.02337211
3149.74244019,0.02329786
3151.67124756,0.02323726
3153.60005493,0.02318733
3155.52886230,0.02325962
3157.45766968,0.02318156
3159.38647705,0.02308209
3161.31528442,0.02312144
3163.24409180,0.02291428
3165.17289917,0.02285813
3167.10170654,0.02294887
3169.03051392,0.02280918
3170.95932129,0.02287295
3172.88812866,0.02280420
3174.81693604,0.02262546
3176.74574341,0.02259438
3178.67455078,0.02249792
3180.60335815,0.02255992
3182.53216553,0.02254328
3184.46097290,0.02250280
3186.38978027,0.02242762
3188.31858765,0.02234354
3190.24739502,0.02227977
3192.17620239,0.02213375
3194.10500977,0.02218986
3196.03381714,0.02210519
3197.96262451,0.02207169
3199.89143188,0.02203505
3201.82023926,0.02198860
3203.74904663,0.02203599
3205.67785400,0.02189665
3207.60666138,0.02193046
3209.53546875,0.02182956
3211.46427612,0.02185092
3213.39308350,0.02178444
3215.32189087,0.02157697
3217.25069824,0.02183049
3219.17950562,0.02177628
3221.10831299,0.02164008
3223.03712036,0.02161501
3224.96592773,0.02164937
3226.89473511,0.02170591
3228.82354248,0.02150400
3230.75234985,0.02147040
3232.68115723,0.02148907
3234.60996460,0.02146370
3236.53877197,0.02143645
3238.46757935,0.02137607
3240.39638672,0.02137022
3242.32519409,0.02141284
3244.25400146,0.02132660
3246.18280884,0.02127822
3248.11161621,0.02138313
3250.04042358,0.02129375
3251.96923096,0.02125433
3253.89803833,0.02122749
3255.82684570,0.02119346
3257.75565308,0.02119427
3259.68446045,0.02120189
3261.61326782,0.02120523
3263.54207520,0.02110555
3265.47088257,0.02115041
3267.39968994,0.02107984
3269.32849731,0.02109565
3271.25730469,0.02108632
3273.18611206,0.02102405
3275.11491943,0.02113239
3277.04372681,0.02098156
3278.97253418,0.02103124
3280.90134155,0.02105566
3282.83014893,0.02092672
3284.75895630,0.02095002
3286.68776367,0.02098202
3288.61657104,0.02098024
3290.54537842,0.02085798
3292.47418579,0.02095309
3294.40299316,0.02098875
3296.33180054,0.02086111
3298.26060791,0.02081970
3300.18941528,0.02079908
3302.11822266,0.02077011
3304.04703003,0.02078669
3305.97583740,0.02082550
3307.90464478,0.02068882
3309.83345215,0.02065355
3311.76225952,0.02062202
3313.69106689,0.02064170
3315.61987427,0.02065182
3317.54868164,0.02055352
3319.47748901,0.02062048
3321.40629639,0.02058047
3323.33510376,0.02061731
3325.26391113,0.02060689
3327.19271851,0.02048353
3329.12152588,0.02046982
3331.05033325,0.02051004
3332.97914062,0.02054390
3334.90794800,0.02041638
3336.83675537,0.02034795
3338.76556274,0.02042083
3340.69437012,0.02052303
3342.62317749,0.02035708
3344.55198486,0.02032175
3346.48079224,0.02045192
3348.40959961,0.02027547
3350.33840698,0.02024623
3352.26721436,0.02026646
3354.19602173,0.02015042
3356.12482910,0.02007336
3358.05363647,0.02019429
3359.98244385,0.02011416
3361.91125122,0.02000086
3363.84005859,0.02010632
3365.76886597,0.01998495
3367.69767334,0.02000258
3369.62648071,0.01995343
3371.55528809,0.01993657
3373.48409546,0.01988799
3375.41290283,0.01985671
3377.34171020,0.01994660
3379.27051758,0.01969540
3381.19932495,0.01975114
3383.12813232,0.01971851
3385.05693970,0.01967163
3386.98574707,0.01977823
3388.91455444,0.01973695
3390.84336182,0.01963788
3392.77216919,0.01944906
3394.70097656,0.01960530
3396.62978394,0.01947719
3398.55859131,0.01949861
3400.48739868,0.01955023
3402.41620605,0.01931470
3404.34501343,0.01944264
3406.27382080,0.01938204
3408.20262817,0.01940224
3410.13143555,0.01933321
3412.06024292,0.01932001
3413.98905029,0.01928794
3415.91785767,0.01919232
3417.84666504,0.01936968
3419.77547241,0.01914027
3421.70427979,0.01907642
3423.63308716,0.01911343
3425.56189453,0.01912430
3427.49070190,0.01911953
3429.41950928,0.01900841
3431.34831665,0.01904289
3433.27712402,0.01895049
3435.20593140,0.01900920
3437.13473877,0.01903252
3439.06354614,0.01905307
3440.99235352,0.01892502
3442.92116089,0.01883705
3444.84996826,0.01887704
3446.77877563,0.01860439
3448.70758301,0.01872792
3450.63639038,0.01883259
3452.56519775,0.01874210
3454.49400513,0.01877731
3456.42281250,0.01872832
3458.35161987,0.01866394
3460.28042725,0.01858950
3462.20923462,0.01856375
3464.13804199,0.01861094
3466.06684937,0.01873327
3467.99565674,0.01864862
3469.92446411,0.01857598
3471.85327148,0.01858123
3473.78207886,0.01854755
3475.71088623,0.01852508
3477.63969360,0.01856411
3479.56850098,0.01859826
3481.49730835,0.01838142
3483.42611572,0.01848282
3485.35492310,0.01851767
3487.28373047,0.01838537
3489.21253784,0.01845173
3491.14134521,0.01848911
3493.07015259,0.01853944
3494.99895996,0.01843056
3496.92776733,0.01843009
3498.85657471,0.01847714
3500.78538208,0.01851435
3502.71418945,0.01821257
3504.64299683,0.01814657
3506.57180420,0.01852159
3508.50061157,0.01829733
3510.42941895,0.01828112
3512.35822632,0.01829713
3514.28703369,0.01840966
3516.21584106,0.01850999
3518.14464844,0.01822432
3520.07345581,0.01840375
3522.00226318,0.01828666
3523.93107056,0.01805415
3525.85987793,0.01811754
3527.78868530,0.01810071
3529.71749268,0.01808234
3531.64630005,0.01829572
3533.57510742,0.01842908
3535.50391479,0.01817098
3537.43272217,0.01825580
3539.36152954,0.01832184
3541.29033691,0.01825450
3543.21914429,0.01830883
3545.14795166,0.01798085
3547.07675903,0.01761637
3549.00556641,0.01810438
3550.93437378,0.01830103
3552.86318115,0.01782028
3554.79198853,0.01817733
3556.72079590,0.01830116
3558.64960327,0.01825053
3560.57841064,0.01821933
3562.50721802,0.01807397
3564.43602539,0.01818097
3566.36483276,0.01698364
3568.29364014,0.01655907
3570.22244751,0.01792663
3572.15125488,0.01836810
3574.08006226,0.01806548
3576.00886963,0.01812304
3577.93767700,0.01815946
3579.86648437,0.01818324
3581.79529175,0.01823417
3583.72409912,0.01823542
3585.65290649,0.01778542
3587.58171387,0.01648479
3589.51052124,0.01695610
3591.43932861,0.01828620
3593.36813599,0.01786131
3595.29694336,0.01750558
3597.22575073,0.01785488
3599.15455811,0.01810761
3601.08336548,0.01776417
3603.01217285,0.01798202
3604.94098022,0.01842692
3606.86978760,0.01771856
3608.79859497,0.01669641
3610.72740234,0.01710016
3612.65620972,0.01753057
3614.58501709,0.01701285
3616.51382446,0.01816808
3618.44263184,0.01691559
3620.37143921,0.01628172
3622.30024658,0.01817664
3624.22905395,0.01772130
3626.15786133,0.01855624
3628.08666870,0.01587814
3630.01547607,0.01448511
3631.94428345,0.01807779
3633.87309082,0.01770324
3635.80189819,0.01789921
3637.73070557,0.01824621
3639.65951294,0.01802317
3641.58832031,0.01821158
3643.51712769,0.01795170
3645.44593506,0.01811115
3647.37474243,0.01641570
3649.30354980,0.01514085
3651.23235718,0.01535690
3653.16116455,0.01800362
3655.08997192,0.01780645
3657.01877930,0.01603899
3658.94758667,0.01820186
3660.87639404,0.01792380
3662.80520142,0.01818868
3664.73400879,0.01814508
3666.66281616,0.01796716
3668.59162354,0.01741602
3670.52043091,0.01440103
3672.44923828,0.01725670
3674.37804565,0.01655960
3676.30685303,0.01381852
3678.23566040,0.01706388
3680.16446777,0.01750756
3682.09327515,0.01755347
3684.02208252,0.01806633
3685.95088989,0.01776862
3687.87969727,0.01602096
3689.80850464,0.01476341
3691.73731201,0.01684072
3693.66611938,0.01736023
3695.59492676,0.01772333
3697.52373413,0.01761457
3699.45254150,0.01742068
3701.38134888,0.01712127
3703.31015625,0.01648299
3705.23896362,0.01803602
3707.16777100,0.01715872
3709.09657837,0.01670178
3711.02538574,0.01583112
3712.95419312,0.01492078
3714.88300049,0.01741953
3716.81180786,0.01718792
3718.74061523,0.01727775
3720.66942261,0.01690968
3722.59822998,0.01637768
3724.52703735,0.01694930
3726.45584473,0.01576266
3728.38465210,0.01707201
3730.31345947,0.01680936
3732.24226685,0.01552055
3734.17107422,0.01532712
3736.09988159,0.01458427
3738.02868896,0.01526392
3739.95749634,0.01651717
3741.88630371,0.01729996
3743.81511108,0.01356706
3745.74391846,0.01293362
3747.67272583,0.01651052
3749.60153320,0.01420589
3751.53034058,0.01319877
3753.45914795,0.01512991
3755.38795532,0.01614495
3757.31676270,0.01671002
3759.24557007,0.01563409
3761.17437744,0.01615830
3763.10318481,0.01703848
3765.03199219,0.01592412
3766.96079956,0.01631393
3768.88960693,0.01623872
3770.81841431,0.01545999
3772.74722168,0.01665530
3774.67602905,0.01673197
3776.60483643,0.01668712
3778.53364380,0.01628218
3780.46245117,0.01570754
3782.39125854,0.01661067
3784.32006592,0.01628543
3786.24887329,0.01620815
3788.17768066,0.01647930
3790.10648804,0.01646378
3792.03529541,0.01634685
3793.96410278,0.01664074
3795.89291016,0.01571175
3797.82171753,0.01548756
3799.75052490,0.01633244
3801.67933228,0.01305299
3803.60813965,0.01515922
3805.53694702,0.01635577
3807.46575439,0.01354311
3809.39456177,0.01631312
3811.32336914,0.01588960
3813.25217651,0.01653315
3815.18098389,0.01496132
3817.10979126,0.01317881
3819.03859863,0.01652826
3820.96740601,0.01344709
3822.89621338,0.01421450
3824.82502075,0.01641524
3826.75382812,0.01485028
3828.68263550,0.01599563
3830.61144287,0.01536390
3832.54025024,0.01491965
3834.46905762,0.01524613
3836.39786499,0.01448145
3838.32667236,0.01311879
3840.25547974,0.01418671
3842.18428711,0.01524651
3844.11309448,0.01456755
3846.04190186,0.01580319
3847.97070923,0.01550457
3849.89951660,0.01551732
3851.82832397,0.01409747
3853.75713135,0.01062674
3855.68593872,0.01251661
3857.61474609,0.01560817
3859.54355347,0.01517862
3861.47236084,0.01503320
3863.40116821,0.01476032
3865.32997559,0.01374081
3867.25878296,0.01522182
3869.18759033,0.01397005
3871.11639770,0.01296876
3873.04520508,0.01529062
3874.97401245,0.01409009
3876.90281982,0.01515461
3878.83162720,0.01549668
3880.76043457,0.01332295
3882.68924194,0.01521437
3884.61804932,0.01433374
3886.54685669,0.01320359
3888.47566406,0.01527082
3890.40447144,0.01446100
3892.33327881,0.01361744
3894.26208618,0.01484174
3896.19089355,0.01514229
3898.11970093,0.01446611
3900.04850830,0.01374837
3901.97731567,0.01363864
3903.90612305,0.01340957
3905.83493042,0.01370638
3907.76373779,0.01499759
3909.69254517,0.01487898
3911.62135254,0.01475804
3913.55015991,0.01497630
3915.47896728,0.01446127
3917.40777466,0.01413097
3919.33658203,0.01402015
3921.26538940,0.01448927
3923.19419678,0.01438989
3925.12300415,0.01421542
3927.05181152,0.01454131
3928.98061890,0.01456265
3930.90942627,0.01433660
3932.83823364,0.01392944
3934.76704102,0.01439345
3936.69584839,0.01457391
3938.62465576,0.01449343
3940.55346313,0.01464298
3942.48227051,0.01406331
3944.41107788,0.01417021
3946.33988525,0.01450230
3948.26869263,0.01411382
3950.19750000,0.01409882
3952.12630737,0.01438646
3954.05511475,0.01433871
3955.98392212,0.01428044
3957.91272949,0.01430840
3959.84153687,0.01421000
3961.77034424,0.01408724
3963.69915161,0.01409827
3965.62795898,0.01419382
3967.55676636,0.01411403
3969.48557373,0.01407202
3971.41438110,0.01404613
3973.34318848,0.01408104
3975.27199585,0.01400606
3977.20080322,0.01391704
3979.12961060,0.01403012
3981.05841797,0.01390277
3982.98722534,0.01392066
3984.91603271,0.01390856
3986.84484009,0.01387949
3988.77364746,0.01389795
3990.70245483,0.01382136
3992.63126221,0.01387391
3994.56006958,0.01377959
3996.48887695,0.01378760
3998.41768433,0.01381810
4000.34649170,0.01385502
4002.27529907,0.01377227
4004.20410645,0.01369924
4006.13291382,0.01371320
4008.06172119,0.01360396
4009.99052856,0.01374133
4011.91933594,0.01365656
4013.84814331,0.01362522
4015.77695068,0.01362737
4017.70575806,0.01353368
4019.63456543,0.01354727
4021.56337280,0.01352930
4023.49218018,0.01351481
4025.42098755,0.01326104
4027.34979492,0.01346454
4029.27860229,0.01343514
4031.20740967,0.01322685
4033.13621704,0.01340935
4035.06502441,0.01327058
4036.99383179,0.01333665
4038.92263916,0.01328953
4040.85144653,0.01327101
4042.78025391,0.01327192
4044.70906128,0.01311818
4046.63786865,0.01322141
4048.56667603,0.01323390
4050.49548340,0.01318714
4052.42429077,0.01307397
4054.35309814,0.01314073
4056.28190552,0.01313230
4058.21071289,0.01304269
4060.13952026,0.01299632
4062.06832764,0.01294128
4063.99713501,0.01302104
4065.92594238,0.01290652
4067.85474976,0.01292269
4069.78355713,0.01289375
4071.71236450,0.01288268
4073.64117187,0.01290803
4075.56997925,0.01281711
4077.49878662,0.01282855
4079.42759399,0.01274220
4081.35640137,0.01277220
4083.28520874,0.01275202
4085.21401611,0.01277225
4087.14282349,0.01270996
4089.07163086,0.01262972
4091.00043823,0.01270323
4092.92924561,0.01261596
4094.85805298,0.01262288
4096.78686035,0.01255440
4098.71566772,0.01259721
4100.64447510,0.01256822
4102.57328247,0.01242314
4104.50208984,0.01244678
4106.43089722,0.01248995
4108.35970459,0.01254685
4110.28851196,0.01242733
4112.21731934,0.01247574
4114.14612671,0.01243121
4116.07493408,0.01235992
4118.00374145,0.01240725
4119.93254883,0.01232464
4121.86135620,0.01229668
4123.79016357,0.01223806
4125.71897095,0.01232660
4127.64777832,0.01225219
4129.57658569,0.01224019
4131.50539307,0.01226877
4133.43420044,0.01218632
4135.36300781,0.01220228
4137.29181519,0.01200728
4139.22062256,0.01207396
4141.14942993,0.01207529
4143.07823730,0.01199145
4145.00704468,0.01202239
4146.93585205,0.01197123
4148.86465942,0.01203536
4150.79346680,0.01197088
4152.72227417,0.01199365
4154.65108154,0.01193333
4156.57988892,0.01185095
4158.50869629,0.01194665
4160.43750366,0.01191739
4162.36631103,0.01180365
4164.29511841,0.01182113
4166.22392578,0.01190821
4168.15273315,0.01174556
4170.08154053,0.01177961
4172.01034790,0.01179886
4173.93915527,0.01170837
4175.86796265,0.01180704
4177.79677002,0.01171018
4179.72557739,0.01162234
4181.65438477,0.01158384
4183.58319214,0.01159974
4185.51199951,0.01161655
4187.44080688,0.01160860
4189.36961426,0.01165148
4191.29842163,0.01153444
4193.22722900,0.01146348
4195.15603638,0.01145681
4197.08484375,0.01142167
4199.01365112,0.01142348
4200.94245850,0.01141836
4202.87126587,0.01143418
4204.80007324,0.01143034
4206.72888062,0.01134221
4208.65768799,0.01138554
4210.58649536,0.01135985
4212.51530273,0.01122095
4214.44411011,0.01125221
4216.37291748,0.01119679
4218.30172485,0.01124508
4220.23053223,0.01128225
4222.15933960,0.01119254
4224.08814697,0.01115306
4226.01695435,0.01114124
4227.94576172,0.01117402
4229.87456909,0.01106382
4231.80337646,0.01112867
4233.73218384,0.01104471
4235.66099121,0.01095798
4237.58979858,0.01112080
4239.51860596,0.01097893
4241.44741333,0.01096397
4243.37622070,0.01095157
4245.30502808,0.01087869
4247.23383545,0.01088870
4249.16264282,0.01092287
4251.09145020,0.01095197
4253.02025757,0.01083993
4254.94906494,0.01089870
4256.87787231,0.01086708
4258.80667969,0.01078976
4260.73548706,0.01082015
4262.66429443,0.01079976
4264.59310181,0.01074974
4266.52190918,0.01072955
4268.45071655,0.01076840
4270.37952393,0.01069792
4272.30833130,0.01072481
4274.23713867,0.01066864
4276.16594604,0.01056173
4278.09475342,0.01057816
4280.02356079,0.01060737
4281.95236816,0.01065093
4283.88117554,0.01053897
4285.80998291,0.01056966
4287.73879028,0.01061011
4289.66759766,0.01053436
4291.59640503,0.01046524
4293.52521240,0.01042915
4295.45401978,0.01050942
4297.38282715,0.01043904
4299.31163452,0.01039317
4301.24044189,0.01034779
4303.16924927,0.01027611
4305.09805664,0.01034330
4307.02686401,0.01032755
4308.95567139,0.01025293
4310.88447876,0.01025352
4312.81328613,0.01029777
4314.74209351,0.01030912
4316.67090088,0.01023735
4318.59970825,0.01009882
4320.52851562,0.01012638
4322.45732300,0.01020372
4324.38613037,0.01018493
4326.31493774,0.01013527
4328.24374512,0.01007396
4330.17255249,0.01014347
4332.10135986,0.01013611
4334.03016724,0.01007687
4335.95897461,0.01003020
4337.88778198,0.00996817
4339.81658936,0.00994489
4341.74539673,0.00988137
4343.67420410,0.00992997
4345.60301147,0.00999946
4347.53181885,0.00993287
4349.46062622,0.00985897
4351.38943359,0.00991061
4353.31824097,0.00990374
4355.24704834,0.00982710
4357.17585571,0.00982269
4359.10466309,0.00980612
4361.03347046,0.00976257
4362.96227783,0.00970541
4364.89108520,0.00971539
4366.81989258,0.00966568
4368.74869995,0.00974168
4370.67750732,0.00976608
4372.60631470,0.00962521
4374.53512207,0.00969798
4376.46392944,0.00964752
4378.39273682,0.00962397
4380.32154419,0.00956547
4382.25035156,0.00950454
4384.17915894,0.00957393
4386.10796631,0.00949687
4388.03677368,0.00952142
4389.96558105,0.00944037
4391.89438843,0.00946402
4393.82319580,0.00949336
4395.75200317,0.00935121
4397.68081055,0.00949053
4399.60961792,0.00951167
4401.53842529,0.00938074
4403.46723267,0.00937042
4405.39604004,0.00939089
4407.32484741,0.00941185
4409.25365478,0.00938908
4411.18246216,0.00925507
4413.11126953,0.00931070
4415.04007690,0.00939740
4416.96888428,0.00926892
4418.89769165,0.00929607
4420.82649902,0.00922971
4422.75530640,0.00920771
4424.68411377,0.00921272
4426.61292114,0.00910988
4428.54172852,0.00916506
4430.47053589,0.00913714
4432.39934326,0.00915633
4434.32815063,0.00911812
4436.25695801,0.00903771
4438.18576538,0.00908186
4440.11457275,0.00905525
4442.04338013,0.00903752
4443.97218750,0.00903275
4445.90099487,0.00898544
4447.82980225,0.00903361
4449.75860962,0.00900427
4451.68741699,0.00876935
4453.61622437,0.00888998
4455.54503174,0.00892957
4457.47383911,0.00877950
4459.40264648,0.00892442
4461.33145386,0.00892865
4463.26026123,0.00888237
4465.18906860,0.00883212
4467.11787598,0.00885211
4469.04668335,0.00876950
4470.97549072,0.00868170
4472.90429810,0.00875290
4474.83310547,0.00864797
4476.76191284,0.00872014
4478.69072021,0.00871849
4480.61952759,0.00872239
4482.54833496,0.00867824
4484.47714233,0.00854456
4486.40594971,0.00861689
4488.33475708,0.00857165
4490.26356445,0.00861393
4492.19237183,0.00850891
4494.12117920,0.00854008
4496.04998657,0.00860490
4497.97879395,0.00849130
4499.90760132,0.00863414
4501.83640869,0.00850767
4503.76521606,0.00840543
4505.69402344,0.00840776
4507.62283081,0.00841790
4509.55163818,0.00844788
4511.48044556,0.00837710
4513.40925293,0.00842157
4515.33806030,0.00837749
4517.26686768,0.00839485
4519.19567505,0.00834920
4521.12448242,0.00831084
4523.05328979,0.00832189
4524.98209717,0.00827686
4526.91090454,0.00834193
4528.83971191,0.00824526
4530.76851929,0.00819302
4532.69732666,0.00819586
4534.62613403,0.00820014
4536.55494141,0.00821264
4538.48374878,0.00815742
4540.41255615,0.00819853
4542.34136353,0.00815479
4544.27017090,0.00808878
4546.19897827,0.00811260
4548.12778564,0.00811300
4550.05659302,0.00805611
4551.98540039,0.00802078
4553.91420776,0.00803705
4555.84301514,0.00807916
4557.77182251,0.00803610
4559.70062988,0.00794140
4561.62943726,0.00796393
4563.55824463,0.00795459
4565.48705200,0.00796832
4567.41585937,0.00792375
4569.34466675,0.00785139
4571.27347412,0.00787982
4573.20228149,0.00788261
4575.13108887,0.00790755
4577.05989624,0.00783226
4578.98870361,0.00779978
4580.91751099,0.00782771
4582.84631836,0.00775726
4584.77512573,0.00775129
4586.70393311,0.00782413
4588.63274048,0.00776769
4590.56154785,0.00763185
4592.49035522,0.00767989
4594.41916260,0.00773359
4596.34796997,0.00770952
4598.27677734,0.00769016
4600.20558472,0.00767510
4602.13439209,0.00758023
4604.06319946,0.00757477
4605.99200684,0.00764913
4607.92081421,0.00751381
4609.84962158,0.00756254
4611.77842895,0.00760549
4613.70723633,0.00755444
4615.63604370,0.00754157
4617.56485107,0.00744123
4619.49365845,0.00750896
4621.42246582,0.00747108
4623.35127319,0.00742233
4625.28008057,0.00741916
4627.20888794,0.00741721
4629.13769531,0.00748290
4631.06650269,0.00734832
4632.99531006,0.00733197
4634.92411743,0.00742061
4636.85292480,0.00736313
4638.78173218,0.00732220
4640.71053955,0.00735929
4642.63934692,0.00726141
4644.56815430,0.00717732
4646.49696167,0.00724283
4648.42576904,0.00720976
4650.35457642,0.00723485
4652.28338379,0.00724214
4654.21219116,0.00721644
4656.14099853,0.00722405
4658.06980591,0.00718968
4659.99861328,0.00720532
4661.92742065,0.00723538
4663.85622803,0.00720482
4665.78503540,0.00710808
4667.71384277,0.00713769
4669.64265015,0.00715511
4671.57145752,0.00710864
4673.50026489,0.00706561
4675.42907227,0.00703454
4677.35787964,0.00706403
4679.28668701,0.00701252
4681.21549438,0.00703704
4683.14430176,0.00705281
4685.07310913,0.00700785
4687.00191650,0.00696702
4688.93072388,0.00697563
4690.85953125,0.00694739
4692.78833862,0.00687371
4694.71714600,0.00699534
4696.64595337,0.00694397
4698.57476074,0.00692189
4700.50356812,0.00692188
4702.43237549,0.00681345
4704.36118286,0.00686850
4706.28999023,0.00681390
4708.21879761,0.00681845
4710.14760498,0.00679135
4712.07641235,0.00673098
4714.00521973,0.00672469
4715.93402710,0.00672315
4717.86283447,0.00680581
4719.79164185,0.00671312
4721.72044922,0.00668581
4723.64925659,0.00673104
4725.57806396,0.00670736
4727.50687134,0.00670307
4729.43567871,0.00666953
4731.36448608,0.00664206
4733.29329346,0.00668539
4735.22210083,0.00669353
4737.15090820,0.00659808
4739.07971558,0.00660733
4741.00852295,0.00659576
4742.93733032,0.00659093
4744.86613770,0.00655836
4746.79494507,0.00651883
4748.72375244,0.00651962
4750.65255981,0.00647011
4752.58136719,0.00652886
4754.51017456,0.00646158
4756.43898193,0.00650298
4758.36778931,0.00646979
4760.29659668,0.00635864
4762.22540405,0.00646207
4764.15421143,0.00639790
4766.08301880,0.00646319
4768.01182617,0.00642145
4769.94063354,0.00637656
4771.86944092,0.00637434
4773.79824829,0.00623437
4775.72705566,0.00635266
4777.65586304,0.00636025
4779.58467041,0.00635860
4781.51347778,0.00633018
4783.44228516,0.00628483
4785.37109253,0.00632264
4787.29989990,0.00627074
4789.22870728,0.00625561
4791.15751465,0.00620288
4793.08632202,0.00625722
4795.01512939,0.00622972
4796.94393677,0.00621818
4798.87274414,0.00618163
4800.80155151,0.00604909
4802.73035889,0.00619861
4804.65916626,0.00622390
4806.58797363,0.00616153
4808.51678101,0.00611617
4810.44558838,0.00607221
4812.37439575,0.00608024
4814.30320312,0.00603345
4816.23201050,0.00605284
4818.16081787,0.00598134
4820.08962524,0.00597368
4822.01843262,0.00609124
4823.94723999,0.00607970
4825.87604736,0.00599035
4827.80485474,0.00593358
4829.73366211,0.00596908
4831.66246948,0.00600161
4833.59127686,0.00593634
4835.52008423,0.00595412
4837.44889160,0.00595838
4839.37769897,0.00582264
4841.30650635,0.00589396
4843.23531372,0.00593535
4845.16412109,0.00590929
4847.09292847,0.00591135
4849.02173584,0.00579708
4850.95054321,0.00585381
4852.87935059,0.00580038
4854.80815796,0.00574492
4856.73696533,0.00584767
4858.66577270,0.00580855
4860.59458008,0.00582120
4862.52338745,0.00581861
4864.45219482,0.00577086
4866.38100220,0.00580575
4868.30980957,0.00579893
4870.23861694,0.00574370
4872.16742432,0.00576205
4874.09623169,0.00570561
4876.02503906,0.00567604
4877.95384644,0.00572950
4879.88265381,0.00566616
4881.81146118,0.00565391
4883.74026855,0.00559855
4885.66907593,0.00560333
4887.59788330,0.00562228
4889.52669067,0.00554504
4891.45549805,0.00557181
4893.38430542,0.00557603
4895.31311279,0.00562873
4897.24192017,0.00556938
4899.17072754,0.00548128
4901.09953491,0.00551268
4903.02834228,0.00552537
4904.95714966,0.00554620
4906.88595703,0.00548476
4908.81476440,0.00550277
4910.74357178,0.00548162
4912.67237915,0.00542708
4914.60118652,0.00549646
4916.52999390,0.00549934
4918.45880127,0.00542640
4920.38760864,0.00540155
4922.31641602,0.00542783
4924.24522339,0.00540118
4926.17403076,0.00544323
4928.10283813,0.00538839
4930.03164551,0.00535192
4931.96045288,0.00542200
4933.88926025,0.00531510
4935.81806763,0.00532950
4937.74687500,0.00533868
4939.67568237,0.00526877
4941.60448975,0.00528294
4943.53329712,0.00530734
4945.46210449,0.00531606
4947.39091187,0.00527550
4949.31971924,0.00526437
4951.24852661,0.00515210
4953.17733398,0.00512902
4955.10614136,0.00521133
4957.03494873,0.00518893
4958.96375610,0.00517717
4960.89256348,0.00513123
4962.82137085,0.00518721
4964.75017822,0.00519436
4966.67898560,0.00509844
4968.60779297,0.00515564
4970.53660034,0.00510990
4972.46540771,0.00507319
4974.39421509,0.00517900
4976.32302246,0.00510640
4978.25182983,0.00507501
4980.18063721,0.00511122
4982.10944458,0.00503691
4984.03825195,0.00503326
4985.96705933,0.00499734
4987.89586670,0.00500900
4989.82467407,0.00504145
4991.75348145,0.00499982
4993.68228882,0.00495789
4995.61109619,0.00488658
4997.53990356,0.00495167
4999.46871094,0.00492020
5001.39751831,0.00488024
5003.32632568,0.00492134
5005.25513306,0.00489250
5007.18394043,0.00497381
5009.11274780,0.00493232
5011.04155518,0.00493972
5012.97036255,0.00492744
5014.89916992,0.00481711
5016.82797729,0.00491071
5018.75678467,0.00483872
5020.68559204,0.00476388
5022.61439941,0.00477919
5024.54320679,0.00474424
5026.47201416,0.00480845
5028.40082153,0.00478732
5030.32962891,0.00475022
5032.25843628,0.00475978
5034.18724365,0.00475402
5036.11605103,0.00480241
5038.04485840,0.00481316
5039.97366577,0.00473980
5041.90247314,0.00468476
5043.83128052,0.00467248
5045.76008789,0.00468826
5047.68889526,0.00471833
5049.61770264,0.00470188
5051.54651001,0.00471471
5053.47531738,0.00471089
5055.40412476,0.00462715
5057.33293213,0.00464569
5059.26173950,0.00470855
5061.19054687,0.00466845
5063.11935425,0.00460936
5065.04816162,0.00460143
5066.97696899,0.00461710
5068.90577637,0.00463185
5070.83458374,0.00461771
5072.76339111,0.00454303
5074.69219849,0.00451067
5076.62100586,0.00454358
5078.54981323,0.00453378
5080.47862061,0.00454274
5082.40742798,0.00451157
5084.33623535,0.00441282
5086.26504272,0.00442902
5088.19385010,0.00446210
5090.12265747,0.00442846
5092.05146484,0.00440712
5093.98027222,0.00438384
5095.90907959,0.00436097
5097.83788696,0.00442039
5099.76669434,0.00452026
5101.69550171,0.00446067
5103.62430908,0.00437054
5105.55311645,0.00440001
5107.48192383,0.00441918
5109.41073120,0.00439695
5111.33953857,0.00433615
5113.26834595,0.00432847
5115.19715332,0.00436114
5117.12596069,0.00429242
5119.05476807,0.00429856
5120.98357544,0.00433177
5122.91238281,0.00422199
5124.84119019,0.00429924
5126.76999756,0.00437259
5128.69880493,0.00420869
5130.62761230,0.00426739
5132.55641968,0.00430570
5134.48522705,0.00416958
5136.41403442,0.00418449
5138.34284180,0.00420725
5140.27164917,0.00427524
5142.20045654,0.00427393
5144.12926392,0.00415179
5146.05807129,0.00417181
5147.98687866,0.00417425
5149.91568603,0.00419100
5151.84449341,0.00424314
5153.77330078,0.00418134
5155.70210815,0.00415046
5157.63091553,0.00411471
5159.55972290,0.00403132
5161.48853027,0.00405023
5163.41733765,0.00411356
5165.34614502,0.00412074
5167.27495239,0.00414353
5169.20375977,0.00407926
5171.13256714,0.00401357
5173.06137451,0.00409049
5174.99018188,0.00402308
5176.91898926,0.00399876
5178.84779663,0.00406498
5180.77660400,0.00403100
5182.70541138,0.00404375
5184.63421875,0.00396441
5186.56302612,0.00396346
5188.49183350,0.00399162
5190.42064087,0.00391676
5192.34944824,0.00397274
5194.27825562,0.00399135
5196.20706299,0.00396567
5198.13587036,0.00392198
5200.06467773,0.00395313
5201.99348511,0.00399090
5203.92229248,0.00389381
5205.85109985,0.00383110
5207.77990723,0.00377420
5209.70871460,0.00385467
5211.63752197,0.00388779
5213.56632935,0.00383842
5215.49513672,0.00387859
5217.42394409,0.00380525
5219.35275146,0.00377354
5221.28155884,0.00382075
5223.21036621,0.00380218
5225.13917358,0.00372402
5227.06798096,0.00380227
5228.99678833,0.00387519
5230.92559570,0.00375019
5232.85440308,0.00372203
5234.78321045,0.00372848
5236.71201782,0.00379203
5238.64082520,0.00380345
5240.56963257,0.00383078
5242.49843994,0.00386079
5244.42724731,0.00366865
5246.35605469,0.00364953
5248.28486206,0.00361402
5250.21366943,0.00361554
5252.14247681,0.00375742
5254.07128418,0.00370442
5256.00009155,0.00365182
5257.92889893,0.00367057
5259.85770630,0.00376249
5261.78651367,0.00370232
5263.71532104,0.00358752
5265.64412842,0.00364806
5267.57293579,0.00368309
5269.50174316,0.00365352
5271.43055054,0.00359763
5273.35935791,0.00365506
5275.28816528,0.00360561
5277.21697266,0.00356447
5279.14578003,0.00363087
5281.07458740,0.00356513
5283.00339478,0.00361214
5284.93220215,0.00359377
5286.86100952,0.00357949
5288.78981689,0.00360547
5290.71862427,0.00347708
5292.64743164,0.00352576
5294.57623901,0.00360406
5296.50504639,0.00356623
5298.43385376,0.00353686
5300.36266113,0.00352064
5302.29146851,0.00349854
5304.22027588,0.00353364
5306.14908325,0.00354783
5308.07789062,0.00338885
5310.00669800,0.00340832
5311.93550537,0.00348819
5313.86431274,0.00343113
5315.79312012,0.00343291
5317.72192749,0.00338962
5319.65073486,0.00341464
5321.57954224,0.00342631
5323.50834961,0.00341669
5325.43715698,0.00350018
5327.36596436,0.00338239
5329.29477173,0.00333164
5331.22357910,0.00342557
5333.15238647,0.00334204
5335.08119385,0.00335454
5337.01000122,0.00335225
5338.93880859,0.00321560
5340.86761597,0.00332799
5342.79642334,0.00336640
5344.72523071,0.00322663
5346.65403809,0.00327214
5348.58284546,0.00331596
5350.51165283,0.00334304
5352.44046020,0.00330975
5354.36926758,0.00320694
5356.29807495,0.00328824
5358.22688232,0.00331562
5360.15568970,0.00326599
5362.08449707,0.00329261
5364.01330444,0.00325015
5365.94211182,0.00325315
5367.87091919,0.00329468
5369.79972656,0.00320423
5371.72853394,0.00317688
5373.65734131,0.00322563
5375.58614868,0.00316931
5377.51495605,0.00316361
5379.44376343,0.00319282
5381.37257080,0.00316677
5383.30137817,0.00321303
5385.23018555,0.00322014
5387.15899292,0.00312569
5389.08780029,0.00314443
5391.01660767,0.00319313
5392.94541504,0.00307265
5394.87422241,0.00306054
5396.80302978,0.00315699
5398.73183716,0.00309574
5400.66064453,0.00308240
5402.58945190,0.00309270
5404.51825928,0.00304109
5406.44706665,0.00308830
5408.37587402,0.00309403
5410.30468140,0.00307096
5412.23348877,0.00308454
5414.16229614,0.00301525
5416.09110352,0.00304557
5418.01991089,0.00308595
5419.94871826,0.00303321
5421.87752563,0.00305260
5423.80633301,0.00299796
5425.73514038,0.00301117
5427.66394775,0.00300809
5429.59275513,0.00290119
5431.52156250,0.00296941
5433.45036987,0.00296483
5435.37917725,0.00294864
5437.30798462,0.00300157
5439.23679199,0.00296872
5441.16559936,0.00288465
5443.09440674,0.00285511
5445.02321411,0.00293428
5446.95202148,0.00290335
5448.88082886,0.00293598
5450.80963623,0.00289967
5452.73844360,0.00283593
5454.66725098,0.00301011
5456.59605835,0.00297813
5458.52486572,0.00293324
5460.45367310,0.00289128
5462.38248047,0.00279004
5464.31128784,0.00285801
5466.24009521,0.00289430
5468.16890259,0.00289700
5470.09770996,0.00280600
5472.02651733,0.00282182
5473.95532471,0.00288041
5475.88413208,0.00281976
5477.81293945,0.00291205
5479.74174683,0.00293241
5481.67055420,0.00287166
5483.59936157,0.00284057
5485.52816895,0.00280926
5487.45697632,0.00280353
5489.38578369,0.00276419
5491.31459106,0.00279027
5493.24339844,0.00278953
5495.17220581,0.00277206
5497.10101318,0.00282400
5499.02982056,0.00280653
5500.95862793,0.00276779
5502.88743530,0.00276922
5504.81624268,0.00274586
5506.74505005,0.00272365
5508.67385742,0.00274313
5510.60266479,0.00272062
5512.53147217,0.00274155
5514.46027954,0.00280112
5516.38908691,0.00268919
5518.31789429,0.00266585
5520.24670166,0.00275269
5522.17550903,0.00269812
5524.10431641,0.00268777
5526.03312378,0.00265464
5527.96193115,0.00262387
5529.89073853,0.00269309
5531.81954590,0.00267404
5533.74835327,0.00269717
5535.67716064,0.00270808
5537.60596802,0.00261612
5539.53477539,0.00265073
5541.46358276,0.00273023
5543.39239014,0.00265402
5545.32119751,0.00259629
5547.25000488,0.00266335
5549.17881226,0.00267179
5551.10761963,0.00260022
5553.03642700,0.00253642
5554.96523437,0.00263065
5556.89404175,0.00264224
5558.82284912,0.00252953
5560.75165649,0.00261778
5562.68046387,0.00256329
5564.60927124,0.00250098
5566.53807861,0.00252623
5568.46688599,0.00249709
5570.39569336,0.00259272
5572.32450073,0.00254117
5574.25330811,0.00258266
5576.18211548,0.00260350
5578.11092285,0.00244845
5580.03973022,0.00252370
5581.96853760,0.00250847
5583.89734497,0.00249504
5585.82615234,0.00252493
5587.75495972,0.00250774
5589.68376709,0.00258869
5591.61257446,0.00251045
5593.54138184,0.00249916
5595.47018921,0.00254890
5597.39899658,0.00248866
5599.32780395,0.00252172
5601.25661133,0.00251695
5603.18541870,0.00246191
5605.11422607,0.00244723
5607.04303345,0.00245620
5608.97184082,0.00243836
5610.90064819,0.00241396
5612.82945557,0.00245232
5614.75826294,0.00245619
5616.68707031,0.00242123
5618.61587769,0.00244840
5620.54468506,0.00250169
5622.47349243,0.00241712
5624.40229980,0.00240197
5626.33110718,0.00244526
5628.25991455,0.00235113
5630.18872192,0.00243009
5632.11752930,0.00243186
5634.04633667,0.00238139
5635.97514404,0.00246534
5637.90395142,0.00236966
5639.83275879,0.00234669
5641.76156616,0.00233170
5643.69037353,0.00233024
5645.61918091,0.00238785
5647.54798828,0.00232054
5649.47679565,0.00233560
5651.40560303,0.00227515
5653.33441040,0.00225033
5655.26321777,0.00230269
5657.19202515,0.00225743
5659.12083252,0.00228381
5661.04963989,0.00225891
5662.97844727,0.00222818
5664.90725464,0.00226782
5666.83606201,0.00227879
5668.76486938,0.00227440
5670.69367676,0.00224375
5672.62248413,0.00225165
5674.55129150,0.00226753
5676.48009888,0.00223615
5678.40890625,0.00229022
5680.33771362,0.00225389
5682.26652100,0.00219606
5684.19532837,0.00231214
5686.12413574,0.00222008
5688.05294311,0.00221932
5689.98175049,0.00226786
5691.91055786,0.00216574
5693.83936523,0.00224069
5695.76817261,0.00213355
5697.69697998,0.00213524
5699.62578735,0.00222522
5701.55459473,0.00213766
5703.48340210,0.00212933
5705.41220947,0.00211291
5707.34101685,0.00220255
5709.26982422,0.00218348
5711.19863159,0.00220992
5713.12743896,0.00219776
5715.05624634,0.00207109
5716.98505371,0.00216969
5718.91386108,0.00207830
5720.84266846,0.00209490
5722.77147583,0.00218882
5724.70028320,0.00210928
5726.62909058,0.00213875
5728.55789795,0.00213224
5730.48670532,0.00208277
5732.41551270,0.00202250
5734.34432007,0.00209032
5736.27312744,0.00214711
5738.20193481,0.00208752
5740.13074219,0.00205082
5742.05954956,0.00205992
5743.98835693,0.00209160
5745.91716431,0.00200849
5747.84597168,0.00202685
5749.77477905,0.00205721
5751.70358643,0.00198766
5753.63239380,0.00200939
5755.56120117,0.00205853
5757.49000854,0.00205205
5759.41881592,0.00202943
5761.34762329,0.00208821
5763.27643066,0.00205031
5765.20523804,0.00194004
5767.13404541,0.00196900
5769.06285278,0.00202201
5770.99166016,0.00196575
5772.92046753,0.00196166
5774.84927490,0.00197020
5776.77808228,0.00191424
5778.70688965,0.00199864
5780.63569702,0.00198829
5782.56450439,0.00194521
5784.49331177,0.00196317
5786.42211914,0.00195104
5788.35092651,0.00194372
5790.27973389,0.00189371
5792.20854126,0.00199482
5794.13734863,0.00193447
5796.06615601,0.00186668
5797.99496338,0.00196219
5799.92377075,0.00190228
5801.85257812,0.00190991
5803.78138550,0.00188334
5805.71019287,0.00188425
5807.63900024,0.00193307
5809.56780762,0.00191912
5811.49661499,0.00185485
5813.42542236,0.00180783
5815.35422974,0.00192900
5817.28303711,0.00188149
5819.21184448,0.00177266
5821.14065186,0.00180137
5823.06945923,0.00187348
5824.99826660,0.00185733
5826.92707397,0.00180904
5828.85588135,0.00190362
5830.78468872,0.00182394
5832.71349609,0.00177468
5834.64230347,0.00184950
5836.57111084,0.00183211
5838.49991821,0.00182392
5840.42872559,0.00176432
5842.35753296,0.00176018
5844.28634033,0.00179868
5846.21514770,0.00178100
5848.14395508,0.00180268
5850.07276245,0.00181608
5852.00156982,0.00172130
5853.93037720,0.00172325
5855.85918457,0.00182735
5857.78799194,0.00184201
5859.71679932,0.00184193
5861.64560669,0.00182037
5863.57441406,0.00180083
5865.50322144,0.00173246
5867.43202881,0.00175643
5869.36083618,0.00180978
5871.28964355,0.00169736
5873.21845093,0.00171401
5875.14725830,0.00169182
5877.07606567,0.00166070
5879.00487305,0.00174018
5880.93368042,0.00169050
5882.86248779,0.00167861
5884.79129517,0.00172948
5886.72010254,0.00167163
5888.64890991,0.00163018
5890.57771728,0.00170141
5892.50652466,0.00166785
5894.43533203,0.00167585
5896.36413940,0.00173471
5898.29294678,0.00164058
5900.22175415,0.00165632
5902.15056152,0.00169859
5904.07936890,0.00168409
5906.00817627,0.00167233
5907.93698364,0.00168943
5909.86579102,0.00170517
5911.79459839,0.00161749
5913.72340576,0.00166743
5915.65221313,0.00175677
5917.58102051,0.00171792
5919.50982788,0.00161882
5921.43863525,0.00159487
5923.36744263,0.00165697
5925.29625000,0.00157165
5927.22505737,0.00157809
5929.15386475,0.00167143
5931.08267212,0.00164155
5933.01147949,0.00158245
5934.94028686,0.00152920
5936.86909424,0.00161017
5938.79790161,0.00165271
5940.72670898,0.00159019
5942.65551636,0.00157304
5944.58432373,0.00158473
5946.51313110,0.00160279
5948.44193848,0.00153607
5950.37074585,0.00155429
5952.29955322,0.00157551
5954.22836060,0.00152272
5956.15716797,0.00158523
5958.08597534,0.00155391
5960.01478271,0.00152483
5961.94359009,0.00156656
5963.87239746,0.00154889
5965.80120483,0.00153350
5967.73001221,0.00152084
5969.65881958,0.00156850
5971.58762695,0.00156988
5973.51643433,0.00153363
5975.44524170,0.00150972
5977.37404907,0.00150730
5979.30285645,0.00155814
5981.23166382,0.00152181
5983.16047119,0.00150156
5985.08927856,0.00154931
5987.01808594,0.00156363
5988.94689331,0.00149960
5990.87570068,0.00144130
5992.80450806,0.00146425
5994.73331543,0.00146905
5996.66212280,0.00145745
5998.59093018,0.00147813
6000.51973755,0.00150603
