399.26312622,0.00010440
401.19193359,0.00049498
403.12074097,0.00018162
405.04954834,0.00067702
406.97835571,0.00094452
408.90716309,0.00065117
410.83597046,0.00062229
412.76477783,0.00014547
414.69358521,0.00026915
416.62239258,0.00057136
418.55119995,0.00091354
420.48000732,0.00075759
422.40881470,0.00032322
424.33762207,0.00055219
426.26642944,0.00019904
428.19523682,0.00055751
430.12404419,0.00068894
432.05285156,0.00022307
433.98165894,0.00059164
435.91046631,0.00059794
437.83927368,0.00075559
439.76808105,0.00054778
441.69688843,0.00033305
443.62569580,0.00056283
445.55450317,0.00065281
447.48331055,0.00089556
449.41211792,0.00023180
451.34092529,0.00017709
453.26973267,0.00045451
455.19854004,0.00012569
457.12734741,0.00042510
459.05615479,0.00013050
460.98496216,0.00034570
462.91376953,0.00074394
464.84257690,0.00013012
466.77138428,0.00060244
468.70019165,0.00060886
470.62899902,-0.00005049
472.55780640,0.00054465
474.48661377,0.00051466
476.41542114,0.00003994
478.34422852,0.00022219
480.27303589,0.00036646
482.20184326,0.00059995
484.13065063,0.00023937
486.05945801,0.00006113
487.98826538,0.00051244
489.91707275,0.00050006
491.84588013,0.00034416
493.77468750,-0.00012007
495.70349487,0.00011586
497.63230225,0.00043552
499.56110962,0.00013328
501.48991699,0.00026263
503.41872437,0.00002175
505.34753174,0.00011225
507.27633911,0.00013980
509.20514648,0.00014045
511.13395386,0.00022938
513.06276123,-0.00001620
514.99156860,0.00059062
516.92037598,0.00063334
518.84918335,0.00051420
520.77799072,0.00039673
522.70679810,0.00011460
524.63560547,0.00034998
526.56441284,0.00006146
528.49322021,0.00002533
530.42202759,-0.00000858
532.35083496,0.00028938
534.27964233,0.00031300
536.20844971,0.00016106
538.13725708,0.00071282
540.06606445,0.00005157
541.99487183,0.00006569
543.92367920,0.00053320
545.85248657,0.00002376
547.78129395,0.00011074
549.71010132,0.00008060
551.63890869,0.00002630
553.56771606,0.00017579
555.49652344,0.00014929
557.42533081,0.00023956
559.35413818,0.00034751
561.28294556,0.00004569
563.21175293,-0.00024559
565.14056030,0.00000446
567.06936768,0.00034968
568.99817505,0.00045004
570.92698242,-0.00006414
572.85578979,-0.00007252
574.78459717,0.00041605
576.71340454,0.00029894
578.64221191,0.00021801
580.57101929,0.00024741
582.49982666,0.00039657
584.42863403,0.00018622
586.35744141,0.00014962
588.28624878,0.00024169
590.21505615,-0.00008784
592.14386353,0.00016474
594.07267090,0.00004057
596.00147827,0.00001779
597.93028564,0.00029235
599.85909302,0.00015337
601.78790039,0.00041861
603.71670776,0.00006384
605.64551514,-0.00011129
607.57432251,0.00024850
609.50312988,0.00012461
611.43193726,0.00022071
613.36074463,0.00044168
615.28955200,0.00042216
617.21835938,0.00020574
619.14716675,0.00034794
621.07597412,0.00013054
623.00478149,-0.00006813
624.93358887,0.00010940
626.86239624,0.00001367
628.79120361,0.00006477
630.72001099,0.00011675
632.64881836,0.00050325
634.57762573,0.00043336
636.50643311,0.00035095
638.43524048,0.00048618
640.36404785,0.00041545
642.29285522,0.00065032
644.22166260,0.00062371
646.15046997,0.00066899
648.07927734,0.00027693
650.00808472,0.00051877
651.93689209,0.00102282
653.86569946,0.00044352
655.79450684,0.00095519
657.72331421,0.00103260
659.65212158,0.00052094
661.58092896,0.00098384
663.50973633,0.00084522
665.43854370,0.00076616
667.36735107,0.00110005
669.29615845,0.00096306
671.22496582,0.00102449
673.15377319,0.00131095
675.08258057,0.00139545
677.01138794,0.00132044
678.94019531,0.00108271
680.86900269,0.00109835
682.79781006,0.00102215
684.72661743,0.00082619
686.65542480,0.00121568
688.58423218,0.00135680
690.51303955,0.00123806
692.44184692,0.00141523
694.37065430,0.00130695
696.29946167,0.00118340
698.22826904,0.00155203
700.15707642,0.00193593
702.08588379,0.00201137
704.01469116,0.00178248
705.94349854,0.00148360
707.87230591,0.00146085
709.80111328,0.00116068
711.72992065,0.00057433
713.65872803,0.00028098
715.58753540,0.00012853
717.51634277,0.00005105
719.44515015,0.00010525
721.37395752,0.00016928
723.30276489,-0.00003669
725.23157227,-0.00017058
727.16037964,0.00018017
729.08918701,0.00045017
731.01799438,0.00012243
732.94680176,-0.00001995
734.87560913,0.00008231
736.80441650,0.00014900
738.73322388,0.00039162
740.66203125,0.00024720
742.59083862,-0.00011823
744.51964600,0.00027530
746.44845337,0.00044296
748.37726074,0.00020246
750.30606812,0.00028036
752.23487549,-0.00017179
754.16368286,-0.00028486
756.09249023,0.00019669
758.02129761,0.00008298
759.95010498,0.00010507
761.87891235,0.00017836
763.80771973,0.00030728
765.73652710,0.00033713
767.66533447,0.00005026
769.59414185,0.00017353
771.52294922,0.00009336
773.45175659,0.00029067
775.38056396,0.00047392
777.30937134,-0.00011014
779.23817871,-0.00008507
781.16698608,0.00031368
783.09579346,0.00000099
785.02460083,-0.00001096
786.95340820,0.00015911
788.88221558,0.00020573
790.81102295,0.00037727
792.73983032,0.00031646
794.66863770,0.00034431
796.59744507,0.00011866
798.52625244,0.00024627
800.45505981,0.00047316
802.38386719,0.00032615
804.31267456,0.00024934
806.24148193,0.00022277
808.17028931,0.00034763
810.09909668,0.00008936
812.02790405,0.00026366
813.95671143,0.00028909
815.88551880,0.00009941
817.81432617,0.00047725
819.74313354,0.00001111
821.67194092,0.00022097
823.60074829,0.00036016
825.52955566,-0.00030408
827.45836304,0.00014177
829.38717041,0.00021271
831.31597778,0.00040136
833.24478516,0.00054418
835.17359253,0.00041007
837.10239990,0.00070840
839.03120728,0.00043378
840.96001465,0.00062482
842.88882202,0.00062320
844.81762939,0.00028073
846.74643677,0.00048575
848.67524414,0.00029406
850.60405151,0.00008608
852.53285889,0.00025502
854.46166626,0.00037437
856.39047363,0.00029823
858.31928101,0.00037457
860.24808838,0.00014445
862.17689575,0.00006822
864.10570313,0.00034496
866.03451050,0.00019079
867.96331787,-0.00000632
869.89212524,0.00002052
871.82093262,0.00036354
873.74973999,-0.00005719
875.67854736,-0.00022939
877.60735474,0.00032934
879.53616211,0.00025624
881.46496948,0.00044425
883.39377686,0.00024885
885.32258423,0.00003691
887.25139160,0.00011261
889.18019897,0.00007453
891.10900635,0.00028751
893.03781372,0.00015689
894.96662109,0.00031139
896.89542847,0.00045155
898.82423584,0.00027632
900.75304321,0.00006713
902.68185059,0.00025110
904.61065796,0.00033072
906.53946533,-0.00000556
908.46827271,0.00021423
910.39708008,0.00016398
912.32588745,0.00034423
914.25469482,0.00041082
916.18350220,0.00025565
918.11230957,0.00042065
920.04111694,0.00030773
921.96992432,0.00066061
923.89873169,0.00053592
925.82753906,0.00037020
927.75634644,0.00046802
929.68515381,0.00047803
931.61396118,0.00078422
933.54276855,0.00064304
935.47157593,0.00070308
937.40038330,0.00055139
939.32919067,0.00083184
941.25799805,0.00123163
943.18680542,0.00081381
945.11561279,0.00104943
947.04442017,0.00093965
948.97322754,0.00069267
950.90203491,0.00087805
952.83084229,0.00085529
954.75964966,0.00083187
956.68845703,0.00083855
958.61726440,0.00096348
960.54607178,0.00078901
962.47487915,0.00070473
964.40368652,0.00089275
966.33249390,0.00084017
968.26130127,0.00068858
970.19010864,0.00077551
972.11891602,0.00092634
974.04772339,0.00100694
975.97653076,0.00111014
977.90533813,0.00096103
979.83414551,0.00110533
981.76295288,0.00141345
983.69176025,0.00148245
985.62056763,0.00167265
987.54937500,0.00174956
989.47818237,0.00183424
991.40698975,0.00217374
993.33579712,0.00245668
995.26460449,0.00258501
997.19341187,0.00287803
999.12221924,0.00315213
1001.05102661,0.00322778
1002.97983398,0.00336901
1004.90864136,0.00375875
1006.83744873,0.00393565
1008.76625610,0.00400954
1010.69506348,0.00442854
1012.62387085,0.00446289
1014.55267822,0.00496064
1016.48148560,0.00547693
1018.41029297,0.00527687
1020.33910034,0.00564098
1022.26790771,0.00567061
1024.19671509,0.00580120
1026.12552246,0.00626639
1028.05432983,0.00643374
1029.98313721,0.00680730
1031.91194458,0.00672929
1033.84075195,0.00689386
1035.76955933,0.00727186
1037.69836670,0.00715916
1039.62717407,0.00724753
1041.55598145,0.00735876
1043.48478882,0.00731102
1045.41359619,0.00720055
1047.34240356,0.00699770
1049.27121094,0.00689655
1051.20001831,0.00685399
1053.12882568,0.00672149
1055.05763306,0.00673259
1056.98644043,0.00655428
1058.91524780,0.00614379
1060.84405518,0.00606401
1062.77286255,0.00605924
1064.70166992,0.00592167
1066.63047729,0.00562798
1068.55928467,0.00538540
1070.48809204,0.00523463
1072.41689941,0.00509804
1074.34570679,0.00493501
1076.27451416,0.00463670
1078.20332153,0.00449004
1080.13212891,0.00417167
1082.06093628,0.00378784
1083.98974365,0.00373619
1085.91855103,0.00371799
1087.84735840,0.00349828
1089.77616577,0.00321122
1091.70497314,0.00310676
1093.63378052,0.00313781
1095.56258789,0.00315751
1097.49139526,0.00283547
1099.42020264,0.00283795
1101.34901001,0.00291815
1103.27781738,0.00255100
1105.20662476,0.00272092
1107.13543213,0.00273086
1109.06423950,0.00256893
1110.99304687,0.00258376
1112.92185425,0.00244081
1114.85066162,0.00238263
1116.77946899,0.00229956
1118.70827637,0.00248852
1120.63708374,0.00248037
1122.56589111,0.00259932
1124.49469849,0.00290806
1126.42350586,0.00272821
1128.35231323,0.00274617
1130.28112061,0.00273644
1132.20992798,0.00274852
1134.13873535,0.00284333
1136.06754272,0.00297852
1137.99635010,0.00324265
1139.92515747,0.00323277
1141.85396484,0.00340647
1143.78277222,0.00382977
1145.71157959,0.00408588
1147.64038696,0.00421597
1149.56919434,0.00463363
1151.49800171,0.00476621
1153.42680908,0.00483724
1155.35561646,0.00534166
1157.28442383,0.00538684
1159.21323120,0.00565944
1161.14203857,0.00589814
1163.07084595,0.00608214
1164.99965332,0.00647181
1166.92846069,0.00645100
1168.85726807,0.00685858
1170.78607544,0.00707069
1172.71488281,0.00725729
1174.64369019,0.00758969
1176.57249756,0.00774170
1178.50130493,0.00820773
1180.43011230,0.00845717
1182.35891968,0.00899215
1184.28772705,0.00918670
1186.21653442,0.00947865
1188.14534180,0.01032666
1190.07414917,0.01050430
1192.00295654,0.01101895
1193.93176392,0.01150929
1195.86057129,0.01197970
1197.78937866,0.01263714
1199.71818604,0.01295779
1201.64699341,0.01362620
1203.57580078,0.01423231
1205.50460815,0.01492978
1207.43341553,0.01557995
1209.36222290,0.01590905
1211.29103027,0.01629366
1213.21983765,0.01670218
1215.14864502,0.01736459
1217.07745239,0.01784188
1219.00625977,0.01798949
1220.93506714,0.01817616
1222.86387451,0.01860228
1224.79268188,0.01897310
1226.72148926,0.01901204
1228.65029663,0.01899922
1230.57910400,0.01905351
1232.50791138,0.01915925
1234.43671875,0.01914209
1236.36552612,0.01909814
1238.29433350,0.01899892
1240.22314087,0.01914379
1242.15194824,0.01910842
1244.08075562,0.01868224
1246.00956299,0.01892820
1247.93837036,0.01893309
1249.86717773,0.01868477
1251.79598511,0.01869720
1253.72479248,0.01843015
1255.65359985,0.01828302
1257.58240723,0.01795996
1259.51121460,0.01770790
1261.44002197,0.01759507
1263.36882935,0.01710467
1265.29763672,0.01693587
1267.22644409,0.01698021
1269.15525146,0.01665258
1271.08405884,0.01635509
1273.01286621,0.01616026
1274.94167358,0.01594673
1276.87048096,0.01577229
1278.79928833,0.01536508
1280.72809570,0.01511873
1282.65690308,0.01494706
1284.58571045,0.01460428
1286.51451782,0.01431925
1288.44332520,0.01403962
1290.37213257,0.01400396
1292.30093994,0.01377512
1294.22974731,0.01373545
1296.15855469,0.01387152
1298.08736206,0.01354161
1300.01616943,0.01354299
1301.94497681,0.01367533
1303.87378418,0.01372416
1305.80259155,0.01385133
1307.73139893,0.01417911
1309.66020630,0.01458239
1311.58901367,0.01469078
1313.51782104,0.01495786
1315.44662842,0.01531332
1317.37543579,0.01567931
1319.30424316,0.01606265
1321.23305054,0.01665590
1323.16185791,0.01729807
1325.09066528,0.01750179
1327.01947266,0.01800487
1328.94828003,0.01889588
1330.87708740,0.01937101
1332.80589478,0.01946718
1334.73470215,0.02005207
1336.66350952,0.02044024
1338.59231689,0.02005802
1340.52112427,0.02045900
1342.44993164,0.02122951
1344.37873901,0.02121590
1346.30754639,0.02111125
1348.23635376,0.02114790
1350.16516113,0.02119987
1352.09396851,0.02114970
1354.02277588,0.02080285
1355.95158325,0.02066703
1357.88039062,0.02056437
1359.80919800,0.02025460
1361.73800537,0.01945653
1363.66681274,0.01916598
1365.59562012,0.02022814
1367.52442749,0.01985514
1369.45323486,0.01953870
1371.38204224,0.01990654
1373.31084961,0.01890763
1375.23965698,0.01910949
1377.16846436,0.01953036
1379.09727173,0.01939878
1381.02607910,0.01948276
1382.95488647,0.01944770
1384.88369385,0.01946003
1386.81250122,0.01877909
1388.74130859,0.01910933
1390.67011597,0.02022573
1392.59892334,0.01985219
1394.52773071,0.01888695
1396.45653809,0.01964538
1398.38534546,0.01971717
1400.31415283,0.01958762
1402.24296021,0.02109009
1404.17176758,0.01987998
1406.10057495,0.02000521
1408.02938232,0.02090655
1409.95818970,0.02021679
1411.88699707,0.02079067
1413.81580444,0.01992837
1415.74461182,0.02032872
1417.67341919,0.01859525
1419.60222656,0.01652915
1421.53103394,0.01883609
1423.45984131,0.01832885
1425.38864868,0.01788821
1427.31745605,0.01812633
1429.24626343,0.01679956
1431.17507080,0.01628351
1433.10387817,0.01653142
1435.03268555,0.01495722
1436.96149292,0.01261800
1438.89030029,0.01468745
1440.81910767,0.01498889
1442.74791504,0.01382197
1444.67672241,0.01456817
1446.60552979,0.01336698
1448.53433716,0.01374560
1450.46314453,0.01424410
1452.39195190,0.01449186
1454.32075928,0.01497510
1456.24956665,0.01244622
1458.17837402,0.01311975
1460.10718140,0.01719970
1462.03598877,0.01831579
1463.96479614,0.01825537
1465.89360352,0.01886402
1467.82241089,0.02148968
1469.75121826,0.02334359
1471.68002563,0.02098954
1473.60883301,0.02170112
1475.53764038,0.02464962
1477.46644775,0.02684144
1479.39525513,0.02935039
1481.32406250,0.02981341
1483.25286987,0.03165678
1485.18167725,0.03254145
1487.11048462,0.03208356
1489.03929199,0.03182846
1490.96809937,0.03211981
1492.89690674,0.03723284
1494.82571411,0.03644050
1496.75452148,0.03298227
1498.68332886,0.03698747
1500.61213623,0.03825390
1502.54094360,0.04093200
1504.46975098,0.03883993
1506.39855835,0.02871522
1508.32736572,0.03458121
1510.25617310,0.04062653
1512.18498047,0.03928866
1514.11378784,0.04247620
1516.04259521,0.03865032
1517.97140259,0.04012176
1519.90020996,0.03875626
1521.82901733,0.03384194
1523.75782471,0.04132518
1525.68663208,0.04046375
1527.61543945,0.04036126
1529.54424683,0.04468861
1531.47305420,0.04284111
1533.40186157,0.03949748
1535.33066895,0.04174694
1537.25947632,0.04462749
1539.18828369,0.03250505
1541.11709106,0.03385952
1543.04589844,0.04049143
1544.97470581,0.03882584
1546.90351318,0.04554230
1548.83232056,0.04266152
1550.76112793,0.04407423
1552.68993530,0.04394239
1554.61874268,0.04001811
1556.54755005,0.04274708
1558.47635742,0.03070813
1560.40516479,0.03300362
1562.33397217,0.04615724
1564.26277954,0.04391316
1566.19158691,0.04507529
1568.12039429,0.04446395
1570.04920166,0.03975778
1571.97800903,0.04554667
1573.90681641,0.04621197
1575.83562378,0.03709924
1577.76443115,0.04166354
1579.69323853,0.04702599
1581.62204590,0.04508996
1583.55085327,0.04622635
1585.47966064,0.04553159
1587.40846802,0.04591157
1589.33727539,0.04550903
1591.26608276,0.04550757
1593.19489014,0.04566706
1595.12369751,0.04506305
1597.05250488,0.04587644
1598.98131226,0.04559425
1600.91011963,0.04580835
1602.83892700,0.04515411
1604.76773437,0.04591015
1606.69654175,0.04526615
1608.62534912,0.04524671
1610.55415649,0.04526597
1612.48296387,0.04546839
1614.41177124,0.04626685
1616.34057861,0.03813431
1618.26938599,0.04115861
1620.19819336,0.04765798
1622.12700073,0.04244700
1624.05580811,0.04284756
1625.98461548,0.04473870
1627.91342285,0.04470757
1629.84223022,0.04445288
1631.77103760,0.04730153
1633.69984497,0.04396367
1635.62865234,0.03649001
1637.55745972,0.04233611
1639.48626709,0.04627591
1641.41507446,0.04531155
1643.34388184,0.04652176
1645.27268921,0.04198758
1647.20149658,0.03727360
1649.13030396,0.04574860
1651.05911133,0.04362790
1652.98791870,0.02862027
1654.91672607,0.03841444
1656.84553345,0.04788335
1658.77434082,0.04556606
1660.70314819,0.04711663
1662.63195557,0.04297860
1664.56076294,0.04528859
1666.48957031,0.04856235
1668.41837769,0.04250752
1670.34718506,0.04151206
1672.27599243,0.04685870
1674.20479980,0.04338101
1676.13360718,0.04158615
1678.06241455,0.04787798
1679.99122192,0.04616745
1681.92002930,0.04560168
1683.84883667,0.03754178
1685.77764404,0.03708354
1687.70645142,0.05033694
1689.63525879,0.04393880
1691.56406616,0.04801966
1693.49287354,0.04891407
1695.42168091,0.03629605
1697.35048828,0.04437383
1699.27929565,0.03934277
1701.20810303,0.03562747
1703.13691040,0.04759203
1705.06571777,0.04395810
1706.99452515,0.04433766
1708.92333252,0.04803479
1710.85213989,0.04612841
1712.78094727,0.04694288
1714.70975464,0.04403366
1716.63856201,0.03950652
1718.56736938,0.03896932
1720.49617676,0.04596316
1722.42498413,0.04742348
1724.35379150,0.04440089
1726.28259888,0.04828573
1728.21140625,0.04455303
1730.14021362,0.04482172
1732.06902100,0.04375011
1733.99782837,0.03386852
1735.92663574,0.04189953
1737.85544312,0.04599708
1739.78425049,0.04103317
1741.71305786,0.04471873
1743.64186523,0.04541177
1745.57067261,0.04542975
1747.49947998,0.04567174
1749.42828735,0.04382853
1751.35709473,0.04204589
1753.28590210,0.04643466
1755.21470947,0.04856402
1757.14351685,0.04445693
1759.07232422,0.04876887
1761.00113159,0.04606292
1762.92993896,0.04459962
1764.85874634,0.05062652
1766.78755371,0.04565187
1768.71636108,0.04598612
1770.64516846,0.04594143
1772.57397583,0.04159933
1774.50278320,0.04612012
1776.43159058,0.04878363
1778.36039795,0.04794485
1780.28920532,0.04749959
1782.21801270,0.04808994
1784.14682007,0.04785258
1786.07562744,0.04694345
1788.00443481,0.04934691
1789.93324219,0.04823901
1791.86204956,0.04369843
1793.79085693,0.04559922
1795.71966431,0.04894084
1797.64847168,0.04809421
1799.57727905,0.04759545
1801.50608643,0.04699897
1803.43489380,0.04829333
1805.36370117,0.04938428
1807.29250854,0.04882328
1809.22131592,0.04899869
1811.15012329,0.04774709
1813.07893066,0.04905058
1815.00773804,0.04937579
1816.93654541,0.04894536
1818.86535278,0.04940087
1820.79416016,0.04931758
1822.72296753,0.04997671
1824.65177490,0.04688549
1826.58058228,0.04846345
1828.50938965,0.04848845
1830.43819702,0.04559734
1832.36700439,0.04949635
1834.29581177,0.04925293
1836.22461914,0.04920235
1838.15342651,0.04911831
1840.08223389,0.04944069
1842.01104126,0.04961197
1843.93984863,0.04425427
1845.86865601,0.04700159
1847.79746338,0.04952180
1849.72627075,0.04850521
1851.65507812,0.04992492
1853.58388550,0.04896177
1855.51269287,0.04956226
1857.44150024,0.04915803
1859.37030762,0.04893843
1861.29911499,0.04943135
1863.22792236,0.04882341
1865.15672974,0.04937788
1867.08553711,0.04774877
1869.01434448,0.04603638
1870.94315186,0.04766870
1872.87195923,0.04936657
1874.80076660,0.04880127
1876.72957397,0.04903953
1878.65838135,0.04896786
1880.58718872,0.04858327
1882.51599609,0.04916609
1884.44480347,0.04836631
1886.37361084,0.04897252
1888.30241821,0.04808903
1890.23122559,0.04711157
1892.16003296,0.04893346
1894.08884033,0.04820397
1896.01764771,0.04812879
1897.94645508,0.04865522
1899.87526245,0.04836247
1901.80406982,0.04873389
1903.73287720,0.04829224
1905.66168457,0.04841695
1907.59049194,0.04807828
1909.51929932,0.04794388
1911.44810669,0.04808591
1913.37691406,0.04812285
1915.30572144,0.04881100
1917.23452881,0.04667267
1919.16333618,0.04679554
1921.09214355,0.04859287
1923.02095093,0.04704774
1924.94975830,0.04792595
1926.87856567,0.04834516
1928.80737305,0.04790359
1930.73618042,0.04855202
1932.66498779,0.04783371
1934.59379517,0.04839788
1936.52260254,0.04817720
1938.45140991,0.04814759
1940.38021729,0.04809491
1942.30902466,0.04681722
1944.23783203,0.04778361
1946.16663940,0.04808375
1948.09544678,0.04805243
1950.02425415,0.04831504
1951.95306152,0.04800963
1953.88186890,0.04809421
1955.81067627,0.04786438
1957.73948364,0.04813256
1959.66829102,0.04812909
1961.59709839,0.04806447
1963.52590576,0.04830268
1965.45471313,0.04797954
1967.38352051,0.04768157
1969.31232788,0.04800204
1971.24113525,0.04824746
1973.16994263,0.04803795
1975.09875000,0.04818335
1977.02755737,0.04795583
1978.95636475,0.04808674
1980.88517212,0.04810771
1982.81397949,0.04774553
1984.74278687,0.04796041
1986.67159424,0.04768039
1988.60040161,0.04787158
1990.52920898,0.04750252
1992.45801636,0.04695925
1994.38682373,0.04771706
1996.31563110,0.04773815
1998.24443848,0.04746228
2000.17324585,0.04762823
2002.10205322,0.04757866
2004.03086060,0.04740440
2005.95966797,0.04744275
2007.88847534,0.04733521
2009.81728271,0.04735881
2011.74609009,0.04737185
2013.67489746,0.04715279
2015.60370483,0.04705595
2017.53251221,0.04663082
2019.46131958,0.04684502
2021.39012695,0.04698187
2023.31893433,0.04679940
2025.24774170,0.04697516
2027.17654907,0.04672905
2029.10535645,0.04661406
2031.03416382,0.04653052
2032.96297119,0.04656725
2034.89177856,0.04636008
2036.82058594,0.04633151
2038.74939331,0.04646786
2040.67820068,0.04589479
2042.60700806,0.04601697
2044.53581543,0.04613935
2046.46462280,0.04606889
2048.39343018,0.04596173
2050.32223755,0.04572085
2052.25104492,0.04601541
2054.17985229,0.04585315
2056.10865967,0.04568902
2058.03746704,0.04566213
2059.96627441,0.04557070
2061.89508179,0.04561680
2063.82388916,0.04542990
2065.75269653,0.04534788
2067.68150391,0.04537894
2069.61031128,0.04547885
2071.53911865,0.04541923
2073.46792603,0.04531147
2075.39673340,0.04521172
2077.32554077,0.04495865
2079.25434814,0.04495145
2081.18315552,0.04505236
2083.11196289,0.04498875
2085.04077026,0.04487057
2086.96957764,0.04492196
2088.89838501,0.04483942
2090.82719238,0.04471005
2092.75599976,0.04470140
2094.68480713,0.04456318
2096.61361450,0.04465970
2098.54242187,0.04455039
2100.47122925,0.04433583
2102.40003662,0.04453029
2104.32884399,0.04447350
2106.25765137,0.04446502
2108.18645874,0.04438928
2110.11526611,0.04413068
2112.04407349,0.04436800
2113.97288086,0.04428320
2115.90168823,0.04404707
2117.83049561,0.04421889
2119.75930298,0.04425444
2121.68811035,0.04417473
2123.61691772,0.04395246
2125.54572510,0.04394255
2127.47453247,0.04398886
2129.40333984,0.04385166
2131.33214722,0.04388012
2133.26095459,0.04382698
2135.18976196,0.04371720
2137.11856934,0.04359710
2139.04737671,0.04372700
2140.97618408,0.04387860
2142.90499146,0.04365988
2144.83379883,0.04365753
2146.76260620,0.04367397
2148.69141357,0.04354119
2150.62022095,0.04368079
2152.54902832,0.04372112
2154.47783569,0.04350474
2156.40664307,0.04345886
2158.33545044,0.04346696
2160.26425781,0.04353479
2162.19306519,0.04339006
2164.12187256,0.04321574
2166.05067993,0.04352142
2167.97948730,0.04334386
2169.90829468,0.04322989
2171.83710205,0.04350202
2173.76590942,0.04327933
2175.69471680,0.04309928
2177.62352417,0.04307452
2179.55233154,0.04312149
2181.48113892,0.04313572
2183.40994629,0.04317884
2185.33875366,0.04318880
2187.26756104,0.04300135
2189.19636841,0.04299898
2191.12517578,0.04297207
2193.05398315,0.04302872
2194.98279053,0.04305089
2196.91159790,0.04300442
2198.84040527,0.04298646
2200.76921265,0.04277925
2202.69802002,0.04286749
2204.62682739,0.04285318
2206.55563477,0.04269635
2208.48444214,0.04293041
2210.41324951,0.04294364
2212.34205688,0.04278798
2214.27086426,0.04281654
2216.19967163,0.04275309
2218.12847900,0.04268974
2220.05728638,0.04262222
2221.98609375,0.04259056
2223.91490112,0.04264662
2225.84370850,0.04248324
2227.77251587,0.04246102
2229.70132324,0.04250586
2231.63013062,0.04237198
2233.55893799,0.04246243
2235.48774536,0.04249134
2237.41655273,0.04232294
2239.34536011,0.04221914
2241.27416748,0.04217357
2243.20297485,0.04217033
2245.13178223,0.04216953
2247.06058960,0.04213656
2248.98939697,0.04210201
2250.91820435,0.04197721
2252.84701172,0.04186644
2254.77581909,0.04189792
2256.70462646,0.04190883
2258.63343384,0.04189976
2260.56224121,0.04173615
2262.49104858,0.04168311
2264.41985596,0.04184034
2266.34866333,0.04183075
2268.27747070,0.04174423
2270.20627808,0.04170701
2272.13508545,0.04169207
2274.06389282,0.04149881
2275.99270020,0.04157703
2277.92150757,0.04171497
2279.85031494,0.04157229
2281.77912231,0.04163439
2283.70792969,0.04153685
2285.63673706,0.04149119
2287.56554443,0.04141153
2289.49435181,0.04129380
2291.42315918,0.04138198
2293.35196655,0.04119618
2295.28077393,0.04114416
2297.20958130,0.04108282
2299.13838867,0.04084548
2301.06719604,0.04070232
2302.99600342,0.04054081
2304.92481079,0.04036491
2306.85361816,0.04017472
2308.78242554,0.04002265
2310.71123291,0.03975863
2312.64004028,0.03930283
2314.56884766,0.03887307
2316.49765503,0.03852154
2318.42646240,0.03801180
2320.35526978,0.03764076
2322.28407715,0.03714744
2324.21288452,0.03657248
2326.14169189,0.03639234
2328.07049927,0.03593906
2329.99930664,0.03560360
2331.92811401,0.03532657
2333.85692139,0.03504469
2335.78572876,0.03500880
2337.71453613,0.03489693
2339.64334351,0.03494994
2341.57215088,0.03501040
2343.50095825,0.03556364
2345.42976562,0.03630422
2347.35857300,0.03768755
2349.28738037,0.03894927
2351.21618774,0.03764284
2353.14499512,0.03577789
2355.07380249,0.03456266
2357.00260986,0.03365688
2358.93141724,0.03301813
2360.86022461,0.03250657
2362.78903198,0.03262120
2364.71783936,0.03275426
2366.64664673,0.03321370
2368.57545410,0.03389245
2370.50426147,0.03458051
2372.43306885,0.03559151
2374.36187622,0.03654786
2376.29068359,0.03752454
2378.21949097,0.03831187
2380.14829834,0.03900734
2382.07710571,0.03954947
2384.00591309,0.03975680
2385.93472046,0.03984955
2387.86352783,0.03987174
2389.79233521,0.03995412
2391.72114258,0.04008119
2393.64994995,0.03998409
2395.57875732,0.03982811
2397.50756470,0.03994656
2399.43637207,0.03995670
2401.36517944,0.03983182
2403.29398682,0.03961229
2405.22279419,0.03961406
2407.15160156,0.03978514
2409.08040894,0.03970814
2411.00921631,0.03971669
2412.93802368,0.03952658
2414.86683105,0.03949080
2416.79563843,0.03950319
2418.72444580,0.03947163
2420.65325317,0.03960088
2422.58206055,0.03941740
2424.51086792,0.03948668
2426.43967529,0.03950577
2428.36848267,0.03938525
2430.29729004,0.03925319
2432.22609741,0.03922772
2434.15490479,0.03940183
2436.08371216,0.03918542
2438.01251953,0.03918709
2439.94132690,0.03918710
2441.87013428,0.03912396
2443.79894165,0.03911573
2445.72774902,0.03899061
2447.65655640,0.03909572
2449.58536377,0.03905515
2451.51417114,0.03900646
2453.44297852,0.03899973
2455.37178589,0.03899168
2457.30059326,0.03896196
2459.22940063,0.03898107
2461.15820801,0.03890454
2463.08701538,0.03872714
2465.01582275,0.03889447
2466.94463013,0.03880312
2468.87343750,0.03872532
2470.80224487,0.03870320
2472.73105225,0.03855000
2474.65985962,0.03857642
2476.58866699,0.03857955
2478.51747437,0.03861091
2480.44628174,0.03850576
2482.37508911,0.03853027
2484.30389648,0.03846001
2486.23270386,0.03837015
2488.16151123,0.03846506
2490.09031860,0.03833373
2492.01912598,0.03826527
2493.94793335,0.03823254
2495.87674072,0.03828655
2497.80554810,0.03823635
2499.73435547,0.03823774
2501.66316284,0.03818932
2503.59197021,0.03806522
2505.52077759,0.03827910
2507.44958496,0.03815800
2509.37839233,0.03816196
2511.30719971,0.03823573
2513.23600708,0.03806539
2515.16481445,0.03796734
2517.09362183,0.03784294
2519.02242920,0.03798064
2520.95123657,0.03797685
2522.88004395,0.03792562
2524.80885132,0.03786311
2526.73765869,0.03770992
2528.66646606,0.03780335
2530.59527344,0.03783376
2532.52408081,0.03777208
2534.45288818,0.03776225
2536.38169556,0.03778196
2538.31050293,0.03762337
2540.23931030,0.03758705
2542.16811768,0.03763263
2544.09692505,0.03755703
2546.02573242,0.03760227
2547.95453979,0.03747221
2549.88334717,0.03743369
2551.81215454,0.03748135
2553.74096191,0.03743528
2555.66976929,0.03745468
2557.59857666,0.03731922
2559.52738403,0.03724980
2561.45619141,0.03732379
2563.38499878,0.03722358
2565.31380615,0.03715256
2567.24261353,0.03725941
2569.17142090,0.03721464
2571.10022827,0.03717602
2573.02903564,0.03710653
2574.95784302,0.03707325
2576.88665039,0.03723416
2578.81545776,0.03708538
2580.74426514,0.03697385
2582.67307251,0.03700666
2584.60187988,0.03695918
2586.53068726,0.03685606
2588.45949463,0.03676632
2590.38830200,0.03694784
2592.31710937,0.03683505
2594.24591675,0.03665220
2596.17472412,0.03677663
2598.10353149,0.03669561
2600.03233887,0.03660531
2601.96114624,0.03656707
2603.88995361,0.03651714
2605.81876099,0.03655384
2607.74756836,0.03652195
2609.67637573,0.03654173
2611.60518311,0.03658205
2613.53399048,0.03648403
2615.46279785,0.03642881
2617.39160522,0.03644283
2619.32041260,0.03643968
2621.24921997,0.03636635
2623.17802734,0.03631620
2625.10683472,0.03633550
2627.03564209,0.03630377
2628.96444946,0.03626073
2630.89325684,0.03615008
2632.82206421,0.03611682
2634.75087158,0.03615206
2636.67967895,0.03613028
2638.60848633,0.03610615
2640.53729370,0.03601567
2642.46610107,0.03598801
2644.39490845,0.03591207
2646.32371582,0.03585188
2648.25252319,0.03589751
2650.18133057,0.03590891
2652.11013794,0.03584788
2654.03894531,0.03574988
2655.96775269,0.03580268
2657.89656006,0.03571548
2659.82536743,0.03565030
2661.75417480,0.03569046
2663.68298218,0.03555989
2665.61178955,0.03554590
2667.54059692,0.03553269
2669.46940430,0.03548875
2671.39821167,0.03547376
2673.32701904,0.03546892
2675.25582642,0.03546646
2677.18463379,0.03540029
2679.11344116,0.03533855
2681.04224854,0.03526453
2682.97105591,0.03531821
2684.89986328,0.03532408
2686.82867065,0.03518990
2688.75747803,0.03513959
2690.68628540,0.03511772
2692.61509277,0.03506184
2694.54390015,0.03509524
2696.47270752,0.03512376
2698.40151489,0.03499658
2700.33032227,0.03499372
2702.25912964,0.03494914
2704.18793701,0.03484179
2706.11674438,0.03493438
2708.04555176,0.03494292
2709.97435913,0.03479260
2711.90316650,0.03467011
2713.83197388,0.03465938
2715.76078125,0.03464179
2717.68958862,0.03467854
2719.61839600,0.03468212
2721.54720337,0.03459358
2723.47601074,0.03461693
2725.40481812,0.03459176
2727.33362549,0.03456143
2729.26243286,0.03452796
2731.19124023,0.03442887
2733.12004761,0.03435959
2735.04885498,0.03434439
2736.97766235,0.03437764
2738.90646973,0.03434011
2740.83527710,0.03421433
2742.76408447,0.03420668
2744.69289185,0.03428125
2746.62169922,0.03413819
2748.55050659,0.03411769
2750.47931396,0.03414777
2752.40812134,0.03398551
2754.33692871,0.03395759
2756.26573608,0.03395606
2758.19454346,0.03395654
2760.12335083,0.03385448
2762.05215820,0.03375358
2763.98096558,0.03374515
2765.90977295,0.03377371
2767.83858032,0.03379256
2769.76738770,0.03364176
2771.69619507,0.03365531
2773.62500244,0.03356808
2775.55380981,0.03347516
2777.48261719,0.03353347
2779.41142456,0.03348523
2781.34023193,0.03346623
2783.26903931,0.03334934
2785.19784668,0.03337095
2787.12665405,0.03324349
2789.05546143,0.03317815
2790.98426880,0.03334230
2792.91307617,0.03316648
2794.84188354,0.03313618
2796.77069092,0.03308683
2798.69949829,0.03303993
2800.62830566,0.03305122
2802.55711304,0.03287670
2804.48592041,0.03293305
2806.41472778,0.03295502
2808.34353516,0.03285616
2810.27234253,0.03283165
2812.20114990,0.03283880
2814.12995728,0.03275251
2816.05876465,0.03267382
2817.98757202,0.03267518
2819.91637939,0.03252911
2821.84518677,0.03247193
2823.77399414,0.03243410
2825.70280151,0.03238521
2827.63160889,0.03241383
2829.56041626,0.03235589
2831.48922363,0.03236728
2833.41803101,0.03224166
2835.34683838,0.03201828
2837.27564575,0.03203504
2839.20445312,0.03205235
2841.13326050,0.03202063
2843.06206787,0.03193687
2844.99087524,0.03172709
2846.91968262,0.03157201
2848.84848999,0.03146087
2850.77729736,0.03138039
2852.70610474,0.03132486
2854.63491211,0.03135910
2856.56371948,0.03136908
2858.49252686,0.03121576
2860.42133423,0.03122825
2862.35014160,0.03125342
2864.27894897,0.03122802
2866.20775635,0.03119122
2868.13656372,0.03108626
2870.06537109,0.03108718
2871.99417847,0.03103031
2873.92298584,0.03107398
2875.85179321,0.03099630
2877.78060059,0.03080342
2879.70940796,0.03094536
2881.63821533,0.03092366
2883.56702270,0.03075709
2885.49583008,0.03077232
2887.42463745,0.03081752
2889.35344482,0.03077870
2891.28225220,0.03069839
2893.21105957,0.03063296
2895.13986694,0.03055340
2897.06867432,0.03053328
2898.99748169,0.03047196
2900.92628906,0.03034712
2902.85509644,0.03031059
2904.78390381,0.03030477
2906.71271118,0.03015087
2908.64151855,0.03004538
2910.57032593,0.03003967
2912.49913330,0.02989632
2914.42794067,0.02976159
2916.35674805,0.02965900
2918.28555542,0.02966588
2920.21436279,0.02964155
2922.14317017,0.02950649
2924.07197754,0.02949938
2926.00078491,0.02949696
2927.92959229,0.02952316
2929.85839966,0.02947554
2931.78720703,0.02942686
2933.71601440,0.02940151
2935.64482178,0.02936960
2937.57362915,0.02947683
2939.50243652,0.02942701
2941.43124390,0.02943747
2943.36005127,0.02945035
2945.28885864,0.02929442
2947.21766602,0.02927099
2949.14647339,0.02929191
2951.07528076,0.02935186
2953.00408813,0.02923939
2954.93289551,0.02911551
2956.86170288,0.02910660
2958.79051025,0.02897106
2960.71931763,0.02900000
2962.64812500,0.02892186
2964.57693237,0.02882816
2966.50573975,0.02899105
2968.43454712,0.02888750
2970.36335449,0.02886620
2972.29216187,0.02903935
2974.22096924,0.02896419
2976.14977661,0.02893040
2978.07858398,0.02898266
2980.00739136,0.02896125
2981.93619873,0.02900651
2983.86500610,0.02905634
2985.79381348,0.02894105
2987.72262085,0.02888443
2989.65142822,0.02893960
2991.58023560,0.02889144
2993.50904297,0.02879533
2995.43785034,0.02871031
2997.36665771,0.02876138
2999.29546509,0.02879056
3001.22427246,0.02870136
3003.15307983,0.02861831
3005.08188721,0.02852133
3007.01069458,0.02856089
3008.93950195,0.02854515
3010.86830933,0.02846781
3012.79711670,0.02841017
3014.72592407,0.02836284
3016.65473145,0.02844509
3018.58353882,0.02838368
3020.51234619,0.02828492
3022.44115356,0.02823136
3024.36996094,0.02817851
3026.29876831,0.02818702
3028.22757568,0.02810421
3030.15638306,0.02801956
3032.08519043,0.02796984
3034.01399780,0.02787546
3035.94280518,0.02783170
3037.87161255,0.02789691
3039.80041992,0.02781772
3041.72922729,0.02771056
3043.65803467,0.02768710
3045.58684204,0.02765130
3047.51564941,0.02765650
3049.44445679,0.02747342
3051.37326416,0.02749222
3053.30207153,0.02759401
3055.23087891,0.02745544
3057.15968628,0.02745809
3059.08849365,0.02740275
3061.01730103,0.02736777
3062.94610840,0.02727367
3064.87491577,0.02710091
3066.80372314,0.02709784
3068.73253052,0.02706087
3070.66133789,0.02707538
3072.59014526,0.02711118
3074.51895264,0.02707471
3076.44776001,0.02704412
3078.37656738,0.02703812
3080.30537476,0.02688808
3082.23418213,0.02676046
3084.16298950,0.02686725
3086.09179687,0.02683211
3088.02060425,0.02675112
3089.94941162,0.02671623
3091.87821899,0.02664314
3093.80702637,0.02661963
3095.73583374,0.02656251
3097.66464111,0.02651215
3099.59344849,0.02639578
3101.52225586,0.02626485
3103.45106323,0.02636917
3105.37987061,0.02651205
3107.30867798,0.02641840
3109.23748535,0.02625395
3111.16629272,0.02617119
3113.09510010,0.02614304
3115.02390747,0.02608428
3116.95271484,0.02598477
3118.88152222,0.02593362
3120.81032959,0.02584650
3122.73913696,0.02582201
3124.66794434,0.02586157
3126.59675171,0.02576884
3128.52555908,0.02573221
3130.45436645,0.02575435
3132.38317383,0.02558668
3134.31198120,0.02549878
3136.24078857,0.02555133
3138.16959595,0.02548717
3140.09840332,0.02543145
3142.02721069,0.02528607
3143.95601807,0.02524623
3145.88482544,0.02525718
3147.81363281,0.02506215
3149.74244019,0.02509102
3151.67124756,0.02502511
3153.60005493,0.02491231
3155.52886230,0.02500493
3157.45766968,0.02494719
3159.38647705,0.02489289
3161.31528442,0.02482118
3163.24409180,0.02476295
3165.17289917,0.02471847
3167.10170654,0.02463462
3169.03051392,0.02456522
3170.95932129,0.02447471
3172.88812866,0.02452782
3174.81693604,0.02440130
3176.74574341,0.02424512
3178.67455078,0.02438576
3180.60335815,0.02426976
3182.53216553,0.02416411
3184.46097290,0.02418153
3186.38978027,0.02401674
3188.31858765,0.02405621
3190.24739502,0.02399231
3192.17620239,0.02393929
3194.10500977,0.02405734
3196.03381714,0.02390029
3197.96262451,0.02386523
3199.89143188,0.02383137
3201.82023926,0.02374058
3203.74904663,0.02372924
3205.67785400,0.02363873
3207.60666138,0.02360244
3209.53546875,0.02352384
3211.46427612,0.02347196
3213.39308350,0.02343938
3215.32189087,0.02351464
3217.25069824,0.02348846
3219.17950562,0.02335740
3221.10831299,0.02340716
3223.03712036,0.02329745
3224.96592773,0.02326729
3226.89473511,0.02331037
3228.82354248,0.02326628
3230.75234985,0.02314774
3232.68115723,0.02302436
3234.60996460,0.02305246
3236.53877197,0.02304905
3238.46757935,0.02303030
3240.39638672,0.02296529
3242.32519409,0.02309734
3244.25400146,0.02301840
3246.18280884,0.02281539
3248.11161621,0.02294451
3250.04042358,0.02282384
3251.96923096,0.02279182
3253.89803833,0.02284343
3255.82684570,0.02284881
3257.75565308,0.02282989
3259.68446045,0.02270946
3261.61326782,0.02273612
3263.54207520,0.02272535
3265.47088257,0.02274269
3267.39968994,0.02265022
3269.32849731,0.02266993
3271.25730469,0.02276017
3273.18611206,0.02260792
3275.11491943,0.02257026
3277.04372681,0.02261245
3278.97253418,0.02260949
3280.90134155,0.02257165
3282.83014893,0.02255653
3284.75895630,0.02242652
3286.68776367,0.02251390
3288.61657104,0.02259650
3290.54537842,0.02238045
3292.47418579,0.02238926
3294.40299316,0.02232840
3296.33180054,0.02234006
3298.26060791,0.02235963
3300.18941528,0.02229804
3302.11822266,0.02236398
3304.04703003,0.02235716
3305.97583740,0.02230494
3307.90464478,0.02220771
3309.83345215,0.02219702
3311.76225952,0.02205478
3313.69106689,0.02211317
3315.61987427,0.02222043
3317.54868164,0.02206616
3319.47748901,0.02212865
3321.40629639,0.02212256
3323.33510376,0.02204329
3325.26391113,0.02201166
3327.19271851,0.02216905
3329.12152588,0.02206932
3331.05033325,0.02188157
3332.97914062,0.02207133
3334.90794800,0.02194856
3336.83675537,0.02189370
3338.76556274,0.02187877
3340.69437012,0.02179235
3342.62317749,0.02181900
3344.55198486,0.02178570
3346.48079224,0.02178379
3348.40959961,0.02171262
3350.33840698,0.02167502
3352.26721436,0.02167737
3354.19602173,0.02168090
3356.12482910,0.02153929
3358.05363647,0.02153713
3359.98244385,0.02150346
3361.91125122,0.02136726
3363.84005859,0.02147327
3365.76886597,0.02140426
3367.69767334,0.02145068
3369.62648071,0.02144567
3371.55528809,0.02144904
3373.48409546,0.02144765
3375.41290283,0.02129748
3377.34171020,0.02130256
3379.27051758,0.02113857
3381.19932495,0.02122784
3383.12813232,0.02126999
3385.05693970,0.02117812
3386.98574707,0.02110065
3388.91455444,0.02097161
3390.84336182,0.02100329
3392.77216919,0.02092034
3394.70097656,0.02095664
3396.62978394,0.02080845
3398.55859131,0.02075488
3400.48739868,0.02078394
3402.41620605,0.02078613
3404.34501343,0.02089854
3406.27382080,0.02071424
3408.20262817,0.02077153
3410.13143555,0.02074742
3412.06024292,0.02073081
3413.98905029,0.02063348
3415.91785767,0.02052790
3417.84666504,0.02062764
3419.77547241,0.02029958
3421.70427979,0.02034818
3423.63308716,0.02047509
3425.56189453,0.02042604
3427.49070190,0.02037949
3429.41950928,0.02033322
3431.34831665,0.02040553
3433.27712402,0.02029821
3435.20593140,0.02027326
3437.13473877,0.02011980
3439.06354614,0.02018502
3440.99235352,0.02012721
3442.92116089,0.01999432
3444.84996826,0.02012067
3446.77877563,0.01987913
3448.70758301,0.02001915
3450.63639038,0.02013968
3452.56519775,0.02001167
3454.49400513,0.02009088
3456.42281250,0.02001401
3458.35161987,0.01991034
3460.28042725,0.01992369
3462.20923462,0.01985835
3464.13804199,0.01971373
3466.06684937,0.01978562
3467.99565674,0.01981579
3469.92446411,0.01984775
3471.85327148,0.01981881
3473.78207886,0.01975249
3475.71088623,0.01977263
3477.63969360,0.01977293
3479.56850098,0.01977882
3481.49730835,0.01954158
3483.42611572,0.01965709
3485.35492310,0.01970006
3487.28373047,0.01951052
3489.21253784,0.01957607
3491.14134521,0.01957403
3493.07015259,0.01967688
3494.99895996,0.01962072
3496.92776733,0.01958340
3498.85657471,0.01962292
3500.78538208,0.01963989
3502.71418945,0.01935857
3504.64299683,0.01923369
3506.57180420,0.01971227
3508.50061157,0.01948428
3510.42941895,0.01932214
3512.35822632,0.01959554
3514.28703369,0.01962485
3516.21584106,0.01952890
3518.14464844,0.01937611
3520.07345581,0.01955587
3522.00226318,0.01947290
3523.93107056,0.01917085
3525.85987793,0.01924952
3527.78868530,0.01937125
3529.71749268,0.01927344
3531.64630005,0.01943460
3533.57510742,0.01963658
3535.50391479,0.01939477
3537.43272217,0.01935730
3539.36152954,0.01952633
3541.29033691,0.01946872
3543.21914429,0.01923427
3545.14795166,0.01894777
3547.07675903,0.01875500
3549.00556641,0.01928890
3550.93437378,0.01942874
3552.86318115,0.01900244
3554.79198853,0.01938927
3556.72079590,0.01943074
3558.64960327,0.01941287
3560.57841064,0.01921458
3562.50721802,0.01912505
3564.43602539,0.01924730
3566.36483276,0.01790369
3568.29364014,0.01766217
3570.22244751,0.01897341
3572.15125488,0.01946249
3574.08006226,0.01930283
3576.00886963,0.01929613
3577.93767700,0.01923077
3579.86648437,0.01916374
3581.79529175,0.01921836
3583.72409912,0.01919506
3585.65290649,0.01889150
3587.58171387,0.01741974
3589.51052124,0.01786981
3591.43932861,0.01943269
3593.36813599,0.01878421
3595.29694336,0.01863264
3597.22575073,0.01898725
3599.15455811,0.01899149
3601.08336548,0.01886661
3603.01217285,0.01906929
3604.94098022,0.01943160
3606.86978760,0.01875700
3608.79859497,0.01767201
3610.72740234,0.01803981
3612.65620972,0.01852057
3614.58501709,0.01792293
3616.51382446,0.01910786
3618.44263184,0.01792144
3620.37143921,0.01726175
3622.30024658,0.01931936
3624.22905395,0.01885941
3626.15786133,0.01962032
3628.08666870,0.01673227
3630.01547607,0.01535398
3631.94428345,0.01915509
3633.87309082,0.01866500
3635.80189819,0.01896538
3637.73070557,0.01924719
3639.65951294,0.01896054
3641.58832031,0.01922383
3643.51712769,0.01896213
3645.44593506,0.01913147
3647.37474243,0.01721825
3649.30354980,0.01592259
3651.23235718,0.01617542
3653.16116455,0.01897066
3655.08997192,0.01872788
3657.01877930,0.01688479
3658.94758667,0.01929562
3660.87639404,0.01893083
3662.80520142,0.01923830
3664.73400879,0.01900126
3666.66281616,0.01884040
3668.59162354,0.01848876
3670.52043091,0.01509538
3672.44923828,0.01808803
3674.37804565,0.01732881
3676.30685303,0.01447754
3678.23566040,0.01799885
3680.16446777,0.01841274
3682.09327515,0.01857647
3684.02208252,0.01904711
3685.95088989,0.01870468
3687.87969727,0.01700389
3689.80850464,0.01555994
3691.73731201,0.01760096
3693.66611938,0.01824603
3695.59492676,0.01870231
3697.52373413,0.01857481
3699.45254150,0.01839531
3701.38134888,0.01795522
3703.31015625,0.01729833
3705.23896362,0.01907812
3707.16777100,0.01806899
3709.09657837,0.01763061
3711.02538574,0.01676139
3712.95419312,0.01566664
3714.88300049,0.01828020
3716.81180786,0.01798636
3718.74061523,0.01820779
3720.66942261,0.01791358
3722.59822998,0.01711524
3724.52703735,0.01781926
3726.45584473,0.01659604
3728.38465210,0.01785183
3730.31345947,0.01774302
3732.24226685,0.01635544
3734.17107422,0.01598240
3736.09988159,0.01520846
3738.02868896,0.01608242
3739.95749634,0.01741469
3741.88630371,0.01827045
3743.81511108,0.01432990
3745.74391846,0.01340936
3747.67272583,0.01731526
3749.60153320,0.01512786
3751.53034058,0.01388378
3753.45914795,0.01575413
3755.38795532,0.01700687
3757.31676270,0.01765498
3759.24557007,0.01639225
3761.17437744,0.01698341
3763.10318481,0.01793159
3765.03199219,0.01683169
3766.96079956,0.01714095
3768.88960693,0.01692301
3770.81841431,0.01617270
3772.74722168,0.01743688
3774.67602905,0.01756356
3776.60483643,0.01757852
3778.53364380,0.01710172
3780.46245117,0.01638087
3782.39125854,0.01745664
3784.32006592,0.01713765
3786.24887329,0.01697169
3788.17768066,0.01731317
3790.10648804,0.01724725
3792.03529541,0.01720929
3793.96410278,0.01737904
3795.89291016,0.01635117
3797.82171753,0.01624493
3799.75052490,0.01709670
3801.67933228,0.01371073
3803.60813965,0.01581963
3805.53694702,0.01718653
3807.46575439,0.01423139
3809.39456177,0.01700575
3811.32336914,0.01666070
3813.25217651,0.01726626
3815.18098389,0.01565570
3817.10979126,0.01379673
3819.03859863,0.01734101
3820.96740601,0.01406947
3822.89621338,0.01476010
3824.82502075,0.01715768
3826.75382812,0.01551225
3828.68263550,0.01670602
3830.61144287,0.01601947
3832.54025024,0.01555498
3834.46905762,0.01588918
3836.39786499,0.01516018
3838.32667236,0.01385978
3840.25547974,0.01482829
3842.18428711,0.01589273
3844.11309448,0.01527925
3846.04190186,0.01650257
3847.97070923,0.01616260
3849.89951660,0.01625473
3851.82832397,0.01462072
3853.75713135,0.01107431
3855.68593872,0.01315038
3857.61474609,0.01614548
3859.54355347,0.01587026
3861.47236084,0.01567852
3863.40116821,0.01532558
3865.32997559,0.01444809
3867.25878296,0.01585412
3869.18759033,0.01459244
3871.11639770,0.01351416
3873.04520508,0.01591079
3874.97401245,0.01475983
3876.90281982,0.01572523
3878.83162720,0.01611648
3880.76043457,0.01393522
3882.68924194,0.01583419
3884.61804932,0.01488531
3886.54685669,0.01370245
3888.47566406,0.01587921
3890.40447144,0.01512218
3892.33327881,0.01426874
3894.26208618,0.01555021
3896.19089355,0.01582324
3898.11970093,0.01500351
3900.04850830,0.01427245
3901.97731567,0.01422121
3903.90612305,0.01400437
3905.83493042,0.01417978
3907.76373779,0.01544474
3909.69254517,0.01546692
3911.62135254,0.01540016
3913.55015991,0.01562500
3915.47896728,0.01507732
3917.40777466,0.01474011
3919.33658203,0.01459282
3921.26538940,0.01509417
3923.19419678,0.01506028
3925.12300415,0.01468909
3927.05181152,0.01497702
3928.98061890,0.01516493
3930.90942627,0.01483554
3932.83823364,0.01438821
3934.76704102,0.01499893
3936.69584839,0.01508535
3938.62465576,0.01494733
3940.55346313,0.01514100
3942.48227051,0.01450968
3944.41107788,0.01462464
3946.33988525,0.01492030
3948.26869263,0.01459925
3950.19750000,0.01461653
3952.12630737,0.01471852
3954.05511475,0.01477472
3955.98392212,0.01482868
3957.91272949,0.01470259
3959.84153687,0.01470767
3961.77034424,0.01462209
3963.69915161,0.01456705
3965.62795898,0.01479559
3967.55676636,0.01456710
3969.48557373,0.01452751
3971.41438110,0.01461114
3973.34318848,0.01446812
3975.27199585,0.01444689
3977.20080322,0.01439940
3979.12961060,0.01447744
3981.05841797,0.01438088
3982.98722534,0.01439610
3984.91603271,0.01435926
3986.84484009,0.01436299
3988.77364746,0.01440534
3990.70245483,0.01420130
3992.63126221,0.01428850
3994.56006958,0.01416960
3996.48887695,0.01418062
3998.41768433,0.01421926
4000.34649170,0.01415851
4002.27529907,0.01424736
4004.20410645,0.01416686
4006.13291382,0.01418571
4008.06172119,0.01399235
4009.99052856,0.01397717
4011.91933594,0.01406705
4013.84814331,0.01401994
4015.77695068,0.01403312
4017.70575806,0.01392144
4019.63456543,0.01390587
4021.56337280,0.01388836
4023.49218018,0.01391337
4025.42098755,0.01384710
4027.34979492,0.01381306
4029.27860229,0.01378438
4031.20740967,0.01370986
4033.13621704,0.01370434
4035.06502441,0.01366999
4036.99383179,0.01375756
4038.92263916,0.01363475
4040.85144653,0.01361801
4042.78025391,0.01360197
4044.70906128,0.01349993
4046.63786865,0.01355377
4048.56667603,0.01352517
4050.49548340,0.01358031
4052.42429077,0.01349118
4054.35309814,0.01346124
4056.28190552,0.01342983
4058.21071289,0.01343127
4060.13952026,0.01351079
4062.06832764,0.01336517
4063.99713501,0.01332004
4065.92594238,0.01325464
4067.85474976,0.01328486
4069.78355713,0.01333291
4071.71236450,0.01323858
4073.64117187,0.01311604
4075.56997925,0.01311676
4077.49878662,0.01321163
4079.42759399,0.01313080
4081.35640137,0.01310618
4083.28520874,0.01305849
4085.21401611,0.01305340
4087.14282349,0.01307044
4089.07163086,0.01304103
4091.00043823,0.01300379
4092.92924561,0.01299443
4094.85805298,0.01301815
4096.78686035,0.01292073
4098.71566772,0.01294859
4100.64447510,0.01285295
4102.57328247,0.01286234
4104.50208984,0.01289460
4106.43089722,0.01275815
4108.35970459,0.01274971
4110.28851196,0.01267844
4112.21731934,0.01275959
4114.14612671,0.01266004
4116.07493408,0.01260246
4118.00374145,0.01265553
4119.93254883,0.01266548
4121.86135620,0.01269308
4123.79016357,0.01242914
4125.71897095,0.01248551
4127.64777832,0.01253527
4129.57658569,0.01251170
4131.50539307,0.01250135
4133.43420044,0.01240378
4135.36300781,0.01247418
4137.29181519,0.01229717
4139.22062256,0.01229587
4141.14942993,0.01238307
4143.07823730,0.01231939
4145.00704468,0.01233214
4146.93585205,0.01234567
4148.86465942,0.01227660
4150.79346680,0.01219206
4152.72227417,0.01224069
4154.65108154,0.01216953
4156.57988892,0.01215275
4158.50869629,0.01214193
4160.43750366,0.01212751
4162.36631103,0.01211097
4164.29511841,0.01206180
4166.22392578,0.01202790
4168.15273315,0.01191891
4170.08154053,0.01199171
4172.01034790,0.01187534
4173.93915527,0.01185994
4175.86796265,0.01193385
4177.79677002,0.01185936
4179.72557739,0.01187561
4181.65438477,0.01176597
4183.58319214,0.01184267
4185.51199951,0.01178287
4187.44080688,0.01170630
4189.36961426,0.01173993
4191.29842163,0.01167203
4193.22722900,0.01166545
4195.15603638,0.01162565
4197.08484375,0.01170959
4199.01365112,0.01164072
4200.94245850,0.01167240
4202.87126587,0.01168492
4204.80007324,0.01156307
4206.72888062,0.01153871
4208.65768799,0.01145862
4210.58649536,0.01157177
4212.51530273,0.01146026
4214.44411011,0.01139310
4216.37291748,0.01144901
4218.30172485,0.01140727
4220.23053223,0.01143300
4222.15933960,0.01130256
4224.08814697,0.01132345
4226.01695435,0.01135089
4227.94576172,0.01130806
4229.87456909,0.01125996
4231.80337646,0.01124706
4233.73218384,0.01129187
4235.66099121,0.01127206
4237.58979858,0.01122551
4239.51860596,0.01110682
4241.44741333,0.01118309
4243.37622070,0.01114950
4245.30502808,0.01104335
4247.23383545,0.01106239
4249.16264282,0.01099380
4251.09145020,0.01097753
4253.02025757,0.01099543
4254.94906494,0.01101059
4256.87787231,0.01090510
4258.80667969,0.01092943
4260.73548706,0.01090530
4262.66429443,0.01075523
4264.59310181,0.01083423
4266.52190918,0.01087163
4268.45071655,0.01089975
4270.37952393,0.01089221
4272.30833130,0.01082991
4274.23713867,0.01077898
4276.16594604,0.01074316
4278.09475342,0.01072583
4280.02356079,0.01069939
4281.95236816,0.01067149
4283.88117554,0.01065562
4285.80998291,0.01064194
4287.73879028,0.01047060
4289.66759766,0.01052961
4291.59640503,0.01061057
4293.52521240,0.01049514
4295.45401978,0.01049237
4297.38282715,0.01049068
4299.31163452,0.01052214
4301.24044189,0.01039860
4303.16924927,0.01034667
4305.09805664,0.01041359
4307.02686401,0.01037627
4308.95567139,0.01028589
4310.88447876,0.01027401
4312.81328613,0.01034973
4314.74209351,0.01023525
4316.67090088,0.01028441
4318.59970825,0.01022781
4320.52851562,0.01015442
4322.45732300,0.01026816
4324.38613037,0.01013619
4326.31493774,0.01014777
4328.24374512,0.01017295
4330.17255249,0.01014506
4332.10135986,0.01007708
4334.03016724,0.01006328
4335.95897461,0.01012904
4337.88778198,0.01004218
4339.81658936,0.01006261
4341.74539673,0.00996492
4343.67420410,0.00993729
4345.60301147,0.00999029
4347.53181885,0.00991655
4349.46062622,0.00992426
4351.38943359,0.00990042
4353.31824097,0.00986229
4355.24704834,0.00980761
4357.17585571,0.00981289
4359.10466309,0.00984469
4361.03347046,0.00985112
4362.96227783,0.00978093
4364.89108520,0.00975345
4366.81989258,0.00978885
4368.74869995,0.00967869
4370.67750732,0.00965476
4372.60631470,0.00963839
4374.53512207,0.00963769
4376.46392944,0.00965295
4378.39273682,0.00963555
4380.32154419,0.00961309
4382.25035156,0.00953766
4384.17915894,0.00956875
4386.10796631,0.00954872
4388.03677368,0.00952362
4389.96558105,0.00948260
4391.89438843,0.00947907
4393.82319580,0.00950662
4395.75200317,0.00944429
4397.68081055,0.00945797
4399.60961792,0.00932831
4401.53842529,0.00927209
4403.46723267,0.00933542
4405.39604004,0.00931097
4407.32484741,0.00930363
4409.25365478,0.00925141
4411.18246216,0.00924565
4413.11126953,0.00928688
4415.04007690,0.00923499
4416.96888428,0.00912384
4418.89769165,0.00921995
4420.82649902,0.00924280
4422.75530640,0.00911887
4424.68411377,0.00912696
4426.61292114,0.00911651
4428.54172852,0.00916209
4430.47053589,0.00906884
4432.39934326,0.00902431
4434.32815063,0.00909938
4436.25695801,0.00900010
4438.18576538,0.00899886
4440.11457275,0.00895838
4442.04338013,0.00893056
4443.97218750,0.00896647
4445.90099487,0.00887207
4447.82980225,0.00882351
4449.75860962,0.00882277
4451.68741699,0.00880211
4453.61622437,0.00879514
4455.54503174,0.00883610
4457.47383911,0.00883740
4459.40264648,0.00875902
4461.33145386,0.00871010
4463.26026123,0.00873161
4465.18906860,0.00877551
4467.11787598,0.00873105
4469.04668335,0.00864156
4470.97549072,0.00862832
4472.90429810,0.00857647
4474.83310547,0.00856537
4476.76191284,0.00866583
4478.69072021,0.00858787
4480.61952759,0.00851069
4482.54833496,0.00854657
4484.47714233,0.00854400
4486.40594971,0.00855559
4488.33475708,0.00852097
4490.26356445,0.00851465
4492.19237183,0.00849344
4494.12117920,0.00845743
4496.04998657,0.00843640
4497.97879395,0.00834909
4499.90760132,0.00837237
4501.83640869,0.00838455
4503.76521606,0.00829787
4505.69402344,0.00833650
4507.62283081,0.00835592
4509.55163818,0.00826128
4511.48044556,0.00828591
4513.40925293,0.00833253
4515.33806030,0.00827198
4517.26686768,0.00817421
4519.19567505,0.00811294
4521.12448242,0.00814922
4523.05328979,0.00810443
4524.98209717,0.00808075
4526.91090454,0.00813231
4528.83971191,0.00809987
4530.76851929,0.00808545
4532.69732666,0.00804920
4534.62613403,0.00804380
4536.55494141,0.00804128
4538.48374878,0.00798591
4540.41255615,0.00801966
4542.34136353,0.00795818
4544.27017090,0.00786569
4546.19897827,0.00790328
4548.12778564,0.00788466
4550.05659302,0.00791134
4551.98540039,0.00789692
4553.91420776,0.00782621
4555.84301514,0.00790093
4557.77182251,0.00785960
4559.70062988,0.00778188
4561.62943726,0.00774394
4563.55824463,0.00775640
4565.48705200,0.00779405
4567.41585937,0.00769931
4569.34466675,0.00774314
4571.27347412,0.00770916
4573.20228149,0.00767178
4575.13108887,0.00772213
4577.05989624,0.00759900
4578.98870361,0.00757440
4580.91751099,0.00756754
4582.84631836,0.00760929
4584.77512573,0.00759953
4586.70393311,0.00751943
4588.63274048,0.00762386
4590.56154785,0.00759481
4592.49035522,0.00747538
4594.41916260,0.00751500
4596.34796997,0.00758966
4598.27677734,0.00749654
4600.20558472,0.00742436
4602.13439209,0.00745062
4604.06319946,0.00738466
4605.99200684,0.00736513
4607.92081421,0.00736618
4609.84962158,0.00734064
4611.77842895,0.00741382
4613.70723633,0.00743338
4615.63604370,0.00732088
4617.56485107,0.00735497
4619.49365845,0.00730736
4621.42246582,0.00723390
4623.35127319,0.00733058
4625.28008057,0.00721390
4627.20888794,0.00720521
4629.13769531,0.00722010
4631.06650269,0.00717632
4632.99531006,0.00722804
4634.92411743,0.00715006
4636.85292480,0.00718559
4638.78173218,0.00714632
4640.71053955,0.00707252
4642.63934692,0.00710346
4644.56815430,0.00706747
4646.49696167,0.00703629
4648.42576904,0.00703515
4650.35457642,0.00704972
4652.28338379,0.00700584
4654.21219116,0.00703279
4656.14099853,0.00698134
4658.06980591,0.00697198
4659.99861328,0.00701521
4661.92742065,0.00688514
4663.85622803,0.00688449
4665.78503540,0.00688943
4667.71384277,0.00689279
4669.64265015,0.00688742
4671.57145752,0.00686087
4673.50026489,0.00687386
4675.42907227,0.00687702
4677.35787964,0.00687656
4679.28668701,0.00674597
4681.21549438,0.00676546
4683.14430176,0.00678955
4685.07310913,0.00675663
4687.00191650,0.00677139
4688.93072388,0.00671202
4690.85953125,0.00675564
4692.78833862,0.00672365
4694.71714600,0.00666050
4696.64595337,0.00662307
4698.57476074,0.00664249
4700.50356812,0.00666238
4702.43237549,0.00660548
4704.36118286,0.00667664
4706.28999023,0.00663038
4708.21879761,0.00658231
4710.14760498,0.00655857
4712.07641235,0.00650547
4714.00521973,0.00658050
4715.93402710,0.00654443
4717.86283447,0.00646578
4719.79164185,0.00645539
4721.72044922,0.00649169
4723.64925659,0.00652482
4725.57806396,0.00646118
4727.50687134,0.00634426
4729.43567871,0.00638143
4731.36448608,0.00647713
4733.29329346,0.00638426
4735.22210083,0.00635561
4737.15090820,0.00636367
4739.07971558,0.00634038
4741.00852295,0.00632731
4742.93733032,0.00632365
4744.86613770,0.00635655
4746.79494507,0.00626426
4748.72375244,0.00628735
4750.65255981,0.00628532
4752.58136719,0.00618275
4754.51017456,0.00623283
4756.43898193,0.00616675
4758.36778931,0.00619515
4760.29659668,0.00621079
4762.22540405,0.00608679
4764.15421143,0.00616221
4766.08301880,0.00611316
4768.01182617,0.00605533
4769.94063354,0.00611038
4771.86944092,0.00607948
4773.79824829,0.00609416
4775.72705566,0.00607433
4777.65586304,0.00603262
4779.58467041,0.00601193
4781.51347778,0.00600716
4783.44228516,0.00596576
4785.37109253,0.00597409
4787.29989990,0.00605093
4789.22870728,0.00597797
4791.15751465,0.00594575
4793.08632202,0.00594149
4795.01512939,0.00594251
4796.94393677,0.00594160
4798.87274414,0.00585447
4800.80155151,0.00583901
4802.73035889,0.00585658
4804.65916626,0.00585428
4806.58797363,0.00577993
4808.51678101,0.00582232
4810.44558838,0.00584778
4812.37439575,0.00578788
4814.30320312,0.00585122
4816.23201050,0.00582094
4818.16081787,0.00582471
4820.08962524,0.00577145
4822.01843262,0.00570609
4823.94723999,0.00570735
4825.87604736,0.00568385
4827.80485474,0.00568822
4829.73366211,0.00561627
4831.66246948,0.00571373
4833.59127686,0.00566731
4835.52008423,0.00560320
4837.44889160,0.00567300
4839.37769897,0.00554336
4841.30650635,0.00560310
4843.23531372,0.00561468
4845.16412109,0.00553114
4847.09292847,0.00554752
4849.02173584,0.00557075
4850.95054321,0.00553864
4852.87935059,0.00543674
4854.80815796,0.00546949
4856.73696533,0.00550259
4858.66577270,0.00552975
4860.59458008,0.00548251
4862.52338745,0.00545954
4864.45219482,0.00547082
4866.38100220,0.00540134
4868.30980957,0.00541523
4870.23861694,0.00538664
4872.16742432,0.00542214
4874.09623169,0.00540698
4876.02503906,0.00535247
4877.95384644,0.00538124
4879.88265381,0.00540416
4881.81146118,0.00540009
4883.74026855,0.00534747
4885.66907593,0.00537261
4887.59788330,0.00523792
4889.52669067,0.00522520
4891.45549805,0.00529747
4893.38430542,0.00523742
4895.31311279,0.00527910
4897.24192017,0.00516491
4899.17072754,0.00516630
4901.09953491,0.00517999
4903.02834228,0.00514778
4904.95714966,0.00524369
4906.88595703,0.00522172
4908.81476440,0.00517706
4910.74357178,0.00504518
4912.67237915,0.00503645
4914.60118652,0.00508673
4916.52999390,0.00503611
4918.45880127,0.00506136
4920.38760864,0.00508495
4922.31641602,0.00507213
4924.24522339,0.00504863
4926.17403076,0.00510890
4928.10283813,0.00502435
4930.03164551,0.00495176
4931.96045288,0.00503103
4933.88926025,0.00500514
4935.81806763,0.00499358
4937.74687500,0.00493263
4939.67568237,0.00494672
4941.60448975,0.00497221
4943.53329712,0.00491100
4945.46210449,0.00491943
4947.39091187,0.00486171
4949.31971924,0.00491238
4951.24852661,0.00490654
4953.17733398,0.00477312
4955.10614136,0.00487109
4957.03494873,0.00492175
4958.96375610,0.00488761
4960.89256348,0.00490228
4962.82137085,0.00481470
4964.75017822,0.00477618
4966.67898560,0.00478883
4968.60779297,0.00478069
4970.53660034,0.00482504
4972.46540771,0.00482739
4974.39421509,0.00480031
4976.32302246,0.00479186
4978.25182983,0.00472783
4980.18063721,0.00470145
4982.10944458,0.00473066
4984.03825195,0.00470116
4985.96705933,0.00469615
4987.89586670,0.00464210
4989.82467407,0.00461817
4991.75348145,0.00466610
4993.68228882,0.00459553
4995.61109619,0.00463627
4997.53990356,0.00462368
4999.46871094,0.00455589
5001.39751831,0.00461390
5003.32632568,0.00456075
5005.25513306,0.00456010
5007.18394043,0.00455760
5009.11274780,0.00453791
5011.04155518,0.00454207
5012.97036255,0.00449357
5014.89916992,0.00451986
5016.82797729,0.00452443
5018.75678467,0.00448208
5020.68559204,0.00443231
5022.61439941,0.00447060
5024.54320679,0.00448731
5026.47201416,0.00439525
5028.40082153,0.00437438
5030.32962891,0.00441281
5032.25843628,0.00442535
5034.18724365,0.00437989
5036.11605103,0.00439592
5038.04485840,0.00441501
5039.97366577,0.00443513
5041.90247314,0.00439960
5043.83128052,0.00432475
5045.76008789,0.00439631
5047.68889526,0.00436124
5049.61770264,0.00429442
5051.54651001,0.00426060
5053.47531738,0.00420939
5055.40412476,0.00421835
5057.33293213,0.00425059
5059.26173950,0.00431055
5061.19054687,0.00426069
5063.11935425,0.00422213
5065.04816162,0.00422877
5066.97696899,0.00417599
5068.90577637,0.00414811
5070.83458374,0.00419978
5072.76339111,0.00423502
5074.69219849,0.00420641
5076.62100586,0.00419717
5078.54981323,0.00416655
5080.47862061,0.00420263
5082.40742798,0.00414280
5084.33623535,0.00405588
5086.26504272,0.00411599
5088.19385010,0.00413316
5090.12265747,0.00411848
5092.05146484,0.00401546
5093.98027222,0.00398961
5095.90907959,0.00400176
5097.83788696,0.00401890
5099.76669434,0.00405857
5101.69550171,0.00396658
5103.62430908,0.00397201
5105.55311645,0.00399983
5107.48192383,0.00400194
5109.41073120,0.00400142
5111.33953857,0.00397815
5113.26834595,0.00392455
5115.19715332,0.00390453
5117.12596069,0.00394922
5119.05476807,0.00389334
5120.98357544,0.00390013
5122.91238281,0.00384930
5124.84119019,0.00390278
5126.76999756,0.00395104
5128.69880493,0.00379499
5130.62761230,0.00388358
5132.55641968,0.00386256
5134.48522705,0.00381547
5136.41403442,0.00388582
5138.34284180,0.00384817
5140.27164917,0.00387492
5142.20045654,0.00385297
5144.12926392,0.00377942
5146.05807129,0.00373127
5147.98687866,0.00376420
5149.91568603,0.00376651
5151.84449341,0.00376199
5153.77330078,0.00380909
5155.70210815,0.00374581
5157.63091553,0.00371522
5159.55972290,0.00373792
5161.48853027,0.00377033
5163.41733765,0.00378992
5165.34614502,0.00371970
5167.27495239,0.00363941
5169.20375977,0.00365125
5171.13256714,0.00366060
5173.06137451,0.00367283
5174.99018188,0.00369923
5176.91898926,0.00362476
5178.84779663,0.00361938
5180.77660400,0.00366194
5182.70541138,0.00364704
5184.63421875,0.00359328
5186.56302612,0.00359707
5188.49183350,0.00359583
5190.42064087,0.00357687
5192.34944824,0.00365523
5194.27825562,0.00355593
5196.20706299,0.00350869
5198.13587036,0.00353500
5200.06467773,0.00351020
5201.99348511,0.00352096
5203.92229248,0.00345860
5205.85109985,0.00346664
5207.77990723,0.00338958
5209.70871460,0.00344744
5211.63752197,0.00348037
5213.56632935,0.00342423
5215.49513672,0.00355268
5217.42394409,0.00341963
5219.35275146,0.00343407
5221.28155884,0.00348671
5223.21036621,0.00341537
5225.13917358,0.00349902
5227.06798096,0.00337152
5228.99678833,0.00332974
5230.92559570,0.00338686
5232.85440308,0.00334656
5234.78321045,0.00338987
5236.71201782,0.00341729
5238.64082520,0.00336664
5240.56963257,0.00340033
5242.49843994,0.00341714
5244.42724731,0.00332372
5246.35605469,0.00330798
5248.28486206,0.00324426
5250.21366943,0.00328354
5252.14247681,0.00338500
5254.07128418,0.00327028
5256.00009155,0.00317473
5257.92889893,0.00325666
5259.85770630,0.00332633
5261.78651367,0.00323067
5263.71532104,0.00325931
5265.64412842,0.00326067
5267.57293579,0.00318327
5269.50174316,0.00322619
5271.43055054,0.00321619
5273.35935791,0.00327642
5275.28816528,0.00327374
5277.21697266,0.00321090
5279.14578003,0.00325574
5281.07458740,0.00327147
5283.00339478,0.00317240
5284.93220215,0.00310830
5286.86100952,0.00318797
5288.78981689,0.00313516
5290.71862427,0.00309500
5292.64743164,0.00307808
5294.57623901,0.00307476
5296.50504639,0.00318497
5298.43385376,0.00311012
5300.36266113,0.00306600
5302.29146851,0.00308471
5304.22027588,0.00311487
5306.14908325,0.00313226
5308.07789062,0.00304265
5310.00669800,0.00311182
5311.93550537,0.00308419
5313.86431274,0.00302160
5315.79312012,0.00304822
5317.72192749,0.00299815
5319.65073486,0.00309808
5321.57954224,0.00307180
5323.50834961,0.00301007
5325.43715698,0.00307896
5327.36596436,0.00295271
5329.29477173,0.00292506
5331.22357910,0.00303083
5333.15238647,0.00305723
5335.08119385,0.00301775
5337.01000122,0.00291751
5338.93880859,0.00283115
5340.86761597,0.00283124
5342.79642334,0.00290234
5344.72523071,0.00284428
5346.65403809,0.00283343
5348.58284546,0.00288965
5350.51165283,0.00288136
5352.44046020,0.00289318
5354.36926758,0.00280878
5356.29807495,0.00282707
5358.22688232,0.00287300
5360.15568970,0.00288144
5362.08449707,0.00292298
5364.01330444,0.00282232
5365.94211182,0.00279200
5367.87091919,0.00288877
5369.79972656,0.00295523
5371.72853394,0.00283212
5373.65734131,0.00276953
5375.58614868,0.00281834
5377.51495605,0.00273521
5379.44376343,0.00274234
5381.37257080,0.00273327
5383.30137817,0.00278720
5385.23018555,0.00278372
5387.15899292,0.00267881
5389.08780029,0.00280252
5391.01660767,0.00279510
5392.94541504,0.00276591
5394.87422241,0.00281484
5396.80302978,0.00271456
5398.73183716,0.00266514
5400.66064453,0.00270576
5402.58945190,0.00269892
5404.51825928,0.00264995
5406.44706665,0.00262749
5408.37587402,0.00261250
5410.30468140,0.00265794
5412.23348877,0.00265327
5414.16229614,0.00259083
5416.09110352,0.00260578
5418.01991089,0.00264449
5419.94871826,0.00266025
5421.87752563,0.00261997
5423.80633301,0.00265624
5425.73514038,0.00272503
5427.66394775,0.00266655
5429.59275513,0.00250823
5431.52156250,0.00254282
5433.45036987,0.00263774
5435.37917725,0.00247666
5437.30798462,0.00255928
5439.23679199,0.00264299
5441.16559936,0.00253960
5443.09440674,0.00260526
5445.02321411,0.00254640
5446.95202148,0.00252820
5448.88082886,0.00257484
5450.80963623,0.00253734
5452.73844360,0.00256135
5454.66725098,0.00255338
5456.59605835,0.00249142
5458.52486572,0.00242230
5460.45367310,0.00242374
5462.38248047,0.00246663
5464.31128784,0.00253243
5466.24009521,0.00252045
5468.16890259,0.00245302
5470.09770996,0.00250765
5472.02651733,0.00251209
5473.95532471,0.00250126
5475.88413208,0.00248000
5477.81293945,0.00239097
5479.74174683,0.00239662
5481.67055420,0.00239817
5483.59936157,0.00233421
5485.52816895,0.00234045
5487.45697632,0.00240053
5489.38578369,0.00239752
5491.31459106,0.00241494
5493.24339844,0.00239505
5495.17220581,0.00234428
5497.10101318,0.00241572
5499.02982056,0.00238905
5500.95862793,0.00235297
5502.88743530,0.00236369
5504.81624268,0.00234335
5506.74505005,0.00237007
5508.67385742,0.00229558
5510.60266479,0.00227745
5512.53147217,0.00231208
5514.46027954,0.00232742
5516.38908691,0.00232577
5518.31789429,0.00226774
5520.24670166,0.00233568
5522.17550903,0.00227145
5524.10431641,0.00221205
5526.03312378,0.00228978
5527.96193115,0.00228714
5529.89073853,0.00236584
5531.81954590,0.00233154
5533.74835327,0.00222349
5535.67716064,0.00221280
5537.60596802,0.00220406
5539.53477539,0.00218705
5541.46358276,0.00224798
5543.39239014,0.00231305
5545.32119751,0.00219714
5547.25000488,0.00224643
5549.17881226,0.00229611
5551.10761963,0.00217295
5553.03642700,0.00220711
5554.96523437,0.00222717
5556.89404175,0.00219628
5558.82284912,0.00217049
5560.75165649,0.00218415
5562.68046387,0.00220628
5564.60927124,0.00218152
5566.53807861,0.00218142
5568.46688599,0.00215779
5570.39569336,0.00214478
5572.32450073,0.00215036
5574.25330811,0.00215161
5576.18211548,0.00215294
5578.11092285,0.00219667
5580.03973022,0.00215633
5581.96853760,0.00209873
5583.89734497,0.00212409
5585.82615234,0.00207592
5587.75495972,0.00211414
5589.68376709,0.00211306
5591.61257446,0.00208635
5593.54138184,0.00209179
5595.47018921,0.00206251
5597.39899658,0.00211967
5599.32780395,0.00204430
5601.25661133,0.00208425
5603.18541870,0.00216058
5605.11422607,0.00205361
5607.04303345,0.00206956
5608.97184082,0.00205677
5610.90064819,0.00205334
5612.82945557,0.00206488
5614.75826294,0.00202867
5616.68707031,0.00205601
5618.61587769,0.00203314
5620.54468506,0.00199125
5622.47349243,0.00203875
5624.40229980,0.00208588
5626.33110718,0.00203736
5628.25991455,0.00197965
5630.18872192,0.00194947
5632.11752930,0.00199563
5634.04633667,0.00200261
5635.97514404,0.00190605
5637.90395142,0.00195834
5639.83275879,0.00199725
5641.76156616,0.00192578
5643.69037353,0.00194232
5645.61918091,0.00194960
5647.54798828,0.00190717
5649.47679565,0.00192351
5651.40560303,0.00194936
5653.33441040,0.00194053
5655.26321777,0.00189581
5657.19202515,0.00188754
5659.12083252,0.00193810
5661.04963989,0.00190087
5662.97844727,0.00189335
5664.90725464,0.00189132
5666.83606201,0.00183861
5668.76486938,0.00184563
5670.69367676,0.00182843
5672.62248413,0.00186930
5674.55129150,0.00188187
5676.48009888,0.00185351
5678.40890625,0.00188659
5680.33771362,0.00187986
5682.26652100,0.00185673
5684.19532837,0.00181119
5686.12413574,0.00185886
5688.05294311,0.00188350
5689.98175049,0.00180939
5691.91055786,0.00184182
5693.83936523,0.00184208
5695.76817261,0.00180454
5697.69697998,0.00178577
5699.62578735,0.00177705
5701.55459473,0.00182039
5703.48340210,0.00182182
5705.41220947,0.00182446
5707.34101685,0.00180858
5709.26982422,0.00175323
5711.19863159,0.00181081
5713.12743896,0.00184739
5715.05624634,0.00177872
5716.98505371,0.00179131
5718.91386108,0.00182022
5720.84266846,0.00177178
5722.77147583,0.00177828
5724.70028320,0.00179073
5726.62909058,0.00173687
5728.55789795,0.00173781
5730.48670532,0.00171128
5732.41551270,0.00171143
5734.34432007,0.00176301
5736.27312744,0.00171382
5738.20193481,0.00172183
5740.13074219,0.00164293
5742.05954956,0.00158390
5743.98835693,0.00169377
5745.91716431,0.00166370
5747.84597168,0.00168009
5749.77477905,0.00170231
5751.70358643,0.00165123
5753.63239380,0.00166259
5755.56120117,0.00166389
5757.49000854,0.00166239
5759.41881592,0.00163027
5761.34762329,0.00165023
5763.27643066,0.00167212
5765.20523804,0.00165117
5767.13404541,0.00164640
5769.06285278,0.00163622
5770.99166016,0.00158181
5772.92046753,0.00154687
5774.84927490,0.00162427
5776.77808228,0.00158457
5778.70688965,0.00153533
5780.63569702,0.00157696
5782.56450439,0.00159590
5784.49331177,0.00161680
5786.42211914,0.00158099
5788.35092651,0.00158208
5790.27973389,0.00157978
5792.20854126,0.00158086
5794.13734863,0.00157935
5796.06615601,0.00157523
5797.99496338,0.00156131
5799.92377075,0.00152196
5801.85257812,0.00159578
5803.78138550,0.00152830
5805.71019287,0.00152039
5807.63900024,0.00160881
5809.56780762,0.00154487
5811.49661499,0.00158218
5813.42542236,0.00156624
5815.35422974,0.00154350
5817.28303711,0.00154669
5819.21184448,0.00149218
5821.14065186,0.00150044
5823.06945923,0.00150089
5824.99826660,0.00149605
5826.92707397,0.00144464
5828.85588135,0.00146112
5830.78468872,0.00150249
5832.71349609,0.00147478
5834.64230347,0.00147072
5836.57111084,0.00143962
5838.49991821,0.00142686
5840.42872559,0.00141388
5842.35753296,0.00144180
5844.28634033,0.00144888
5846.21514770,0.00141419
5848.14395508,0.00149279
5850.07276245,0.00147213
5852.00156982,0.00140461
5853.93037720,0.00144814
5855.85918457,0.00142329
5857.78799194,0.00142721
5859.71679932,0.00146301
5861.64560669,0.00138620
5863.57441406,0.00135439
5865.50322144,0.00141075
5867.43202881,0.00145613
5869.36083618,0.00141891
5871.28964355,0.00137443
5873.21845093,0.00138141
5875.14725830,0.00136458
5877.07606567,0.00139540
5879.00487305,0.00137721
5880.93368042,0.00136281
5882.86248779,0.00141594
5884.79129517,0.00138564
5886.72010254,0.00135830
5888.64890991,0.00130769
5890.57771728,0.00132431
5892.50652466,0.00140145
5894.43533203,0.00137470
5896.36413940,0.00132425
5898.29294678,0.00135276
5900.22175415,0.00141278
5902.15056152,0.00129439
5904.07936890,0.00129512
5906.00817627,0.00137175
5907.93698364,0.00123912
5909.86579102,0.00129274
5911.79459839,0.00137306
5913.72340576,0.00132199
5915.65221313,0.00129301
5917.58102051,0.00126133
5919.50982788,0.00127800
5921.43863525,0.00124129
5923.36744263,0.00126803
5925.29625000,0.00131384
5927.22505737,0.00124498
5929.15386475,0.00124933
5931.08267212,0.00125686
5933.01147949,0.00123632
5934.94028686,0.00125163
5936.86909424,0.00126813
5938.79790161,0.00125725
5940.72670898,0.00124999
5942.65551636,0.00127916
5944.58432373,0.00126402
5946.51313110,0.00129651
5948.44193848,0.00130195
5950.37074585,0.00124064
5952.29955322,0.00128312
5954.22836060,0.00124950
5956.15716797,0.00119418
5958.08597534,0.00121028
5960.01478271,0.00122231
5961.94359009,0.00123232
5963.87239746,0.00116461
5965.80120483,0.00117846
5967.73001221,0.00120748
5969.65881958,0.00118858
5971.58762695,0.00121653
5973.51643433,0.00119112
5975.44524170,0.00119811
5977.37404907,0.00119235
5979.30285645,0.00119249
5981.23166382,0.00123680
5983.16047119,0.00122105
5985.08927856,0.00120477
5987.01808594,0.00115283
5988.94689331,0.00115773
5990.87570068,0.00123342
5992.80450806,0.00120549
5994.73331543,0.00115961
5996.66212280,0.00118677
5998.59093018,0.00115246
6000.51973755,0.00109958
