399.26312622,0.00004025
401.19193359,0.00009985
403.12074097,0.00026929
405.04954834,0.00038443
406.97835571,0.00038492
408.90716309,0.00005649
410.83597046,0.00016088
412.76477783,0.00017470
414.69358521,-0.00005615
416.62239258,0.00006971
418.55119995,-0.00006265
420.48000732,-0.00002920
422.40881470,0.00013921
424.33762207,-0.00016650
426.26642944,0.00010157
428.19523682,0.00025556
430.12404419,0.00008896
432.05285156,0.00014371
433.98165894,-0.00023270
435.91046631,-0.00002232
437.83927368,0.00038280
439.76808105,0.00021022
441.69688843,0.00007363
443.62569580,-0.00004461
445.55450317,0.00013625
447.48331055,0.00023026
449.41211792,0.00010642
451.34092529,0.00017901
453.26973267,-0.00008109
455.19854004,-0.00008595
457.12734741,0.00007169
459.05615479,-0.00013055
460.98496216,0.00005432
462.91376953,0.00003600
464.84257690,0.00002246
466.77138428,0.00023429
468.70019165,0.00034124
470.62899902,0.00018688
472.55780640,-0.00003154
474.48661377,0.00016742
476.41542114,0.00047105
478.34422852,0.00034296
480.27303589,0.00012915
482.20184326,0.00014575
484.13065063,0.00008294
486.05945801,0.00008522
487.98826538,0.00012157
489.91707275,0.00008863
491.84588013,0.00002969
493.77468750,0.00010343
495.70349487,0.00005632
497.63230225,-0.00000890
499.56110962,0.00005412
501.48991699,0.00001982
503.41872437,0.00022828
505.34753174,0.00025954
507.27633911,0.00016033
509.20514648,0.00012567
511.13395386,-0.00003521
513.06276123,0.00023486
514.99156860,0.00024220
516.92037598,0.00017846
518.84918335,0.00025823
520.77799072,0.00006341
522.70679810,0.00006197
524.63560547,0.00007816
526.56441284,0.00006170
528.49322021,0.00016054
530.42202759,0.00006640
532.35083496,0.00002147
534.27964233,0.00020284
536.20844971,0.00002029
538.13725708,0.00002464
540.06606445,0.00008621
541.99487183,0.00006718
543.92367920,0.00029140
545.85248657,-0.00000764
547.78129395,0.00006724
549.71010132,0.00024752
551.63890869,-0.00007961
553.56771606,-0.00005141
555.49652344,-0.00004080
557.42533081,-0.00005013
559.35413818,0.00018633
561.28294556,0.00015784
563.21175293,0.00002557
565.14056030,0.00020836
567.06936768,0.00008037
568.99817505,0.00002239
570.92698242,0.00020871
572.85578979,0.00016039
574.78459717,0.00012528
576.71340454,-0.00000261
578.64221191,0.00015821
580.57101929,0.00019811
582.49982666,0.00003917
584.42863403,0.00008715
586.35744141,-0.00004031
588.28624878,0.00004239
590.21505615,0.00025171
592.14386353,0.00036300
594.07267090,0.00000540
596.00147827,-0.00005462
597.93028564,0.00042698
599.85909302,0.00009982
601.78790039,-0.00005191
603.71670776,0.00010525
605.64551514,0.00015301
607.57432251,0.00034644
609.50312988,0.00011183
611.43193726,0.00004242
613.36074463,0.00009464
615.28955200,-0.00002921
617.21835938,0.00002926
619.14716675,0.00003137
621.07597412,0.00013142
623.00478149,0.00026957
624.93358887,0.00003298
626.86239624,-0.00002144
628.79120361,0.00010764
630.72001099,0.00021549
632.64881836,0.00032884
634.57762573,-0.00003149
636.50643311,-0.00008253
638.43524048,0.00026433
640.36404785,0.00008606
642.29285522,0.00006851
644.22166260,0.00024295
646.15046997,0.00025492
648.07927734,0.00008614
650.00808472,0.00003438
651.93689209,0.00012250
653.86569946,-0.00002511
655.79450684,0.00006423
657.72331421,0.00004792
659.65212158,0.00004705
661.58092896,0.00023392
663.50973633,0.00027351
665.43854370,0.00023937
667.36735107,0.00005639
669.29615845,0.00010881
671.22496582,0.00026822
673.15377319,0.00023687
675.08258057,0.00004131
677.01138794,0.00009507
678.94019531,0.00021140
680.86900269,-0.00001807
682.79781006,0.00014813
684.72661743,0.00020195
686.65542480,0.00019183
688.58423218,0.00029140
690.51303955,-0.00003219
692.44184692,0.00008407
694.37065430,0.00015883
696.29946167,-0.00000967
698.22826904,-0.00002915
700.15707642,-0.00000065
702.08588379,0.00027246
704.01469116,0.00017482
705.94349854,0.00001960
707.87230591,0.00017148
709.80111328,0.00025309
711.72992065,0.00020477
713.65872803,0.00012800
715.58753540,0.00016042
717.51634277,-0.00001970
719.44515015,-0.00004945
721.37395752,0.00029130
723.30276489,0.00026586
725.23157227,0.00002195
727.16037964,0.00011259
729.08918701,0.00018701
731.01799438,0.00004681
732.94680176,0.00013460
734.87560913,0.00018469
736.80441650,0.00020051
738.73322388,0.00027804
740.66203125,0.00014917
742.59083862,0.00022302
744.51964600,0.00007070
746.44845337,0.00000941
748.37726074,0.00028960
750.30606812,0.00010004
752.23487549,0.00017022
754.16368286,0.00022199
756.09249023,0.00010197
758.02129761,0.00034836
759.95010498,0.00029497
761.87891235,0.00008882
763.80771973,0.00003987
765.73652710,0.00017891
767.66533447,0.00011046
769.59414185,0.00016033
771.52294922,0.00021876
773.45175659,-0.00011066
775.38056396,0.00009141
777.30937134,-0.00007662
779.23817871,-0.00003239
781.16698608,0.00031088
783.09579346,0.00011005
785.02460083,0.00018567
786.95340820,-0.00002672
788.88221558,0.00016046
790.81102295,0.00034139
792.73983032,0.00014405
794.66863770,0.00031950
796.59744507,0.00024597
798.52625244,0.00029328
800.45505981,0.00018145
802.38386719,0.00010769
804.31267456,0.00005234
806.24148193,0.00007066
808.17028931,0.00042114
810.09909668,0.00027384
812.02790405,0.00019457
813.95671143,0.00017851
815.88551880,0.00014023
817.81432617,0.00011772
819.74313354,0.00006027
821.67194092,0.00019339
823.60074829,0.00020198
825.52955566,0.00019583
827.45836304,0.00018247
829.38717041,0.00019262
831.31597778,0.00000155
833.24478516,0.00012658
835.17359253,0.00035934
837.10239990,0.00019942
839.03120728,0.00027090
840.96001465,-0.00002527
842.88882202,0.00001547
844.81762939,0.00033476
846.74643677,0.00022574
848.67524414,0.00039839
850.60405151,0.00023566
852.53285889,0.00005744
854.46166626,0.00024908
856.39047363,0.00033633
858.31928101,0.00034930
860.24808838,0.00019940
862.17689575,0.00009508
864.10570313,0.00017108
866.03451050,0.00019005
867.96331787,0.00012926
869.89212524,-0.00000399
871.82093262,-0.00001613
873.74973999,0.00043467
875.67854736,0.00027512
877.60735474,0.00002307
879.53616211,0.00039693
881.46496948,0.00017103
883.39377686,0.00019791
885.32258423,0.00026474
887.25139160,0.00008330
889.18019897,0.00033042
891.10900635,0.00026347
893.03781372,0.00017697
894.96662109,0.00007520
896.89542847,0.00001799
898.82423584,0.00010345
900.75304321,0.00010187
902.68185059,0.00019861
904.61065796,0.00016686
906.53946533,0.00038486
908.46827271,0.00035036
910.39708008,0.00013941
912.32588745,0.00036491
914.25469482,0.00020160
916.18350220,0.00012434
918.11230957,0.00023002
920.04111694,0.00021908
921.96992432,0.00034101
923.89873169,0.00020176
925.82753906,0.00017262
927.75634644,0.00028143
929.68515381,0.00031709
931.61396118,0.00035515
933.54276855,0.00032024
935.47157593,0.00036530
937.40038330,0.00023876
939.32919067,0.00009427
941.25799805,0.00015195
943.18680542,0.00026378
945.11561279,0.00013669
947.04442017,0.00004215
948.97322754,0.00026870
950.90203491,0.00017225
952.83084229,0.00025126
954.75964966,0.00025750
956.68845703,0.00008282
958.61726440,0.00031959
960.54607178,0.00021951
962.47487915,0.00030770
964.40368652,0.00033982
966.33249390,0.00021031
968.26130127,0.00036093
970.19010864,0.00018438
972.11891602,0.00028162
974.04772339,0.00039786
975.97653076,0.00038453
977.90533813,0.00027104
979.83414551,0.00003607
981.76295288,0.00024293
983.69176025,0.00025818
985.62056763,0.00028440
987.54937500,0.00036271
989.47818237,0.00030899
991.40698975,0.00038685
993.33579712,0.00033534
995.26460449,0.00035447
997.19341187,0.00038573
999.12221924,0.00035043
1001.05102661,0.00011361
1002.97983398,0.00021736
1004.90864136,0.00064765
1006.83744873,0.00045477
1008.76625610,0.00033727
1010.69506348,0.00036538
1012.62387085,0.00039469
1014.55267822,0.00058413
1016.48148560,0.00051098
1018.41029297,0.00046987
1020.33910034,0.00047226
1022.26790771,0.00049631
1024.19671509,0.00052519
1026.12552246,0.00051818
1028.05432983,0.00046195
1029.98313721,0.00032939
1031.91194458,0.00051414
1033.84075195,0.00056185
1035.76955933,0.00049932
1037.69836670,0.00056325
1039.62717407,0.00052636
1041.55598145,0.00067177
1043.48478882,0.00063666
1045.41359619,0.00063387
1047.34240356,0.00066741
1049.27121094,0.00048566
1051.20001831,0.00073573
1053.12882568,0.00071780
1055.05763306,0.00046198
1056.98644043,0.00064354
1058.91524780,0.00075679
1060.84405518,0.00071309
1062.77286255,0.00065752
1064.70166992,0.00059338
1066.63047729,0.00045801
1068.55928467,0.00051225
1070.48809204,0.00062715
1072.41689941,0.00057663
1074.34570679,0.00053955
1076.27451416,0.00044892
1078.20332153,0.00051887
1080.13212891,0.00056403
1082.06093628,0.00043527
1083.98974365,0.00040802
1085.91855103,0.00053291
1087.84735840,0.00052779
1089.77616577,0.00051135
1091.70497314,0.00063819
1093.63378052,0.00051112
1095.56258789,0.00053726
1097.49139526,0.00053244
1099.42020264,0.00051844
1101.34901001,0.00063386
1103.27781738,0.00053781
1105.20662476,0.00064355
1107.13543213,0.00040673
1109.06423950,0.00045282
1110.99304687,0.00072086
1112.92185425,0.00039843
1114.85066162,0.00054554
1116.77946899,0.00054800
1118.70827637,0.00043637
1120.63708374,0.00059972
1122.56589111,0.00040136
1124.49469849,0.00038306
1126.42350586,0.00049067
1128.35231323,0.00049366
1130.28112061,0.00055502
1132.20992798,0.00049809
1134.13873535,0.00052547
1136.06754272,0.00061991
1137.99635010,0.00052401
1139.92515747,0.00055070
1141.85396484,0.00052463
1143.78277222,0.00047088
1145.71157959,0.00059244
1147.64038696,0.00052001
1149.56919434,0.00057513
1151.49800171,0.00065794
1153.42680908,0.00064886
1155.35561646,0.00068576
1157.28442383,0.00071337
1159.21323120,0.00072626
1161.14203857,0.00047786
1163.07084595,0.00057455
1164.99965332,0.00071585
1166.92846069,0.00056209
1168.85726807,0.00074107
1170.78607544,0.00072768
1172.71488281,0.00063978
1174.64369019,0.00083204
1176.57249756,0.00080454
1178.50130493,0.00080886
1180.43011230,0.00101305
1182.35891968,0.00088955
1184.28772705,0.00086278
1186.21653442,0.00111592
1188.14534180,0.00103746
1190.07414917,0.00089702
1192.00295654,0.00090467
1193.93176392,0.00101725
1195.86057129,0.00112014
1197.78937866,0.00114550
1199.71818604,0.00114785
1201.64699341,0.00117329
1203.57580078,0.00131580
1205.50460815,0.00130413
1207.43341553,0.00128434
1209.36222290,0.00123424
1211.29103027,0.00124032
1213.21983765,0.00137484
1215.14864502,0.00131501
1217.07745239,0.00143810
1219.00625977,0.00147055
1220.93506714,0.00144067
1222.86387451,0.00162310
1224.79268188,0.00157043
1226.72148926,0.00160091
1228.65029663,0.00164914
1230.57910400,0.00151440
1232.50791138,0.00157783
1234.43671875,0.00159592
1236.36552612,0.00155231
1238.29433350,0.00171817
1240.22314087,0.00169172
1242.15194824,0.00158341
1244.08075562,0.00171214
1246.00956299,0.00174358
1247.93837036,0.00165717
1249.86717773,0.00173145
1251.79598511,0.00171228
1253.72479248,0.00151345
1255.65359985,0.00173211
1257.58240723,0.00177509
1259.51121460,0.00144176
1261.44002197,0.00149763
1263.36882935,0.00157710
1265.29763672,0.00155080
1267.22644409,0.00146383
1269.15525146,0.00148526
1271.08405884,0.00152878
1273.01286621,0.00137967
1274.94167358,0.00139955
1276.87048096,0.00150288
1278.79928833,0.00153734
1280.72809570,0.00143892
1282.65690308,0.00149031
1284.58571045,0.00142836
1286.51451782,0.00124760
1288.44332520,0.00134665
1290.37213257,0.00139278
1292.30093994,0.00147975
1294.22974731,0.00139357
1296.15855469,0.00137505
1298.08736206,0.00140015
1300.01616943,0.00134291
1301.94497681,0.00146575
1303.87378418,0.00135552
1305.80259155,0.00146078
1307.73139893,0.00150704
1309.66020630,0.00139172
1311.58901367,0.00144140
1313.51782104,0.00142970
1315.44662842,0.00159705
1317.37543579,0.00156985
1319.30424316,0.00156140
1321.23305054,0.00162372
1323.16185791,0.00154249
1325.09066528,0.00168250
1327.01947266,0.00178131
1328.94828003,0.00176570
1330.87708740,0.00186622
1332.80589478,0.00195403
1334.73470215,0.00183137
1336.66350952,0.00185913
1338.59231689,0.00187780
1340.52112427,0.00181831
1342.44993164,0.00202318
1344.37873901,0.00204601
1346.30754639,0.00192923
1348.23635376,0.00192297
1350.16516113,0.00200656
1352.09396851,0.00191154
1354.02277588,0.00179090
1355.95158325,0.00196906
1357.88039062,0.00205651
1359.80919800,0.00195011
1361.73800537,0.00180641
1363.66681274,0.00194861
1365.59562012,0.00201308
1367.52442749,0.00198165
1369.45323486,0.00203177
1371.38204224,0.00174512
1373.31084961,0.00180867
1375.23965698,0.00197407
1377.16846436,0.00190784
1379.09727173,0.00199346
1381.02607910,0.00189176
1382.95488647,0.00189167
1384.88369385,0.00197392
1386.81250122,0.00189079
1388.74130859,0.00192444
1390.67011597,0.00204843
1392.59892334,0.00205751
1394.52773071,0.00206485
1396.45653809,0.00210407
1398.38534546,0.00188134
1400.31415283,0.00196640
1402.24296021,0.00222818
1404.17176758,0.00196385
1406.10057495,0.00200857
1408.02938232,0.00219994
1409.95818970,0.00209068
1411.88699707,0.00206792
1413.81580444,0.00195128
1415.74461182,0.00194946
1417.67341919,0.00189884
1419.60222656,0.00186451
1421.53103394,0.00192272
1423.45984131,0.00183151
1425.38864868,0.00197651
1427.31745605,0.00193981
1429.24626343,0.00183558
1431.17507080,0.00172405
1433.10387817,0.00166245
1435.03268555,0.00179055
1436.96149292,0.00149082
1438.89030029,0.00166359
1440.81910767,0.00189020
1442.74791504,0.00163755
1444.67672241,0.00167784
1446.60552979,0.00163962
1448.53433716,0.00165947
1450.46314453,0.00164671
1452.39195190,0.00171807
1454.32075928,0.00179208
1456.24956665,0.00153993
1458.17837402,0.00163873
1460.10718140,0.00190685
1462.03598877,0.00196586
1463.96479614,0.00183089
1465.89360352,0.00190520
1467.82241089,0.00228412
1469.75121826,0.00230407
1471.68002563,0.00211213
1473.60883301,0.00222279
1475.53764038,0.00252202
1477.46644775,0.00270447
1479.39525513,0.00283273
1481.32406250,0.00290646
1483.25286987,0.00297827
1485.18167725,0.00312230
1487.11048462,0.00310624
1489.03929199,0.00298810
1490.96809937,0.00306509
1492.89690674,0.00333862
1494.82571411,0.00330977
1496.75452148,0.00318278
1498.68332886,0.00340834
1500.61213623,0.00353229
1502.54094360,0.00374923
1504.46975098,0.00350242
1506.39855835,0.00281223
1508.32736572,0.00345960
1510.25617310,0.00386892
1512.18498047,0.00361468
1514.11378784,0.00385281
1516.04259521,0.00356602
1517.97140259,0.00379617
1519.90020996,0.00368203
1521.82901733,0.00326032
1523.75782471,0.00385047
1525.68663208,0.00368294
1527.61543945,0.00382330
1529.54424683,0.00422741
1531.47305420,0.00396325
1533.40186157,0.00370711
1535.33066895,0.00384461
1537.25947632,0.00407986
1539.18828369,0.00323786
1541.11709106,0.00323448
1543.04589844,0.00365315
1544.97470581,0.00379539
1546.90351318,0.00439913
1548.83232056,0.00405303
1550.76112793,0.00416607
1552.68993530,0.00420823
1554.61874268,0.00392994
1556.54755005,0.00402625
1558.47635742,0.00317420
1560.40516479,0.00337574
1562.33397217,0.00432022
1564.26277954,0.00418300
1566.19158691,0.00424384
1568.12039429,0.00425766
1570.04920166,0.00390679
1571.97800903,0.00439289
1573.90681641,0.00436848
1575.83562378,0.00361811
1577.76443115,0.00396628
1579.69323853,0.00418121
1581.62204590,0.00418537
1583.55085327,0.00445329
1585.47966064,0.00444887
1587.40846802,0.00446009
1589.33727539,0.00428520
1591.26608276,0.00424245
1593.19489014,0.00428306
1595.12369751,0.00432761
1597.05250488,0.00437815
1598.98131226,0.00435928
1600.91011963,0.00427927
1602.83892700,0.00432116
1604.76773437,0.00455703
1606.69654175,0.00423869
1608.62534912,0.00426935
1610.55415649,0.00440408
1612.48296387,0.00431730
1614.41177124,0.00435910
1616.34057861,0.00374050
1618.26938599,0.00400221
1620.19819336,0.00456668
1622.12700073,0.00420800
1624.05580811,0.00417552
1625.98461548,0.00438615
1627.91342285,0.00444141
1629.84223022,0.00435451
1631.77103760,0.00446314
1633.69984497,0.00419821
1635.62865234,0.00376420
1637.55745972,0.00418305
1639.48626709,0.00451000
1641.41507446,0.00444750
1643.34388184,0.00445562
1645.27268921,0.00406295
1647.20149658,0.00373207
1649.13030396,0.00440570
1651.05911133,0.00411766
1652.98791870,0.00311755
1654.91672607,0.00396086
1656.84553345,0.00456564
1658.77434082,0.00450073
1660.70314819,0.00471000
1662.63195557,0.00434079
1664.56076294,0.00452325
1666.48957031,0.00479665
1668.41837769,0.00433320
1670.34718506,0.00436698
1672.27599243,0.00468608
1674.20479980,0.00431757
1676.13360718,0.00424320
1678.06241455,0.00468263
1679.99122192,0.00460864
1681.92002930,0.00453444
1683.84883667,0.00387262
1685.77764404,0.00387420
1687.70645142,0.00487420
1689.63525879,0.00451625
1691.56406616,0.00495105
1693.49287354,0.00486695
1695.42168091,0.00381884
1697.35048828,0.00452654
1699.27929565,0.00396863
1701.20810303,0.00376354
1703.13691040,0.00475834
1705.06571777,0.00432196
1706.99452515,0.00455951
1708.92333252,0.00481973
1710.85213989,0.00459506
1712.78094727,0.00470769
1714.70975464,0.00444307
1716.63856201,0.00412359
1718.56736938,0.00409831
1720.49617676,0.00474067
1722.42498413,0.00480011
1724.35379150,0.00458689
1726.28259888,0.00487374
1728.21140625,0.00444388
1730.14021362,0.00461021
1732.06902100,0.00452138
1733.99782837,0.00378869
1735.92663574,0.00439124
1737.85544312,0.00458568
1739.78425049,0.00438381
1741.71305786,0.00459814
1743.64186523,0.00465956
1745.57067261,0.00483607
1747.49947998,0.00472508
1749.42828735,0.00457859
1751.35709473,0.00452079
1753.28590210,0.00486577
1755.21470947,0.00486321
1757.14351685,0.00455078
1759.07232422,0.00511922
1761.00113159,0.00474097
1762.92993896,0.00460874
1764.85874634,0.00516366
1766.78755371,0.00473486
1768.71636108,0.00481944
1770.64516846,0.00476220
1772.57397583,0.00445269
1774.50278320,0.00479553
1776.43159058,0.00503951
1778.36039795,0.00491864
1780.28920532,0.00482299
1782.21801270,0.00505293
1784.14682007,0.00492370
1786.07562744,0.00484988
1788.00443481,0.00512425
1789.93324219,0.00498224
1791.86204956,0.00462642
1793.79085693,0.00479745
1795.71966431,0.00510332
1797.64847168,0.00497586
1799.57727905,0.00506049
1801.50608643,0.00503115
1803.43489380,0.00505086
1805.36370117,0.00516503
1807.29250854,0.00500515
1809.22131592,0.00503998
1811.15012329,0.00498946
1813.07893066,0.00509957
1815.00773804,0.00511640
1816.93654541,0.00505969
1818.86535278,0.00511474
1820.79416016,0.00521973
1822.72296753,0.00537482
1824.65177490,0.00498290
1826.58058228,0.00505348
1828.50938965,0.00502147
1830.43819702,0.00482662
1832.36700439,0.00525001
1834.29581177,0.00515245
1836.22461914,0.00511397
1838.15342651,0.00513329
1840.08223389,0.00529708
1842.01104126,0.00530891
1843.93984863,0.00474264
1845.86865601,0.00506007
1847.79746338,0.00532533
1849.72627075,0.00508906
1851.65507812,0.00522764
1853.58388550,0.00538244
1855.51269287,0.00539442
1857.44150024,0.00530923
1859.37030762,0.00522078
1861.29911499,0.00515770
1863.22792236,0.00524453
1865.15672974,0.00534052
1867.08553711,0.00519137
1869.01434448,0.00498594
1870.94315186,0.00515075
1872.87195923,0.00540281
1874.80076660,0.00533665
1876.72957397,0.00535154
1878.65838135,0.00529122
1880.58718872,0.00527616
1882.51599609,0.00530154
1884.44480347,0.00514950
1886.37361084,0.00521738
1888.30241821,0.00514275
1890.23122559,0.00506670
1892.16003296,0.00515945
1894.08884033,0.00514348
1896.01764771,0.00522200
1897.94645508,0.00522252
1899.87526245,0.00520559
1901.80406982,0.00517689
1903.73287720,0.00518805
1905.66168457,0.00527856
1907.59049194,0.00513327
1909.51929932,0.00519025
1911.44810669,0.00530554
1913.37691406,0.00520668
1915.30572144,0.00520370
1917.23452881,0.00507473
1919.16333618,0.00506092
1921.09214355,0.00519318
1923.02095093,0.00519634
1924.94975830,0.00523892
1926.87856567,0.00520640
1928.80737305,0.00520812
1930.73618042,0.00527866
1932.66498779,0.00523246
1934.59379517,0.00523786
1936.52260254,0.00531191
1938.45140991,0.00525582
1940.38021729,0.00512315
1942.30902466,0.00515650
1944.23783203,0.00521413
1946.16663940,0.00519187
1948.09544678,0.00534354
1950.02425415,0.00543033
1951.95306152,0.00531429
1953.88186890,0.00532249
1955.81067627,0.00524304
1957.73948364,0.00514843
1959.66829102,0.00526540
1961.59709839,0.00526126
1963.52590576,0.00526606
1965.45471313,0.00531656
1967.38352051,0.00536222
1969.31232788,0.00542284
1971.24113525,0.00532564
1973.16994263,0.00529318
1975.09875000,0.00527473
1977.02755737,0.00533244
1978.95636475,0.00549971
1980.88517212,0.00536517
1982.81397949,0.00525203
1984.74278687,0.00531178
1986.67159424,0.00521861
1988.60040161,0.00521057
1990.52920898,0.00525316
1992.45801636,0.00520569
1994.38682373,0.00527736
1996.31563110,0.00526180
1998.24443848,0.00528945
2000.17324585,0.00532199
2002.10205322,0.00523081
2004.03086060,0.00540676
2005.95966797,0.00541998
2007.88847534,0.00530876
2009.81728271,0.00526642
2011.74609009,0.00519906
2013.67489746,0.00530620
2015.60370483,0.00516611
2017.53251221,0.00505644
2019.46131958,0.00516780
2021.39012695,0.00523205
2023.31893433,0.00522316
2025.24774170,0.00509194
2027.17654907,0.00518554
2029.10535645,0.00525308
2031.03416382,0.00524672
2032.96297119,0.00521190
2034.89177856,0.00505059
2036.82058594,0.00513409
2038.74939331,0.00520142
2040.67820068,0.00521574
2042.60700806,0.00522943
2044.53581543,0.00519606
2046.46462280,0.00519161
2048.39343018,0.00506759
2050.32223755,0.00512547
2052.25104492,0.00521499
2054.17985229,0.00508048
2056.10865967,0.00507972
2058.03746704,0.00523375
2059.96627441,0.00525327
2061.89508179,0.00508391
2063.82388916,0.00501449
2065.75269653,0.00508244
2067.68150391,0.00516044
2069.61031128,0.00526266
2071.53911865,0.00524072
2073.46792603,0.00506335
2075.39673340,0.00508028
2077.32554077,0.00519713
2079.25434814,0.00504061
2081.18315552,0.00496150
2083.11196289,0.00502336
2085.04077026,0.00507185
2086.96957764,0.00504759
2088.89838501,0.00488272
2090.82719238,0.00501840
2092.75599976,0.00505078
2094.68480713,0.00489113
2096.61361450,0.00502408
2098.54242187,0.00505598
2100.47122925,0.00507802
2102.40003662,0.00509061
2104.32884399,0.00503326
2106.25765137,0.00507104
2108.18645874,0.00502060
2110.11526611,0.00499986
2112.04407349,0.00502425
2113.97288086,0.00501916
2115.90168823,0.00505098
2117.83049561,0.00509349
2119.75930298,0.00502054
2121.68811035,0.00503806
2123.61691772,0.00506723
2125.54572510,0.00490728
2127.47453247,0.00501912
2129.40333984,0.00511599
2131.33214722,0.00499954
2133.26095459,0.00496378
2135.18976196,0.00499969
2137.11856934,0.00503411
2139.04737671,0.00499857
2140.97618408,0.00501013
2142.90499146,0.00499244
2144.83379883,0.00505326
2146.76260620,0.00497641
2148.69141357,0.00496951
2150.62022095,0.00519184
2152.54902832,0.00502962
2154.47783569,0.00500102
2156.40664307,0.00508549
2158.33545044,0.00509189
2160.26425781,0.00508213
2162.19306519,0.00495501
2164.12187256,0.00498829
2166.05067993,0.00498798
2167.97948730,0.00507841
2169.90829468,0.00500253
2171.83710205,0.00493653
2173.76590942,0.00507107
2175.69471680,0.00503265
2177.62352417,0.00506341
2179.55233154,0.00490149
2181.48113892,0.00494622
2183.40994629,0.00511774
2185.33875366,0.00497124
2187.26756104,0.00493145
2189.19636841,0.00492861
2191.12517578,0.00496064
2193.05398315,0.00495399
2194.98279053,0.00500899
2196.91159790,0.00504534
2198.84040527,0.00501946
2200.76921265,0.00507564
2202.69802002,0.00503036
2204.62682739,0.00501846
2206.55563477,0.00497037
2208.48444214,0.00494995
2210.41324951,0.00502800
2212.34205688,0.00505843
2214.27086426,0.00495139
2216.19967163,0.00490007
2218.12847900,0.00499774
2220.05728638,0.00491173
2221.98609375,0.00488384
2223.91490112,0.00493405
2225.84370850,0.00491334
2227.77251587,0.00494669
2229.70132324,0.00502280
2231.63013062,0.00497793
2233.55893799,0.00490796
2235.48774536,0.00499239
2237.41655273,0.00495079
2239.34536011,0.00495209
2241.27416748,0.00493586
2243.20297485,0.00498163
2245.13178223,0.00506468
2247.06058960,0.00490194
2248.98939697,0.00495078
2250.91820435,0.00493230
2252.84701172,0.00495800
2254.77581909,0.00501278
2256.70462646,0.00481032
2258.63343384,0.00495012
2260.56224121,0.00502491
2262.49104858,0.00486821
2264.41985596,0.00500942
2266.34866333,0.00505485
2268.27747070,0.00484880
2270.20627808,0.00490139
2272.13508545,0.00492493
2274.06389282,0.00490809
2275.99270020,0.00502760
2277.92150757,0.00497595
2279.85031494,0.00500345
2281.77912231,0.00494994
2283.70792969,0.00496003
2285.63673706,0.00500650
2287.56554443,0.00489556
2289.49435181,0.00499206
2291.42315918,0.00498368
2293.35196655,0.00492231
2295.28077393,0.00492071
2297.20958130,0.00497244
2299.13838867,0.00493215
2301.06719604,0.00485683
2302.99600342,0.00482236
2304.92481079,0.00463558
2306.85361816,0.00477733
2308.78242554,0.00481744
2310.71123291,0.00475023
2312.64004028,0.00471387
2314.56884766,0.00458895
2316.49765503,0.00473457
2318.42646240,0.00455423
2320.35526978,0.00446705
2322.28407715,0.00461555
2324.21288452,0.00447429
2326.14169189,0.00433688
2328.07049927,0.00434079
2329.99930664,0.00434486
2331.92811401,0.00416405
2333.85692139,0.00428200
2335.78572876,0.00438965
2337.71453613,0.00426464
2339.64334351,0.00427628
2341.57215088,0.00428267
2343.50095825,0.00436376
2345.42976562,0.00439888
2347.35857300,0.00463978
2349.28738037,0.00473146
2351.21618774,0.00445556
2353.14499512,0.00434106
2355.07380249,0.00419481
2357.00260986,0.00420897
2358.93141724,0.00416239
2360.86022461,0.00400154
2362.78903198,0.00404886
2364.71783936,0.00401815
2366.64664673,0.00407621
2368.57545410,0.00419084
2370.50426147,0.00434782
2372.43306885,0.00448966
2374.36187622,0.00447750
2376.29068359,0.00462530
2378.21949097,0.00465911
2380.14829834,0.00463918
2382.07710571,0.00480863
2384.00591309,0.00482805
2385.93472046,0.00476715
2387.86352783,0.00472477
2389.79233521,0.00475636
2391.72114258,0.00479187
2393.64994995,0.00477002
2395.57875732,0.00485275
2397.50756470,0.00491681
2399.43637207,0.00482374
2401.36517944,0.00466867
2403.29398682,0.00475386
2405.22279419,0.00479226
2407.15160156,0.00470998
2409.08040894,0.00480687
2411.00921631,0.00482222
2412.93802368,0.00484263
2414.86683105,0.00478987
2416.79563843,0.00473570
2418.72444580,0.00477581
2420.65325317,0.00476957
2422.58206055,0.00483656
2424.51086792,0.00485594
2426.43967529,0.00490163
2428.36848267,0.00481701
2430.29729004,0.00479067
2432.22609741,0.00487727
2434.15490479,0.00482315
2436.08371216,0.00479048
2438.01251953,0.00469881
2439.94132690,0.00478858
2441.87013428,0.00474435
2443.79894165,0.00467762
2445.72774902,0.00476677
2447.65655640,0.00472093
2449.58536377,0.00488196
2451.51417114,0.00480755
2453.44297852,0.00476910
2455.37178589,0.00481767
2457.30059326,0.00455268
2459.22940063,0.00457256
2461.15820801,0.00470541
2463.08701538,0.00468153
2465.01582275,0.00467402
2466.94463013,0.00474592
2468.87343750,0.00467273
2470.80224487,0.00468478
2472.73105225,0.00481853
2474.65985962,0.00476888
2476.58866699,0.00472722
2478.51747437,0.00465003
2480.44628174,0.00474905
2482.37508911,0.00478132
2484.30389648,0.00467710
2486.23270386,0.00466551
2488.16151123,0.00471994
2490.09031860,0.00482603
2492.01912598,0.00465844
2493.94793335,0.00469691
2495.87674072,0.00470652
2497.80554810,0.00454955
2499.73435547,0.00460213
2501.66316284,0.00457456
2503.59197021,0.00462737
2505.52077759,0.00460442
2507.44958496,0.00462830
2509.37839233,0.00461933
2511.30719971,0.00459402
2513.23600708,0.00473678
2515.16481445,0.00468946
2517.09362183,0.00464104
2519.02242920,0.00459344
2520.95123657,0.00472374
2522.88004395,0.00475289
2524.80885132,0.00463781
2526.73765869,0.00465551
2528.66646606,0.00456696
2530.59527344,0.00472597
2532.52408081,0.00474597
2534.45288818,0.00463734
2536.38169556,0.00463816
2538.31050293,0.00457226
2540.23931030,0.00467188
2542.16811768,0.00467552
2544.09692505,0.00461272
2546.02573242,0.00458618
2547.95453979,0.00457581
2549.88334717,0.00457068
2551.81215454,0.00467499
2553.74096191,0.00474869
2555.66976929,0.00457081
2557.59857666,0.00455283
2559.52738403,0.00455798
2561.45619141,0.00455422
2563.38499878,0.00458631
2565.31380615,0.00457445
2567.24261353,0.00457068
2569.17142090,0.00456791
2571.10022827,0.00458418
2573.02903564,0.00450282
2574.95784302,0.00459150
2576.88665039,0.00455316
2578.81545776,0.00455828
2580.74426514,0.00467439
2582.67307251,0.00444989
2584.60187988,0.00451222
2586.53068726,0.00455176
2588.45949463,0.00451210
2590.38830200,0.00454931
2592.31710937,0.00448566
2594.24591675,0.00457182
2596.17472412,0.00454076
2598.10353149,0.00457672
2600.03233887,0.00456315
2601.96114624,0.00452722
2603.88995361,0.00454150
2605.81876099,0.00448810
2607.74756836,0.00457019
2609.67637573,0.00447547
2611.60518311,0.00451728
2613.53399048,0.00452207
2615.46279785,0.00444918
2617.39160522,0.00457897
2619.32041260,0.00442254
2621.24921997,0.00437186
2623.17802734,0.00449565
2625.10683472,0.00450385
2627.03564209,0.00448582
2628.96444946,0.00456338
2630.89325684,0.00452524
2632.82206421,0.00430572
2634.75087158,0.00444598
2636.67967895,0.00456035
2638.60848633,0.00450853
2640.53729370,0.00447698
2642.46610107,0.00442849
2644.39490845,0.00451218
2646.32371582,0.00445257
2648.25252319,0.00445229
2650.18133057,0.00449826
2652.11013794,0.00443924
2654.03894531,0.00448612
2655.96775269,0.00440075
2657.89656006,0.00434191
2659.82536743,0.00443652
2661.75417480,0.00444875
2663.68298218,0.00446134
2665.61178955,0.00438630
2667.54059692,0.00433360
2669.46940430,0.00450342
2671.39821167,0.00447865
2673.32701904,0.00442050
2675.25582642,0.00452398
2677.18463379,0.00441624
2679.11344116,0.00435989
2681.04224854,0.00443430
2682.97105591,0.00438042
2684.89986328,0.00433787
2686.82867065,0.00438810
2688.75747803,0.00438645
2690.68628540,0.00442290
2692.61509277,0.00444084
2694.54390015,0.00435984
2696.47270752,0.00442700
2698.40151489,0.00436538
2700.33032227,0.00431747
2702.25912964,0.00438205
2704.18793701,0.00431614
2706.11674438,0.00441125
2708.04555176,0.00439545
2709.97435913,0.00432818
2711.90316650,0.00438817
2713.83197388,0.00436569
2715.76078125,0.00434429
2717.68958862,0.00431315
2719.61839600,0.00431681
2721.54720337,0.00436469
2723.47601074,0.00440070
2725.40481812,0.00422613
2727.33362549,0.00419982
2729.26243286,0.00439237
2731.19124023,0.00431114
2733.12004761,0.00434005
2735.04885498,0.00436491
2736.97766235,0.00425548
2738.90646973,0.00426498
2740.83527710,0.00421455
2742.76408447,0.00426019
2744.69289185,0.00443207
2746.62169922,0.00438164
2748.55050659,0.00422952
2750.47931396,0.00433764
2752.40812134,0.00439167
2754.33692871,0.00426749
2756.26573608,0.00425237
2758.19454346,0.00431333
2760.12335083,0.00424212
2762.05215820,0.00415809
2763.98096558,0.00431149
2765.90977295,0.00428655
2767.83858032,0.00421080
2769.76738770,0.00427360
2771.69619507,0.00424151
2773.62500244,0.00426654
2775.55380981,0.00427778
2777.48261719,0.00429011
2779.41142456,0.00422604
2781.34023193,0.00421379
2783.26903931,0.00423317
2785.19784668,0.00415172
2787.12665405,0.00424822
2789.05546143,0.00423425
2790.98426880,0.00416776
2792.91307617,0.00421117
2794.84188354,0.00420680
2796.77069092,0.00415998
2798.69949829,0.00413009
2800.62830566,0.00416316
2802.55711304,0.00410559
2804.48592041,0.00414035
2806.41472778,0.00420686
2808.34353516,0.00409899
2810.27234253,0.00405526
2812.20114990,0.00410150
2814.12995728,0.00406529
2816.05876465,0.00411966
2817.98757202,0.00421321
2819.91637939,0.00411428
2821.84518677,0.00412298
2823.77399414,0.00407102
2825.70280151,0.00406745
2827.63160889,0.00415381
2829.56041626,0.00402423
2831.48922363,0.00405699
2833.41803101,0.00407729
2835.34683838,0.00408285
2837.27564575,0.00402597
2839.20445312,0.00400185
2841.13326050,0.00415315
2843.06206787,0.00397126
2844.99087524,0.00394804
2846.91968262,0.00402597
2848.84848999,0.00394433
2850.77729736,0.00400920
2852.70610474,0.00401239
2854.63491211,0.00400471
2856.56371948,0.00400290
2858.49252686,0.00394666
2860.42133423,0.00396102
2862.35014160,0.00403247
2864.27894897,0.00390374
2866.20775635,0.00388255
2868.13656372,0.00401100
2870.06537109,0.00392399
2871.99417847,0.00393926
2873.92298584,0.00390536
2875.85179321,0.00390294
2877.78060059,0.00393043
2879.70940796,0.00386883
2881.63821533,0.00401567
2883.56702270,0.00399350
2885.49583008,0.00392158
2887.42463745,0.00393749
2889.35344482,0.00386796
2891.28225220,0.00384710
2893.21105957,0.00380547
2895.13986694,0.00379324
2897.06867432,0.00384790
2898.99748169,0.00383750
2900.92628906,0.00379742
2902.85509644,0.00386028
2904.78390381,0.00390659
2906.71271118,0.00392741
2908.64151855,0.00381785
2910.57032593,0.00370977
2912.49913330,0.00379957
2914.42794067,0.00370297
2916.35674805,0.00373143
2918.28555542,0.00384782
2920.21436279,0.00379403
2922.14317017,0.00381116
2924.07197754,0.00373725
2926.00078491,0.00374114
2927.92959229,0.00377333
2929.85839966,0.00372775
2931.78720703,0.00376547
2933.71601440,0.00382773
2935.64482178,0.00384448
2937.57362915,0.00376769
2939.50243652,0.00373338
2941.43124390,0.00373100
2943.36005127,0.00375130
2945.28885864,0.00374539
2947.21766602,0.00374828
2949.14647339,0.00375244
2951.07528076,0.00369496
2953.00408813,0.00381951
2954.93289551,0.00377963
2956.86170288,0.00364773
2958.79051025,0.00375124
2960.71931763,0.00375042
2962.64812500,0.00371466
2964.57693237,0.00366412
2966.50573975,0.00365538
2968.43454712,0.00368075
2970.36335449,0.00357155
2972.29216187,0.00362246
2974.22096924,0.00367898
2976.14977661,0.00365703
2978.07858398,0.00369284
2980.00739136,0.00361241
2981.93619873,0.00369728
2983.86500610,0.00375391
2985.79381348,0.00362544
2987.72262085,0.00371110
2989.65142822,0.00373477
2991.58023560,0.00370129
2993.50904297,0.00367824
2995.43785034,0.00368856
2997.36665771,0.00374084
2999.29546509,0.00362841
3001.22427246,0.00375766
3003.15307983,0.00370790
3005.08188721,0.00345228
3007.01069458,0.00360838
3008.93950195,0.00367668
3010.86830933,0.00364445
3012.79711670,0.00360846
3014.72592407,0.00361920
3016.65473145,0.00370737
3018.58353882,0.00361975
3020.51234619,0.00361485
3022.44115356,0.00367132
3024.36996094,0.00368298
3026.29876831,0.00362538
3028.22757568,0.00357106
3030.15638306,0.00363328
3032.08519043,0.00361225
3034.01399780,0.00356130
3035.94280518,0.00353912
3037.87161255,0.00359163
3039.80041992,0.00361135
3041.72922729,0.00352439
3043.65803467,0.00360476
3045.58684204,0.00361542
3047.51564941,0.00347871
3049.44445679,0.00356037
3051.37326416,0.00361491
3053.30207153,0.00353184
3055.23087891,0.00354884
3057.15968628,0.00354239
3059.08849365,0.00349079
3061.01730103,0.00346217
3062.94610840,0.00351767
3064.87491577,0.00353508
3066.80372314,0.00350011
3068.73253052,0.00357228
3070.66133789,0.00350700
3072.59014526,0.00346758
3074.51895264,0.00348123
3076.44776001,0.00346563
3078.37656738,0.00349288
3080.30537476,0.00344574
3082.23418213,0.00347175
3084.16298950,0.00338346
3086.09179687,0.00344427
3088.02060425,0.00350471
3089.94941162,0.00335604
3091.87821899,0.00348610
3093.80702637,0.00347011
3095.73583374,0.00350155
3097.66464111,0.00345217
3099.59344849,0.00328844
3101.52225586,0.00341901
3103.45106323,0.00332337
3105.37987061,0.00337166
3107.30867798,0.00339062
3109.23748535,0.00330206
3111.16629272,0.00340824
3113.09510010,0.00336288
3115.02390747,0.00345512
3116.95271484,0.00348191
3118.88152222,0.00337697
3120.81032959,0.00333570
3122.73913696,0.00334283
3124.66794434,0.00337476
3126.59675171,0.00334477
3128.52555908,0.00340805
3130.45436645,0.00333836
3132.38317383,0.00328123
3134.31198120,0.00331660
3136.24078857,0.00328865
3138.16959595,0.00329267
3140.09840332,0.00325678
3142.02721069,0.00327338
3143.95601807,0.00329301
3145.88482544,0.00331931
3147.81363281,0.00327827
3149.74244019,0.00326635
3151.67124756,0.00330112
3153.60005493,0.00314917
3155.52886230,0.00318632
3157.45766968,0.00327230
3159.38647705,0.00321413
3161.31528442,0.00320459
3163.24409180,0.00321427
3165.17289917,0.00323986
3167.10170654,0.00313808
3169.03051392,0.00312608
3170.95932129,0.00320376
3172.88812866,0.00313511
3174.81693604,0.00317983
3176.74574341,0.00317823
3178.67455078,0.00309039
3180.60335815,0.00320773
3182.53216553,0.00317900
3184.46097290,0.00306593
3186.38978027,0.00314723
3188.31858765,0.00314152
3190.24739502,0.00313353
3192.17620239,0.00315646
3194.10500977,0.00314045
3196.03381714,0.00315321
3197.96262451,0.00308903
3199.89143188,0.00307435
3201.82023926,0.00316563
3203.74904663,0.00317828
3205.67785400,0.00307156
3207.60666138,0.00302622
3209.53546875,0.00311022
3211.46427612,0.00315708
3213.39308350,0.00308815
3215.32189087,0.00305618
3217.25069824,0.00310525
3219.17950562,0.00301241
3221.10831299,0.00295777
3223.03712036,0.00304762
3224.96592773,0.00302998
3226.89473511,0.00301281
3228.82354248,0.00303788
3230.75234985,0.00300519
3232.68115723,0.00297586
3234.60996460,0.00295576
3236.53877197,0.00297636
3238.46757935,0.00302131
3240.39638672,0.00293565
3242.32519409,0.00292512
3244.25400146,0.00303943
3246.18280884,0.00298356
3248.11161621,0.00296944
3250.04042358,0.00302987
3251.96923096,0.00294109
3253.89803833,0.00289100
3255.82684570,0.00295574
3257.75565308,0.00295034
3259.68446045,0.00297021
3261.61326782,0.00303961
3263.54207520,0.00298215
3265.47088257,0.00298001
3267.39968994,0.00297960
3269.32849731,0.00296857
3271.25730469,0.00301368
3273.18611206,0.00295749
3275.11491943,0.00295224
3277.04372681,0.00289234
3278.97253418,0.00289398
3280.90134155,0.00304254
3282.83014893,0.00300477
3284.75895630,0.00297695
3286.68776367,0.00299493
3288.61657104,0.00295083
3290.54537842,0.00293789
3292.47418579,0.00293687
3294.40299316,0.00294241
3296.33180054,0.00290426
3298.26060791,0.00291052
3300.18941528,0.00298554
3302.11822266,0.00293531
3304.04703003,0.00290616
3305.97583740,0.00295249
3307.90464478,0.00292827
3309.83345215,0.00293358
3311.76225952,0.00284833
3313.69106689,0.00281554
3315.61987427,0.00292733
3317.54868164,0.00290486
3319.47748901,0.00292715
3321.40629639,0.00294907
3323.33510376,0.00286765
3325.26391113,0.00284515
3327.19271851,0.00289133
3329.12152588,0.00286512
3331.05033325,0.00279949
3332.97914062,0.00297050
3334.90794800,0.00302963
3336.83675537,0.00285794
3338.76556274,0.00288664
3340.69437012,0.00296173
3342.62317749,0.00288683
3344.55198486,0.00279419
3346.48079224,0.00276194
3348.40959961,0.00284580
3350.33840698,0.00294455
3352.26721436,0.00287766
3354.19602173,0.00283469
3356.12482910,0.00286660
3358.05363647,0.00283657
3359.98244385,0.00282388
3361.91125122,0.00286725
3363.84005859,0.00284352
3365.76886597,0.00278120
3367.69767334,0.00288415
3369.62648071,0.00281183
3371.55528809,0.00274033
3373.48409546,0.00287093
3375.41290283,0.00275317
3377.34171020,0.00282093
3379.27051758,0.00288312
3381.19932495,0.00274402
3383.12813232,0.00284864
3385.05693970,0.00281086
3386.98574707,0.00270424
3388.91455444,0.00272190
3390.84336182,0.00275454
3392.77216919,0.00276437
3394.70097656,0.00273984
3396.62978394,0.00278786
3398.55859131,0.00273547
3400.48739868,0.00272416
3402.41620605,0.00272303
3404.34501343,0.00262364
3406.27382080,0.00275186
3408.20262817,0.00276645
3410.13143555,0.00268103
3412.06024292,0.00280064
3413.98905029,0.00275971
3415.91785767,0.00270787
3417.84666504,0.00274212
3419.77547241,0.00275021
3421.70427979,0.00276486
3423.63308716,0.00268843
3425.56189453,0.00275403
3427.49070190,0.00273797
3429.41950928,0.00264505
3431.34831665,0.00271334
3433.27712402,0.00265029
3435.20593140,0.00271766
3437.13473877,0.00273394
3439.06354614,0.00257700
3440.99235352,0.00264952
3442.92116089,0.00268951
3444.84996826,0.00267222
3446.77877563,0.00270540
3448.70758301,0.00271310
3450.63639038,0.00263333
3452.56519775,0.00260751
3454.49400513,0.00274047
3456.42281250,0.00271879
3458.35161987,0.00265566
3460.28042725,0.00261035
3462.20923462,0.00260520
3464.13804199,0.00268656
3466.06684937,0.00259142
3467.99565674,0.00257787
3469.92446411,0.00262826
3471.85327148,0.00264422
3473.78207886,0.00270001
3475.71088623,0.00263740
3477.63969360,0.00261193
3479.56850098,0.00256622
3481.49730835,0.00257429
3483.42611572,0.00259738
3485.35492310,0.00260593
3487.28373047,0.00271002
3489.21253784,0.00259121
3491.14134521,0.00257986
3493.07015259,0.00259073
3494.99895996,0.00249885
3496.92776733,0.00260346
3498.85657471,0.00259260
3500.78538208,0.00257376
3502.71418945,0.00260054
3504.64299683,0.00259369
3506.57180420,0.00250472
3508.50061157,0.00248199
3510.42941895,0.00257890
3512.35822632,0.00254901
3514.28703369,0.00263219
3516.21584106,0.00260948
3518.14464844,0.00256873
3520.07345581,0.00263135
3522.00226318,0.00259286
3523.93107056,0.00260281
3525.85987793,0.00254702
3527.78868530,0.00255716
3529.71749268,0.00261136
3531.64630005,0.00265068
3533.57510742,0.00259193
3535.50391479,0.00253422
3537.43272217,0.00257227
3539.36152954,0.00250293
3541.29033691,0.00252475
3543.21914429,0.00245662
3545.14795166,0.00249083
3547.07675903,0.00251723
3549.00556641,0.00246753
3550.93437378,0.00260783
3552.86318115,0.00251123
3554.79198853,0.00255009
3556.72079590,0.00258514
3558.64960327,0.00253070
3560.57841064,0.00258050
3562.50721802,0.00251424
3564.43602539,0.00253388
3566.36483276,0.00242210
3568.29364014,0.00245070
3570.22244751,0.00258265
3572.15125488,0.00253496
3574.08006226,0.00255529
3576.00886963,0.00252768
3577.93767700,0.00251870
3579.86648437,0.00256181
3581.79529175,0.00255179
3583.72409912,0.00256824
3585.65290649,0.00259605
3587.58171387,0.00237189
3589.51052124,0.00236113
3591.43932861,0.00262596
3593.36813599,0.00257671
3595.29694336,0.00249920
3597.22575073,0.00246246
3599.15455811,0.00253106
3601.08336548,0.00255594
3603.01217285,0.00252417
3604.94098022,0.00263461
3606.86978760,0.00250765
3608.79859497,0.00238253
3610.72740234,0.00246382
3612.65620972,0.00247919
3614.58501709,0.00245257
3616.51382446,0.00254904
3618.44263184,0.00240427
3620.37143921,0.00238912
3622.30024658,0.00263838
3624.22905395,0.00250994
3626.15786133,0.00248822
3628.08666870,0.00222141
3630.01547607,0.00213196
3631.94428345,0.00250315
3633.87309082,0.00242375
3635.80189819,0.00252743
3637.73070557,0.00257909
3639.65951294,0.00253931
3641.58832031,0.00261094
3643.51712769,0.00250553
3645.44593506,0.00252669
3647.37474243,0.00238318
3649.30354980,0.00214184
3651.23235718,0.00222730
3653.16116455,0.00256868
3655.08997192,0.00249437
3657.01877930,0.00234714
3658.94758667,0.00253906
3660.87639404,0.00259749
3662.80520142,0.00267573
3664.73400879,0.00253817
3666.66281616,0.00256014
3668.59162354,0.00238624
3670.52043091,0.00206137
3672.44923828,0.00253130
3674.37804565,0.00233445
3676.30685303,0.00204622
3678.23566040,0.00243806
3680.16446777,0.00243332
3682.09327515,0.00249971
3684.02208252,0.00254318
3685.95088989,0.00247452
3687.87969727,0.00226238
3689.80850464,0.00212459
3691.73731201,0.00243058
3693.66611938,0.00241177
3695.59492676,0.00247210
3697.52373413,0.00259109
3699.45254150,0.00243230
3701.38134888,0.00238850
3703.31015625,0.00237394
3705.23896362,0.00253219
3707.16777100,0.00249619
3709.09657837,0.00232415
3711.02538574,0.00218082
3712.95419312,0.00217959
3714.88300049,0.00241578
3716.81180786,0.00238362
3718.74061523,0.00253185
3720.66942261,0.00244410
3722.59822998,0.00225444
3724.52703735,0.00242427
3726.45584473,0.00230597
3728.38465210,0.00237881
3730.31345947,0.00235159
3732.24226685,0.00220442
3734.17107422,0.00217332
3736.09988159,0.00200224
3738.02868896,0.00208388
3739.95749634,0.00235784
3741.88630371,0.00245186
3743.81511108,0.00194917
3745.74391846,0.00186748
3747.67272583,0.00231973
3749.60153320,0.00210847
3751.53034058,0.00194944
3753.45914795,0.00217323
3755.38795532,0.00234699
3757.31676270,0.00238497
3759.24557007,0.00229114
3761.17437744,0.00226287
3763.10318481,0.00234806
3765.03199219,0.00232267
3766.96079956,0.00229059
3768.88960693,0.00229354
3770.81841431,0.00221100
3772.74722168,0.00230979
3774.67602905,0.00231198
3776.60483643,0.00232533
3778.53364380,0.00237497
3780.46245117,0.00227668
3782.39125854,0.00235367
3784.32006592,0.00236224
3786.24887329,0.00233487
3788.17768066,0.00234324
3790.10648804,0.00227040
3792.03529541,0.00222745
3793.96410278,0.00232727
3795.89291016,0.00216093
3797.82171753,0.00213285
3799.75052490,0.00227282
3801.67933228,0.00185535
3803.60813965,0.00220466
3805.53694702,0.00235289
3807.46575439,0.00203795
3809.39456177,0.00234521
3811.32336914,0.00220343
3813.25217651,0.00235687
3815.18098389,0.00213020
3817.10979126,0.00191948
3819.03859863,0.00226628
3820.96740601,0.00184264
3822.89621338,0.00204456
3824.82502075,0.00227280
3826.75382812,0.00207460
3828.68263550,0.00224913
3830.61144287,0.00219880
3832.54025024,0.00204756
3834.46905762,0.00203296
3836.39786499,0.00204383
3838.32667236,0.00192387
3840.25547974,0.00205780
3842.18428711,0.00206005
3844.11309448,0.00200814
3846.04190186,0.00224153
3847.97070923,0.00219427
3849.89951660,0.00221033
3851.82832397,0.00196408
3853.75713135,0.00158803
3855.68593872,0.00184915
3857.61474609,0.00221979
3859.54355347,0.00217217
3861.47236084,0.00207743
3863.40116821,0.00206587
3865.32997559,0.00201839
3867.25878296,0.00213574
3869.18759033,0.00191288
3871.11639770,0.00189220
3873.04520508,0.00213901
3874.97401245,0.00195809
3876.90281982,0.00215019
3878.83162720,0.00212362
3880.76043457,0.00187184
3882.68924194,0.00214061
3884.61804932,0.00201003
3886.54685669,0.00185419
3888.47566406,0.00212709
3890.40447144,0.00199339
3892.33327881,0.00190294
3894.26208618,0.00218293
3896.19089355,0.00216245
3898.11970093,0.00200874
3900.04850830,0.00193847
3901.97731567,0.00193388
3903.90612305,0.00188819
3905.83493042,0.00188226
3907.76373779,0.00206734
3909.69254517,0.00207297
3911.62135254,0.00213186
3913.55015991,0.00218129
3915.47896728,0.00202720
3917.40777466,0.00201433
3919.33658203,0.00197945
3921.26538940,0.00197503
3923.19419678,0.00204761
3925.12300415,0.00199368
3927.05181152,0.00202775
3928.98061890,0.00213087
3930.90942627,0.00205652
3932.83823364,0.00196667
3934.76704102,0.00197291
3936.69584839,0.00206291
3938.62465576,0.00209953
3940.55346313,0.00198931
3942.48227051,0.00196569
3944.41107788,0.00199437
3946.33988525,0.00200584
3948.26869263,0.00196930
3950.19750000,0.00190669
3952.12630737,0.00191692
3954.05511475,0.00199911
3955.98392212,0.00202419
3957.91272949,0.00193291
3959.84153687,0.00197657
3961.77034424,0.00195606
3963.69915161,0.00190602
3965.62795898,0.00196757
3967.55676636,0.00195477
3969.48557373,0.00191175
3971.41438110,0.00186536
3973.34318848,0.00195080
3975.27199585,0.00192055
3977.20080322,0.00188758
3979.12961060,0.00192607
3981.05841797,0.00187480
3982.98722534,0.00197234
3984.91603271,0.00192642
3986.84484009,0.00192689
3988.77364746,0.00196366
3990.70245483,0.00188998
3992.63126221,0.00195367
3994.56006958,0.00189831
3996.48887695,0.00189600
3998.41768433,0.00196638
4000.34649170,0.00194374
4002.27529907,0.00191252
4004.20410645,0.00190573
4006.13291382,0.00191412
4008.06172119,0.00187955
4009.99052856,0.00193361
4011.91933594,0.00195065
4013.84814331,0.00189906
4015.77695068,0.00191604
4017.70575806,0.00183402
4019.63456543,0.00179662
4021.56337280,0.00192195
4023.49218018,0.00191895
4025.42098755,0.00190364
4027.34979492,0.00187831
4029.27860229,0.00184341
4031.20740967,0.00191638
4033.13621704,0.00181493
4035.06502441,0.00181462
4036.99383179,0.00183810
4038.92263916,0.00181239
4040.85144653,0.00192149
4042.78025391,0.00185396
4044.70906128,0.00181936
4046.63786865,0.00177842
4048.56667603,0.00177753
4050.49548340,0.00183567
4052.42429077,0.00179470
4054.35309814,0.00182079
4056.28190552,0.00179415
4058.21071289,0.00181621
4060.13952026,0.00183140
4062.06832764,0.00180716
4063.99713501,0.00180148
4065.92594238,0.00182863
4067.85474976,0.00183406
4069.78355713,0.00177495
4071.71236450,0.00181898
4073.64117187,0.00177249
4075.56997925,0.00179277
4077.49878662,0.00177528
4079.42759399,0.00168001
4081.35640137,0.00174279
4083.28520874,0.00178500
4085.21401611,0.00180251
4087.14282349,0.00175444
4089.07163086,0.00182303
4091.00043823,0.00177090
4092.92924561,0.00176008
4094.85805298,0.00189156
4096.78686035,0.00171815
4098.71566772,0.00171486
4100.64447510,0.00174806
4102.57328247,0.00171746
4104.50208984,0.00173021
4106.43089722,0.00172090
4108.35970459,0.00177545
4110.28851196,0.00167803
4112.21731934,0.00169805
4114.14612671,0.00178288
4116.07493408,0.00174534
4118.00374145,0.00169745
4119.93254883,0.00168621
4121.86135620,0.00172160
4123.79016357,0.00170374
4125.71897095,0.00172596
4127.64777832,0.00177728
4129.57658569,0.00175591
4131.50539307,0.00168378
4133.43420044,0.00169589
4135.36300781,0.00166075
4137.29181519,0.00162318
4139.22062256,0.00167750
4141.14942993,0.00168078
4143.07823730,0.00173541
4145.00704468,0.00167796
4146.93585205,0.00160226
4148.86465942,0.00165946
4150.79346680,0.00174431
4152.72227417,0.00170543
4154.65108154,0.00161230
4156.57988892,0.00164090
4158.50869629,0.00158574
4160.43750366,0.00162425
4162.36631103,0.00159913
4164.29511841,0.00154339
4166.22392578,0.00162934
4168.15273315,0.00164878
4170.08154053,0.00172464
4172.01034790,0.00166057
4173.93915527,0.00162295
4175.86796265,0.00158414
4177.79677002,0.00155718
4179.72557739,0.00165163
4181.65438477,0.00159577
4183.58319214,0.00163159
4185.51199951,0.00158685
4187.44080688,0.00157244
4189.36961426,0.00162247
4191.29842163,0.00155576
4193.22722900,0.00156670
4195.15603638,0.00148521
4197.08484375,0.00149562
4199.01365112,0.00158611
4200.94245850,0.00158795
4202.87126587,0.00155434
4204.80007324,0.00156058
4206.72888062,0.00156548
4208.65768799,0.00146680
4210.58649536,0.00149946
4212.51530273,0.00153509
4214.44411011,0.00153942
4216.37291748,0.00151058
4218.30172485,0.00144617
4220.23053223,0.00153521
4222.15933960,0.00154032
4224.08814697,0.00153399
4226.01695435,0.00152816
4227.94576172,0.00146920
4229.87456909,0.00153607
4231.80337646,0.00149407
4233.73218384,0.00149096
4235.66099121,0.00159514
4237.58979858,0.00153247
4239.51860596,0.00152724
4241.44741333,0.00149690
4243.37622070,0.00148549
4245.30502808,0.00150011
4247.23383545,0.00136581
4249.16264282,0.00149746
4251.09145020,0.00154743
4253.02025757,0.00141683
4254.94906494,0.00148063
4256.87787231,0.00149970
4258.80667969,0.00148323
4260.73548706,0.00145778
4262.66429443,0.00148930
4264.59310181,0.00147914
4266.52190918,0.00147370
4268.45071655,0.00150717
4270.37952393,0.00146424
4272.30833130,0.00147713
4274.23713867,0.00141642
4276.16594604,0.00147238
4278.09475342,0.00146307
4280.02356079,0.00141730
4281.95236816,0.00153152
4283.88117554,0.00142785
4285.80998291,0.00141198
4287.73879028,0.00143729
4289.66759766,0.00146442
4291.59640503,0.00152685
4293.52521240,0.00144079
4295.45401978,0.00146684
4297.38282715,0.00147838
4299.31163452,0.00138561
4301.24044189,0.00134727
4303.16924927,0.00140604
4305.09805664,0.00138903
4307.02686401,0.00140456
4308.95567139,0.00141486
4310.88447876,0.00131124
4312.81328613,0.00145548
4314.74209351,0.00140482
4316.67090088,0.00126508
4318.59970825,0.00143941
4320.52851562,0.00146085
4322.45732300,0.00141540
4324.38613037,0.00145516
4326.31493774,0.00138825
4328.24374512,0.00129864
4330.17255249,0.00136450
4332.10135986,0.00133934
4334.03016724,0.00130290
4335.95897461,0.00137473
4337.88778198,0.00137048
4339.81658936,0.00140821
4341.74539673,0.00132588
4343.67420410,0.00132446
4345.60301147,0.00136755
4347.53181885,0.00127651
4349.46062622,0.00133916
4351.38943359,0.00130577
4353.31824097,0.00129656
4355.24704834,0.00132533
4357.17585571,0.00127549
4359.10466309,0.00130330
4361.03347046,0.00131269
4362.96227783,0.00134580
4364.89108520,0.00129833
4366.81989258,0.00130135
4368.74869995,0.00131429
4370.67750732,0.00129169
4372.60631470,0.00137259
4374.53512207,0.00132334
4376.46392944,0.00132990
4378.39273682,0.00132549
4380.32154419,0.00130998
4382.25035156,0.00132644
4384.17915894,0.00122540
4386.10796631,0.00130418
4388.03677368,0.00127825
4389.96558105,0.00119159
4391.89438843,0.00124102
4393.82319580,0.00127417
4395.75200317,0.00138026
4397.68081055,0.00129851
4399.60961792,0.00120123
4401.53842529,0.00124295
4403.46723267,0.00125731
4405.39604004,0.00124265
4407.32484741,0.00125542
4409.25365478,0.00133741
4411.18246216,0.00122572
4413.11126953,0.00121299
4415.04007690,0.00129155
4416.96888428,0.00115076
4418.89769165,0.00122102
4420.82649902,0.00132837
4422.75530640,0.00118041
4424.68411377,0.00116896
4426.61292114,0.00130218
4428.54172852,0.00124980
4430.47053589,0.00123787
4432.39934326,0.00131287
4434.32815063,0.00123418
4436.25695801,0.00121323
4438.18576538,0.00118008
4440.11457275,0.00112651
4442.04338013,0.00117623
4443.97218750,0.00118386
4445.90099487,0.00124540
4447.82980225,0.00126930
4449.75860962,0.00112605
4451.68741699,0.00114110
4453.61622437,0.00126533
4455.54503174,0.00122178
4457.47383911,0.00120537
4459.40264648,0.00118875
4461.33145386,0.00117479
4463.26026123,0.00125075
4465.18906860,0.00118015
4467.11787598,0.00112481
4469.04668335,0.00118108
4470.97549072,0.00121154
4472.90429810,0.00120193
4474.83310547,0.00113914
4476.76191284,0.00116382
4478.69072021,0.00116487
4480.61952759,0.00107745
4482.54833496,0.00116528
4484.47714233,0.00122530
4486.40594971,0.00116352
4488.33475708,0.00114046
4490.26356445,0.00106634
4492.19237183,0.00111909
4494.12117920,0.00112078
4496.04998657,0.00109654
4497.97879395,0.00118291
4499.90760132,0.00109580
4501.83640869,0.00113991
4503.76521606,0.00111156
4505.69402344,0.00107354
4507.62283081,0.00115953
4509.55163818,0.00110572
4511.48044556,0.00120119
4513.40925293,0.00113016
4515.33806030,0.00110146
4517.26686768,0.00114100
4519.19567505,0.00108589
4521.12448242,0.00118843
4523.05328979,0.00109370
4524.98209717,0.00109295
4526.91090454,0.00111887
4528.83971191,0.00111671
4530.76851929,0.00116375
4532.69732666,0.00107853
4534.62613403,0.00108016
4536.55494141,0.00105979
4538.48374878,0.00113480
4540.41255615,0.00106977
4542.34136353,0.00101812
4544.27017090,0.00111208
4546.19897827,0.00102167
4548.12778564,0.00109480
4550.05659302,0.00109117
4551.98540039,0.00101845
4553.91420776,0.00104691
4555.84301514,0.00112701
4557.77182251,0.00112555
4559.70062988,0.00098416
4561.62943726,0.00106404
4563.55824463,0.00105222
4565.48705200,0.00102746
4567.41585937,0.00103643
4569.34466675,0.00100900
4571.27347412,0.00106478
4573.20228149,0.00095946
4575.13108887,0.00103866
4577.05989624,0.00108764
4578.98870361,0.00096267
4580.91751099,0.00102884
4582.84631836,0.00108127
4584.77512573,0.00107226
4586.70393311,0.00103063
4588.63274048,0.00104859
4590.56154785,0.00109371
4592.49035522,0.00101397
4594.41916260,0.00097197
4596.34796997,0.00100449
4598.27677734,0.00096529
4600.20558472,0.00096871
4602.13439209,0.00101046
4604.06319946,0.00096835
4605.99200684,0.00099178
4607.92081421,0.00099261
4609.84962158,0.00096561
4611.77842895,0.00097186
4613.70723633,0.00097194
4615.63604370,0.00099312
4617.56485107,0.00092795
4619.49365845,0.00092589
4621.42246582,0.00096302
4623.35127319,0.00094524
4625.28008057,0.00100280
4627.20888794,0.00099052
4629.13769531,0.00092779
4631.06650269,0.00097631
4632.99531006,0.00098986
4634.92411743,0.00092784
4636.85292480,0.00098711
4638.78173218,0.00104782
4640.71053955,0.00103302
4642.63934692,0.00103471
4644.56815430,0.00095630
4646.49696167,0.00088603
4648.42576904,0.00087186
4650.35457642,0.00094275
4652.28338379,0.00101208
4654.21219116,0.00090847
4656.14099853,0.00091962
4658.06980591,0.00097714
4659.99861328,0.00094550
4661.92742065,0.00098896
4663.85622803,0.00093997
4665.78503540,0.00089882
4667.71384277,0.00094017
4669.64265015,0.00093402
4671.57145752,0.00095300
4673.50026489,0.00094397
4675.42907227,0.00088786
4677.35787964,0.00088861
4679.28668701,0.00095094
4681.21549438,0.00091928
4683.14430176,0.00091923
4685.07310913,0.00096375
4687.00191650,0.00089507
4688.93072388,0.00093682
4690.85953125,0.00092152
4692.78833862,0.00082466
4694.71714600,0.00086325
4696.64595337,0.00092247
4698.57476074,0.00092571
4700.50356812,0.00088530
4702.43237549,0.00092977
4704.36118286,0.00093794
4706.28999023,0.00087427
4708.21879761,0.00083960
4710.14760498,0.00092387
4712.07641235,0.00095566
4714.00521973,0.00082267
4715.93402710,0.00087116
4717.86283447,0.00084045
4719.79164185,0.00081534
4721.72044922,0.00085393
4723.64925659,0.00086101
4725.57806396,0.00098592
4727.50687134,0.00083617
4729.43567871,0.00081437
4731.36448608,0.00088029
4733.29329346,0.00078938
4735.22210083,0.00084617
4737.15090820,0.00086450
4739.07971558,0.00089994
4741.00852295,0.00085705
4742.93733032,0.00084777
4744.86613770,0.00082093
4746.79494507,0.00077788
4748.72375244,0.00089093
4750.65255981,0.00085635
4752.58136719,0.00082730
4754.51017456,0.00084090
4756.43898193,0.00094148
4758.36778931,0.00091524
4760.29659668,0.00077730
4762.22540405,0.00083575
4764.15421143,0.00077806
4766.08301880,0.00080561
4768.01182617,0.00088933
4769.94063354,0.00087934
4771.86944092,0.00080287
4773.79824829,0.00076063
4775.72705566,0.00083998
4777.65586304,0.00076122
4779.58467041,0.00081909
4781.51347778,0.00085775
4783.44228516,0.00079177
4785.37109253,0.00088656
4787.29989990,0.00085029
4789.22870728,0.00081648
4791.15751465,0.00080416
4793.08632202,0.00071733
4795.01512939,0.00074561
4796.94393677,0.00081859
4798.87274414,0.00079235
4800.80155151,0.00075502
4802.73035889,0.00075495
4804.65916626,0.00082836
4806.58797363,0.00091131
4808.51678101,0.00080685
4810.44558838,0.00073538
4812.37439575,0.00074144
4814.30320312,0.00077857
4816.23201050,0.00080923
4818.16081787,0.00075173
4820.08962524,0.00080949
4822.01843262,0.00082758
4823.94723999,0.00078789
4825.87604736,0.00076553
4827.80485474,0.00070243
4829.73366211,0.00073938
4831.66246948,0.00080303
4833.59127686,0.00079179
4835.52008423,0.00073363
4837.44889160,0.00070255
4839.37769897,0.00074115
4841.30650635,0.00079447
4843.23531372,0.00076948
4845.16412109,0.00077028
4847.09292847,0.00079253
4849.02173584,0.00073441
4850.95054321,0.00075690
4852.87935059,0.00079375
4854.80815796,0.00079029
4856.73696533,0.00073062
4858.66577270,0.00069863
4860.59458008,0.00077580
4862.52338745,0.00074821
4864.45219482,0.00073519
4866.38100220,0.00075236
4868.30980957,0.00069746
4870.23861694,0.00069886
4872.16742432,0.00073547
4874.09623169,0.00070903
4876.02503906,0.00070800
4877.95384644,0.00074034
4879.88265381,0.00069657
4881.81146118,0.00072035
4883.74026855,0.00073725
4885.66907593,0.00073647
4887.59788330,0.00075384
4889.52669067,0.00068069
4891.45549805,0.00067113
4893.38430542,0.00067861
4895.31311279,0.00067460
4897.24192017,0.00067537
4899.17072754,0.00068641
4901.09953491,0.00068837
4903.02834228,0.00066487
4904.95714966,0.00072528
4906.88595703,0.00072651
4908.81476440,0.00072208
4910.74357178,0.00073266
4912.67237915,0.00067511
4914.60118652,0.00065733
4916.52999390,0.00070162
4918.45880127,0.00071480
4920.38760864,0.00067360
4922.31641602,0.00067388
4924.24522339,0.00060567
4926.17403076,0.00063731
4928.10283813,0.00070320
4930.03164551,0.00063705
4931.96045288,0.00064985
4933.88926025,0.00063395
4935.81806763,0.00070742
4937.74687500,0.00071082
4939.67568237,0.00064636
4941.60448975,0.00069754
4943.53329712,0.00061356
4945.46210449,0.00064787
4947.39091187,0.00070782
4949.31971924,0.00066018
4951.24852661,0.00068818
4953.17733398,0.00071009
4955.10614136,0.00064454
4957.03494873,0.00059590
4958.96375610,0.00069900
4960.89256348,0.00068789
4962.82137085,0.00062786
4964.75017822,0.00064127
4966.67898560,0.00064635
4968.60779297,0.00064482
4970.53660034,0.00066170
4972.46540771,0.00071440
4974.39421509,0.00062205
4976.32302246,0.00064049
4978.25182983,0.00065642
4980.18063721,0.00058027
4982.10944458,0.00058793
4984.03825195,0.00059192
4985.96705933,0.00072931
4987.89586670,0.00062002
4989.82467407,0.00059017
4991.75348145,0.00068347
4993.68228882,0.00054235
4995.61109619,0.00067049
4997.53990356,0.00063765
4999.46871094,0.00058094
5001.39751831,0.00065355
5003.32632568,0.00057241
5005.25513306,0.00064462
5007.18394043,0.00061938
5009.11274780,0.00060680
5011.04155518,0.00059980
5012.97036255,0.00059748
5014.89916992,0.00069890
5016.82797729,0.00062175
5018.75678467,0.00064371
5020.68559204,0.00067383
5022.61439941,0.00061893
5024.54320679,0.00063293
5026.47201416,0.00059538
5028.40082153,0.00054897
5030.32962891,0.00058566
5032.25843628,0.00070872
5034.18724365,0.00069134
5036.11605103,0.00059588
5038.04485840,0.00058446
5039.97366577,0.00059145
5041.90247314,0.00058615
5043.83128052,0.00055594
5045.76008789,0.00063175
5047.68889526,0.00064013
5049.61770264,0.00058883
5051.54651001,0.00061974
5053.47531738,0.00050224
5055.40412476,0.00051087
5057.33293213,0.00062347
5059.26173950,0.00059276
5061.19054687,0.00066214
5063.11935425,0.00066604
5065.04816162,0.00062403
5066.97696899,0.00059534
5068.90577637,0.00051574
5070.83458374,0.00056609
5072.76339111,0.00057562
5074.69219849,0.00056348
5076.62100586,0.00055364
5078.54981323,0.00056680
5080.47862061,0.00061481
5082.40742798,0.00056370
5084.33623535,0.00059934
5086.26504272,0.00053267
5088.19385010,0.00054314
5090.12265747,0.00061957
5092.05146484,0.00042593
5093.98027222,0.00051252
5095.90907959,0.00062483
5097.83788696,0.00054280
5099.76669434,0.00055182
5101.69550171,0.00050807
5103.62430908,0.00053989
5105.55311645,0.00056819
5107.48192383,0.00059343
5109.41073120,0.00060726
5111.33953857,0.00053571
5113.26834595,0.00051429
5115.19715332,0.00049475
5117.12596069,0.00053344
5119.05476807,0.00053378
5120.98357544,0.00051373
5122.91238281,0.00051855
5124.84119019,0.00050263
5126.76999756,0.00061251
5128.69880493,0.00060577
5130.62761230,0.00050758
5132.55641968,0.00054877
5134.48522705,0.00053428
5136.41403442,0.00050840
5138.34284180,0.00053461
5140.27164917,0.00050321
5142.20045654,0.00049894
5144.12926392,0.00050431
5146.05807129,0.00051623
5147.98687866,0.00057513
5149.91568603,0.00053120
5151.84449341,0.00051611
5153.77330078,0.00054119
5155.70210815,0.00047566
5157.63091553,0.00048183
5159.55972290,0.00048988
5161.48853027,0.00051115
5163.41733765,0.00054691
5165.34614502,0.00049547
5167.27495239,0.00050856
5169.20375977,0.00054146
5171.13256714,0.00048533
5173.06137451,0.00038166
5174.99018188,0.00041193
5176.91898926,0.00050159
5178.84779663,0.00046296
5180.77660400,0.00048094
5182.70541138,0.00048406
5184.63421875,0.00049080
5186.56302612,0.00052095
5188.49183350,0.00045324
5190.42064087,0.00049496
5192.34944824,0.00050033
5194.27825562,0.00048529
5196.20706299,0.00053486
5198.13587036,0.00046269
5200.06467773,0.00049310
5201.99348511,0.00052308
5203.92229248,0.00042583
5205.85109985,0.00042867
5207.77990723,0.00044818
5209.70871460,0.00044949
5211.63752197,0.00048244
5213.56632935,0.00050134
5215.49513672,0.00046570
5217.42394409,0.00041212
5219.35275146,0.00045214
5221.28155884,0.00050045
5223.21036621,0.00050686
5225.13917358,0.00049274
5227.06798096,0.00042103
5228.99678833,0.00041737
5230.92559570,0.00042730
5232.85440308,0.00041202
5234.78321045,0.00039272
5236.71201782,0.00033636
5238.64082520,0.00043655
5240.56963257,0.00051749
5242.49843994,0.00047220
5244.42724731,0.00042119
5246.35605469,0.00041927
5248.28486206,0.00049006
5250.21366943,0.00041871
5252.14247681,0.00041200
5254.07128418,0.00038720
5256.00009155,0.00031202
5257.92889893,0.00044429
5259.85770630,0.00041430
5261.78651367,0.00037100
5263.71532104,0.00044993
5265.64412842,0.00048874
5267.57293579,0.00046441
5269.50174316,0.00040197
5271.43055054,0.00047782
5273.35935791,0.00046849
5275.28816528,0.00040999
5277.21697266,0.00038662
5279.14578003,0.00036565
5281.07458740,0.00043934
5283.00339478,0.00042608
5284.93220215,0.00037647
5286.86100952,0.00042129
5288.78981689,0.00047955
5290.71862427,0.00043692
5292.64743164,0.00042564
5294.57623901,0.00046603
5296.50504639,0.00044941
5298.43385376,0.00044738
5300.36266113,0.00043521
5302.29146851,0.00044652
5304.22027588,0.00039772
5306.14908325,0.00037408
5308.07789062,0.00041060
5310.00669800,0.00041662
5311.93550537,0.00044295
5313.86431274,0.00039391
5315.79312012,0.00038480
5317.72192749,0.00037887
5319.65073486,0.00037783
5321.57954224,0.00037223
5323.50834961,0.00039483
5325.43715698,0.00046265
5327.36596436,0.00035136
5329.29477173,0.00040022
5331.22357910,0.00042762
5333.15238647,0.00033732
5335.08119385,0.00037144
5337.01000122,0.00037693
5338.93880859,0.00041911
5340.86761597,0.00035446
5342.79642334,0.00039248
5344.72523071,0.00040233
5346.65403809,0.00034099
5348.58284546,0.00048981
5350.51165283,0.00042373
5352.44046020,0.00036548
5354.36926758,0.00040853
5356.29807495,0.00038193
5358.22688232,0.00038289
5360.15568970,0.00044512
5362.08449707,0.00046501
5364.01330444,0.00034134
5365.94211182,0.00044297
5367.87091919,0.00041347
5369.79972656,0.00027345
5371.72853394,0.00039604
5373.65734131,0.00040192
5375.58614868,0.00040580
5377.51495605,0.00037699
5379.44376343,0.00034369
5381.37257080,0.00035554
5383.30137817,0.00032198
5385.23018555,0.00038565
5387.15899292,0.00034689
5389.08780029,0.00034009
5391.01660767,0.00040742
5392.94541504,0.00039063
5394.87422241,0.00038364
5396.80302978,0.00035567
5398.73183716,0.00035278
5400.66064453,0.00037606
5402.58945190,0.00041166
5404.51825928,0.00038911
5406.44706665,0.00035349
5408.37587402,0.00040495
5410.30468140,0.00037296
5412.23348877,0.00034291
5414.16229614,0.00039877
5416.09110352,0.00038615
5418.01991089,0.00035578
5419.94871826,0.00032826
5421.87752563,0.00029194
5423.80633301,0.00038106
5425.73514038,0.00038838
5427.66394775,0.00031707
5429.59275513,0.00034784
5431.52156250,0.00025440
5433.45036987,0.00030793
5435.37917725,0.00041413
5437.30798462,0.00029486
5439.23679199,0.00033087
5441.16559936,0.00034495
5443.09440674,0.00029077
5445.02321411,0.00033406
5446.95202148,0.00037460
5448.88082886,0.00036246
5450.80963623,0.00031844
5452.73844360,0.00037981
5454.66725098,0.00035608
5456.59605835,0.00032046
5458.52486572,0.00036788
5460.45367310,0.00033676
5462.38248047,0.00033780
5464.31128784,0.00035337
5466.24009521,0.00033582
5468.16890259,0.00029360
5470.09770996,0.00030520
5472.02651733,0.00032047
5473.95532471,0.00029253
5475.88413208,0.00032391
5477.81293945,0.00034937
5479.74174683,0.00031397
5481.67055420,0.00025625
5483.59936157,0.00030131
5485.52816895,0.00029047
5487.45697632,0.00030056
5489.38578369,0.00037297
5491.31459106,0.00026172
5493.24339844,0.00029132
5495.17220581,0.00031035
5497.10101318,0.00026945
5499.02982056,0.00037706
5500.95862793,0.00032619
5502.88743530,0.00029725
5504.81624268,0.00036328
5506.74505005,0.00030755
5508.67385742,0.00027864
5510.60266479,0.00033681
5512.53147217,0.00030542
5514.46027954,0.00031286
5516.38908691,0.00030669
5518.31789429,0.00026048
5520.24670166,0.00033752
5522.17550903,0.00021113
5524.10431641,0.00024575
5526.03312378,0.00034854
5527.96193115,0.00018802
5529.89073853,0.00025515
5531.81954590,0.00029903
5533.74835327,0.00033493
5535.67716064,0.00034143
5537.60596802,0.00029431
5539.53477539,0.00038422
5541.46358276,0.00033448
5543.39239014,0.00029796
5545.32119751,0.00030892
5547.25000488,0.00037115
5549.17881226,0.00033505
5551.10761963,0.00026360
5553.03642700,0.00032927
5554.96523437,0.00026869
5556.89404175,0.00030372
5558.82284912,0.00027922
5560.75165649,0.00024771
5562.68046387,0.00030542
5564.60927124,0.00027386
5566.53807861,0.00036500
5568.46688599,0.00028924
5570.39569336,0.00022318
5572.32450073,0.00033030
5574.25330811,0.00029951
5576.18211548,0.00026756
5578.11092285,0.00029197
5580.03973022,0.00027261
5581.96853760,0.00024466
5583.89734497,0.00033415
5585.82615234,0.00031649
5587.75495972,0.00022733
5589.68376709,0.00025433
5591.61257446,0.00027284
5593.54138184,0.00032008
5595.47018921,0.00030445
5597.39899658,0.00030428
5599.32780395,0.00029823
5601.25661133,0.00025838
5603.18541870,0.00033591
5605.11422607,0.00030028
5607.04303345,0.00025589
5608.97184082,0.00027581
5610.90064819,0.00025028
5612.82945557,0.00030162
5614.75826294,0.00025848
5616.68707031,0.00016648
5618.61587769,0.00022323
5620.54468506,0.00026816
5622.47349243,0.00027958
5624.40229980,0.00029863
5626.33110718,0.00029561
5628.25991455,0.00026221
5630.18872192,0.00024435
5632.11752930,0.00031663
5634.04633667,0.00030430
5635.97514404,0.00024747
5637.90395142,0.00021822
5639.83275879,0.00021160
5641.76156616,0.00032321
5643.69037353,0.00026507
5645.61918091,0.00021371
5647.54798828,0.00029778
5649.47679565,0.00024609
5651.40560303,0.00024542
5653.33441040,0.00024763
5655.26321777,0.00022770
5657.19202515,0.00021694
5659.12083252,0.00018620
5661.04963989,0.00021624
5662.97844727,0.00020686
5664.90725464,0.00022561
5666.83606201,0.00025218
5668.76486938,0.00022311
5670.69367676,0.00018168
5672.62248413,0.00021142
5674.55129150,0.00027263
5676.48009888,0.00020996
5678.40890625,0.00023327
5680.33771362,0.00022515
5682.26652100,0.00016421
5684.19532837,0.00025449
5686.12413574,0.00025673
5688.05294311,0.00023378
5689.98175049,0.00024016
5691.91055786,0.00024376
5693.83936523,0.00026606
5695.76817261,0.00022796
5697.69697998,0.00020120
5699.62578735,0.00021641
5701.55459473,0.00023502
5703.48340210,0.00025571
5705.41220947,0.00029237
5707.34101685,0.00025112
5709.26982422,0.00025103
5711.19863159,0.00024745
5713.12743896,0.00012084
5715.05624634,0.00015146
5716.98505371,0.00020661
5718.91386108,0.00019828
5720.84266846,0.00021785
5722.77147583,0.00024026
5724.70028320,0.00024199
5726.62909058,0.00020343
5728.55789795,0.00021821
5730.48670532,0.00016337
5732.41551270,0.00015701
5734.34432007,0.00017764
5736.27312744,0.00015939
5738.20193481,0.00022860
5740.13074219,0.00020293
5742.05954956,0.00021361
5743.98835693,0.00020580
5745.91716431,0.00018775
5747.84597168,0.00022616
5749.77477905,0.00018432
5751.70358643,0.00023649
5753.63239380,0.00024565
5755.56120117,0.00023289
5757.49000854,0.00026797
5759.41881592,0.00023447
5761.34762329,0.00020609
5763.27643066,0.00023267
5765.20523804,0.00024383
5767.13404541,0.00017081
5769.06285278,0.00019596
5770.99166016,0.00019620
5772.92046753,0.00019587
5774.84927490,0.00026503
5776.77808228,0.00020702
5778.70688965,0.00020529
5780.63569702,0.00021773
5782.56450439,0.00020056
5784.49331177,0.00022548
5786.42211914,0.00020296
5788.35092651,0.00017284
5790.27973389,0.00021782
5792.20854126,0.00022322
5794.13734863,0.00019635
5796.06615601,0.00024502
5797.99496338,0.00016714
5799.92377075,0.00015868
5801.85257812,0.00018534
5803.78138550,0.00013387
5805.71019287,0.00021010
5807.63900024,0.00021684
5809.56780762,0.00024720
5811.49661499,0.00019119
5813.42542236,0.00014635
5815.35422974,0.00023700
5817.28303711,0.00017363
5819.21184448,0.00021615
5821.14065186,0.00019637
5823.06945923,0.00014516
5824.99826660,0.00023422
5826.92707397,0.00016675
5828.85588135,0.00016961
5830.78468872,0.00024104
5832.71349609,0.00018830
5834.64230347,0.00019692
5836.57111084,0.00022920
5838.49991821,0.00017240
5840.42872559,0.00019477
5842.35753296,0.00018558
5844.28634033,0.00012336
5846.21514770,0.00018342
5848.14395508,0.00020741
5850.07276245,0.00022155
5852.00156982,0.00020284
5853.93037720,0.00016801
5855.85918457,0.00017440
5857.78799194,0.00012438
5859.71679932,0.00013004
5861.64560669,0.00013292
5863.57441406,0.00012185
5865.50322144,0.00018406
5867.43202881,0.00022988
5869.36083618,0.00019584
5871.28964355,0.00020285
5873.21845093,0.00024641
5875.14725830,0.00016671
5877.07606567,0.00015587
5879.00487305,0.00022001
5880.93368042,0.00020446
5882.86248779,0.00017408
5884.79129517,0.00017355
5886.72010254,0.00020169
5888.64890991,0.00014921
5890.57771728,0.00012866
5892.50652466,0.00020418
5894.43533203,0.00017230
5896.36413940,0.00013105
5898.29294678,0.00021631
5900.22175415,0.00019150
5902.15056152,0.00012105
5904.07936890,0.00020039
5906.00817627,0.00015506
5907.93698364,0.00013012
5909.86579102,0.00018591
5911.79459839,0.00011208
5913.72340576,0.00019345
5915.65221313,0.00025941
5917.58102051,0.00015921
5919.50982788,0.00012494
5921.43863525,0.00012485
5923.36744263,0.00014402
5925.29625000,0.00015137
5927.22505737,0.00019923
5929.15386475,0.00021796
5931.08267212,0.00015579
5933.01147949,0.00019917
5934.94028686,0.00019412
5936.86909424,0.00015379
5938.79790161,0.00019022
5940.72670898,0.00014551
5942.65551636,0.00010951
5944.58432373,0.00012570
5946.51313110,0.00017428
5948.44193848,0.00017411
5950.37074585,0.00011730
5952.29955322,0.00015074
5954.22836060,0.00015140
5956.15716797,0.00016487
5958.08597534,0.00015138
5960.01478271,0.00009808
5961.94359009,0.00016894
5963.87239746,0.00017479
5965.80120483,0.00017323
5967.73001221,0.00018606
5969.65881958,0.00016104
5971.58762695,0.00016570
5973.51643433,0.00010787
5975.44524170,0.00014114
5977.37404907,0.00017823
5979.30285645,0.00015879
5981.23166382,0.00015869
5983.16047119,0.00008003
5985.08927856,0.00013960
5987.01808594,0.00018369
5988.94689331,0.00011891
5990.87570068,0.00018396
5992.80450806,0.00013957
5994.73331543,0.00006527
5996.66212280,0.00017970
5998.59093018,0.00018760
6000.51973755,0.00012795
