399.26312622,0.00004537
401.19193359,0.00029619
403.12074097,0.00059756
405.04954834,0.00064869
406.97835571,0.00051944
408.90716309,0.00074599
410.83597046,0.00048310
412.76477783,0.00024124
414.69358521,0.00058338
416.62239258,0.00046209
418.55119995,0.00065720
420.48000732,0.00057255
422.40881470,0.00015921
424.33762207,0.00047366
426.26642944,0.00049194
428.19523682,0.00041189
430.12404419,0.00042432
432.05285156,0.00054346
433.98165894,0.00033491
435.91046631,0.00003508
437.83927368,0.00088782
439.76808105,0.00093984
441.69688843,0.00032250
443.62569580,0.00038057
445.55450317,0.00049805
447.48331055,0.00041958
449.41211792,0.00028723
451.34092529,0.00056112
453.26973267,0.00015179
455.19854004,0.00008003
457.12734741,0.00033844
459.05615479,0.00009915
460.98496216,0.00048589
462.91376953,0.00013906
464.84257690,0.00036849
466.77138428,0.00076943
468.70019165,0.00016467
470.62899902,0.00010040
472.55780640,-0.00021715
474.48661377,0.00012716
476.41542114,0.00037562
478.34422852,0.00009007
480.27303589,-0.00010512
482.20184326,-0.00051438
484.13065063,0.00028050
486.05945801,0.00006642
487.98826538,-0.00042681
489.91707275,0.00032857
491.84588013,0.00007953
493.77468750,-0.00001752
495.70349487,0.00017418
497.63230225,0.00023828
499.56110962,0.00025508
501.48991699,0.00010995
503.41872437,0.00041501
505.34753174,0.00027798
507.27633911,0.00002372
509.20514648,0.00032979
511.13395386,0.00023617
513.06276123,0.00026128
514.99156860,0.00027597
516.92037598,-0.00018200
518.84918335,0.00000192
520.77799072,0.00010080
522.70679810,0.00007491
524.63560547,0.00011601
526.56441284,-0.00004609
528.49322021,0.00020199
530.42202759,0.00010118
532.35083496,0.00012894
534.27964233,0.00015112
536.20844971,0.00005705
538.13725708,0.00020865
540.06606445,-0.00007850
541.99487183,0.00058918
543.92367920,0.00001134
545.85248657,-0.00023063
547.78129395,0.00012234
549.71010132,-0.00003323
551.63890869,0.00013851
553.56771606,-0.00015569
555.49652344,0.00048497
557.42533081,0.00011426
559.35413818,-0.00028548
561.28294556,0.00042835
563.21175293,0.00047239
565.14056030,0.00034318
567.06936768,0.00003104
568.99817505,0.00029104
570.92698242,0.00013675
572.85578979,-0.00010682
574.78459717,0.00000752
576.71340454,-0.00004084
578.64221191,0.00004217
580.57101929,-0.00009501
582.49982666,0.00038018
584.42863403,0.00043963
586.35744141,0.00021304
588.28624878,0.00044293
590.21505615,0.00030403
592.14386353,0.00001920
594.07267090,-0.00006065
596.00147827,0.00016175
597.93028564,0.00033225
599.85909302,0.00050094
601.78790039,0.00027311
603.71670776,-0.00002271
605.64551514,0.00007304
607.57432251,0.00035926
609.50312988,0.00018344
611.43193726,-0.00000836
613.36074463,0.00028387
615.28955200,-0.00003001
617.21835938,-0.00011363
619.14716675,0.00001478
621.07597412,-0.00003140
623.00478149,0.00002983
624.93358887,0.00029343
626.86239624,0.00032756
628.79120361,-0.00009448
630.72001099,0.00002503
632.64881836,-0.00004907
634.57762573,0.00047635
636.50643311,0.00074954
638.43524048,-0.00010267
640.36404785,0.00037926
642.29285522,0.00082175
644.22166260,0.00052072
646.15046997,0.00046413
648.07927734,0.00051945
650.00808472,0.00069398
651.93689209,0.00063152
653.86569946,0.00055717
655.79450684,0.00088601
657.72331421,0.00107687
659.65212158,0.00055964
661.58092896,0.00072921
663.50973633,0.00087433
665.43854370,0.00058745
667.36735107,0.00122596
669.29615845,0.00120501
671.22496582,0.00099870
673.15377319,0.00117369
675.08258057,0.00121959
677.01138794,0.00124553
678.94019531,0.00087634
680.86900269,0.00110489
682.79781006,0.00152322
684.72661743,0.00152515
686.65542480,0.00144282
688.58423218,0.00134831
690.51303955,0.00114860
692.44184692,0.00112584
694.37065430,0.00140488
696.29946167,0.00115849
698.22826904,0.00162750
700.15707642,0.00237463
702.08588379,0.00211613
704.01469116,0.00189763
705.94349854,0.00159897
707.87230591,0.00149109
709.80111328,0.00119797
711.72992065,0.00040662
713.65872803,0.00028519
715.58753540,0.00041430
717.51634277,0.00033633
719.44515015,0.00021537
721.37395752,0.00003328
723.30276489,0.00001307
725.23157227,-0.00012008
727.16037964,-0.00013401
729.08918701,0.00006498
731.01799438,-0.00017331
732.94680176,-0.00014735
734.87560913,0.00003237
736.80441650,-0.00018976
738.73322388,-0.00005200
740.66203125,0.00023701
742.59083862,0.00029938
744.51964600,0.00043153
746.44845337,0.00043394
748.37726074,-0.00001214
750.30606812,0.00002511
752.23487549,0.00020021
754.16368286,0.00009361
756.09249023,0.00012741
758.02129761,0.00012552
759.95010498,0.00022296
761.87891235,0.00035697
763.80771973,0.00025398
765.73652710,0.00003616
767.66533447,0.00008468
769.59414185,0.00012583
771.52294922,0.00027200
773.45175659,0.00038540
775.38056396,-0.00003305
777.30937134,-0.00017222
779.23817871,0.00029148
781.16698608,0.00025194
783.09579346,0.00024221
785.02460083,0.00027045
786.95340820,0.00003631
788.88221558,0.00027279
790.81102295,0.00003504
792.73983032,0.00005147
794.66863770,0.00053334
796.59744507,0.00044878
798.52625244,0.00045890
800.45505981,0.00038389
802.38386719,0.00035139
804.31267456,0.00025318
806.24148193,0.00018780
808.17028931,0.00036129
810.09909668,0.00026380
812.02790405,0.00022577
813.95671143,-0.00006251
815.88551880,-0.00019022
817.81432617,0.00005932
819.74313354,0.00014649
821.67194092,0.00043449
823.60074829,0.00047006
825.52955566,0.00028811
827.45836304,0.00038527
829.38717041,0.00043177
831.31597778,0.00045417
833.24478516,0.00053436
835.17359253,0.00049030
837.10239990,0.00062476
839.03120728,0.00062300
840.96001465,0.00046487
842.88882202,0.00062928
844.81762939,0.00032385
846.74643677,0.00030776
848.67524414,0.00056456
850.60405151,0.00021758
852.53285889,0.00035095
854.46166626,0.00030441
856.39047363,0.00006178
858.31928101,0.00027095
860.24808838,0.00030387
862.17689575,0.00045260
864.10570313,0.00045769
866.03451050,0.00033438
867.96331787,0.00027040
869.89212524,0.00026106
871.82093262,0.00046727
873.74973999,0.00026315
875.67854736,0.00021231
877.60735474,0.00043346
879.53616211,0.00020176
881.46496948,0.00029913
883.39377686,0.00059551
885.32258423,0.00030547
887.25139160,0.00032479
889.18019897,0.00058122
891.10900635,0.00035016
893.03781372,0.00037691
894.96662109,0.00028159
896.89542847,0.00020063
898.82423584,0.00043780
900.75304321,0.00030456
902.68185059,0.00035592
904.61065796,0.00026364
906.53946533,0.00023878
908.46827271,0.00043086
910.39708008,0.00039898
912.32588745,0.00032252
914.25469482,0.00008396
916.18350220,0.00036503
918.11230957,0.00049657
920.04111694,0.00035855
921.96992432,0.00065455
923.89873169,0.00063141
925.82753906,0.00070758
927.75634644,0.00073371
929.68515381,0.00044352
931.61396118,0.00060862
933.54276855,0.00078182
935.47157593,0.00067393
937.40038330,0.00072418
939.32919067,0.00091111
941.25799805,0.00092717
943.18680542,0.00080338
945.11561279,0.00093668
947.04442017,0.00104889
948.97322754,0.00082916
950.90203491,0.00080017
952.83084229,0.00086937
954.75964966,0.00057969
956.68845703,0.00060638
958.61726440,0.00103012
960.54607178,0.00094028
962.47487915,0.00073522
964.40368652,0.00082028
966.33249390,0.00086268
968.26130127,0.00094459
970.19010864,0.00098044
972.11891602,0.00106253
974.04772339,0.00115632
975.97653076,0.00117288
977.90533813,0.00123568
979.83414551,0.00126085
981.76295288,0.00151593
983.69176025,0.00159877
985.62056763,0.00169640
987.54937500,0.00215715
989.47818237,0.00203726
991.40698975,0.00219641
993.33579712,0.00260003
995.26460449,0.00248439
997.19341187,0.00311898
999.12221924,0.00349150
1001.05102661,0.00322514
1002.97983398,0.00365045
1004.90864136,0.00398867
1006.83744873,0.00401562
1008.76625610,0.00420872
1010.69506348,0.00466514
1012.62387085,0.00497956
1014.55267822,0.00509900
1016.48148560,0.00556170
1018.41029297,0.00593445
1020.33910034,0.00618337
1022.26790771,0.00630941
1024.19671509,0.00641768
1026.12552246,0.00674829
1028.05432983,0.00696676
1029.98313721,0.00724210
1031.91194458,0.00752167
1033.84075195,0.00762883
1035.76955933,0.00764752
1037.69836670,0.00766824
1039.62717407,0.00767664
1041.55598145,0.00781473
1043.48478882,0.00787163
1045.41359619,0.00767607
1047.34240356,0.00750967
1049.27121094,0.00726057
1051.20001831,0.00741439
1053.12882568,0.00731598
1055.05763306,0.00692475
1056.98644043,0.00700794
1058.91524780,0.00671935
1060.84405518,0.00662157
1062.77286255,0.00660991
1064.70166992,0.00616581
1066.63047729,0.00593916
1068.55928467,0.00582697
1070.48809204,0.00547339
1072.41689941,0.00524580
1074.34570679,0.00525784
1076.27451416,0.00479808
1078.20332153,0.00458036
1080.13212891,0.00440794
1082.06093628,0.00419022
1083.98974365,0.00417384
1085.91855103,0.00366815
1087.84735840,0.00373071
1089.77616577,0.00374654
1091.70497314,0.00340494
1093.63378052,0.00338314
1095.56258789,0.00326007
1097.49139526,0.00308598
1099.42020264,0.00291008
1101.34901001,0.00290511
1103.27781738,0.00275534
1105.20662476,0.00291496
1107.13543213,0.00298786
1109.06423950,0.00276813
1110.99304687,0.00284302
1112.92185425,0.00272537
1114.85066162,0.00287060
1116.77946899,0.00277872
1118.70827637,0.00269151
1120.63708374,0.00288760
1122.56589111,0.00272806
1124.49469849,0.00282768
1126.42350586,0.00300258
1128.35231323,0.00301788
1130.28112061,0.00296426
1132.20992798,0.00304269
1134.13873535,0.00311785
1136.06754272,0.00310572
1137.99635010,0.00331007
1139.92515747,0.00374079
1141.85396484,0.00399395
1143.78277222,0.00398340
1145.71157959,0.00435353
1147.64038696,0.00461344
1149.56919434,0.00482996
1151.49800171,0.00491947
1153.42680908,0.00510917
1155.35561646,0.00558781
1157.28442383,0.00563144
1159.21323120,0.00614962
1161.14203857,0.00631381
1163.07084595,0.00645190
1164.99965332,0.00682100
1166.92846069,0.00670806
1168.85726807,0.00720606
1170.78607544,0.00723871
1172.71488281,0.00749264
1174.64369019,0.00812558
1176.57249756,0.00837464
1178.50130493,0.00874049
1180.43011230,0.00857880
1182.35891968,0.00912530
1184.28772705,0.00990782
1186.21653442,0.01007721
1188.14534180,0.01057422
1190.07414917,0.01104107
1192.00295654,0.01148009
1193.93176392,0.01196731
1195.86057129,0.01257708
1197.78937866,0.01328924
1199.71818604,0.01372450
1201.64699341,0.01416955
1203.57580078,0.01481842
1205.50460815,0.01543133
1207.43341553,0.01615724
1209.36222290,0.01672162
1211.29103027,0.01701968
1213.21983765,0.01756949
1215.14864502,0.01798413
1217.07745239,0.01815780
1219.00625977,0.01859455
1220.93506714,0.01903987
1222.86387451,0.01918035
1224.79268188,0.01956203
1226.72148926,0.01979500
1228.65029663,0.01980110
1230.57910400,0.01998258
1232.50791138,0.01979101
1234.43671875,0.01993445
1236.36552612,0.02000309
1238.29433350,0.01987073
1240.22314087,0.02003918
1242.15194824,0.01990386
1244.08075562,0.01981238
1246.00956299,0.01963880
1247.93837036,0.01967933
1249.86717773,0.01941360
1251.79598511,0.01914984
1253.72479248,0.01938545
1255.65359985,0.01894907
1257.58240723,0.01876198
1259.51121460,0.01845928
1261.44002197,0.01820781
1263.36882935,0.01816172
1265.29763672,0.01743275
1267.22644409,0.01734228
1269.15525146,0.01738354
1271.08405884,0.01710211
1273.01286621,0.01680935
1274.94167358,0.01650446
1276.87048096,0.01635996
1278.79928833,0.01584982
1280.72809570,0.01552781
1282.65690308,0.01532988
1284.58571045,0.01499067
1286.51451782,0.01490241
1288.44332520,0.01449499
1290.37213257,0.01422324
1292.30093994,0.01439382
1294.22974731,0.01413830
1296.15855469,0.01408321
1298.08736206,0.01434384
1300.01616943,0.01426557
1301.94497681,0.01436403
1303.87378418,0.01464444
1305.80259155,0.01465925
1307.73139893,0.01463878
1309.66020630,0.01498407
1311.58901367,0.01522232
1313.51782104,0.01550472
1315.44662842,0.01603147
1317.37543579,0.01636564
1319.30424316,0.01677337
1321.23305054,0.01704751
1323.16185791,0.01766912
1325.09066528,0.01846935
1327.01947266,0.01891124
1328.94828003,0.01933794
1330.87708740,0.01973125
1332.80589478,0.02047750
1334.73470215,0.02082841
1336.66350952,0.02089972
1338.59231689,0.02085424
1340.52112427,0.02082007
1342.44993164,0.02178919
1344.37873901,0.02207813
1346.30754639,0.02184236
1348.23635376,0.02206241
1350.16516113,0.02188728
1352.09396851,0.02166514
1354.02277588,0.02156129
1355.95158325,0.02140448
1357.88039062,0.02135692
1359.80919800,0.02115215
1361.73800537,0.01999572
1363.66681274,0.01971271
1365.59562012,0.02082291
1367.52442749,0.02039473
1369.45323486,0.02008399
1371.38204224,0.02042356
1373.31084961,0.01958323
1375.23965698,0.01951046
1377.16846436,0.02005738
1379.09727173,0.02011469
1381.02607910,0.01994188
1382.95488647,0.02001170
1384.88369385,0.02017989
1386.81250122,0.01921272
1388.74130859,0.01929101
1390.67011597,0.02097723
1392.59892334,0.02057149
1394.52773071,0.01938141
1396.45653809,0.02033419
1398.38534546,0.02014191
1400.31415283,0.01999369
1402.24296021,0.02160522
1404.17176758,0.02051645
1406.10057495,0.02057535
1408.02938232,0.02152204
1409.95818970,0.02070955
1411.88699707,0.02104052
1413.81580444,0.02045747
1415.74461182,0.02075876
1417.67341919,0.01898005
1419.60222656,0.01681284
1421.53103394,0.01914572
1423.45984131,0.01876520
1425.38864868,0.01808674
1427.31745605,0.01842495
1429.24626343,0.01731885
1431.17507080,0.01682532
1433.10387817,0.01678544
1435.03268555,0.01550833
1436.96149292,0.01324338
1438.89030029,0.01490549
1440.81910767,0.01544366
1442.74791504,0.01429237
1444.67672241,0.01510481
1446.60552979,0.01380981
1448.53433716,0.01392935
1450.46314453,0.01454356
1452.39195190,0.01493418
1454.32075928,0.01537456
1456.24956665,0.01281522
1458.17837402,0.01355957
1460.10718140,0.01739299
1462.03598877,0.01872250
1463.96479614,0.01883002
1465.89360352,0.01934970
1467.82241089,0.02215171
1469.75121826,0.02379223
1471.68002563,0.02129760
1473.60883301,0.02229378
1475.53764038,0.02539373
1477.46644775,0.02731450
1479.39525513,0.02988372
1481.32406250,0.03027543
1483.25286987,0.03213971
1485.18167725,0.03332847
1487.11048462,0.03275010
1489.03929199,0.03271108
1490.96809937,0.03273436
1492.89690674,0.03799162
1494.82571411,0.03734367
1496.75452148,0.03337624
1498.68332886,0.03787963
1500.61213623,0.03913491
1502.54094360,0.04171159
1504.46975098,0.03963964
1506.39855835,0.02930717
1508.32736572,0.03535359
1510.25617310,0.04139768
1512.18498047,0.04030028
1514.11378784,0.04338703
1516.04259521,0.03933436
1517.97140259,0.04104474
1519.90020996,0.03973006
1521.82901733,0.03450340
1523.75782471,0.04195235
1525.68663208,0.04132593
1527.61543945,0.04103842
1529.54424683,0.04549136
1531.47305420,0.04380373
1533.40186157,0.04027941
1535.33066895,0.04251464
1537.25947632,0.04549248
1539.18828369,0.03322664
1541.11709106,0.03444029
1543.04589844,0.04116871
1544.97470581,0.03934302
1546.90351318,0.04644960
1548.83232056,0.04365842
1550.76112793,0.04471606
1552.68993530,0.04480679
1554.61874268,0.04070245
1556.54755005,0.04361913
1558.47635742,0.03146124
1560.40516479,0.03337967
1562.33397217,0.04712581
1564.26277954,0.04466099
1566.19158691,0.04566605
1568.12039429,0.04560053
1570.04920166,0.04059894
1571.97800903,0.04620995
1573.90681641,0.04713602
1575.83562378,0.03778835
1577.76443115,0.04216505
1579.69323853,0.04779156
1581.62204590,0.04599872
1583.55085327,0.04702955
1585.47966064,0.04627541
1587.40846802,0.04672905
1589.33727539,0.04637451
1591.26608276,0.04628192
1593.19489014,0.04659372
1595.12369751,0.04616843
1597.05250488,0.04671394
1598.98131226,0.04641198
1600.91011963,0.04672847
1602.83892700,0.04593277
1604.76773437,0.04676022
1606.69654175,0.04602947
1608.62534912,0.04576078
1610.55415649,0.04586201
1612.48296387,0.04621026
1614.41177124,0.04695694
1616.34057861,0.03873077
1618.26938599,0.04175979
1620.19819336,0.04842650
1622.12700073,0.04317856
1624.05580811,0.04346490
1625.98461548,0.04554769
1627.91342285,0.04549061
1629.84223022,0.04517167
1631.77103760,0.04808277
1633.69984497,0.04477112
1635.62865234,0.03710527
1637.55745972,0.04289801
1639.48626709,0.04716069
1641.41507446,0.04593721
1643.34388184,0.04724097
1645.27268921,0.04282270
1647.20149658,0.03774189
1649.13030396,0.04666630
1651.05911133,0.04458470
1652.98791870,0.02896050
1654.91672607,0.03867998
1656.84553345,0.04858795
1658.77434082,0.04634290
1660.70314819,0.04785843
1662.63195557,0.04379535
1664.56076294,0.04574993
1666.48957031,0.04926962
1668.41837769,0.04326930
1670.34718506,0.04196117
1672.27599243,0.04760458
1674.20479980,0.04410285
1676.13360718,0.04213309
1678.06241455,0.04846498
1679.99122192,0.04677114
1681.92002930,0.04632070
1683.84883667,0.03814209
1685.77764404,0.03740558
1687.70645142,0.05107483
1689.63525879,0.04458805
1691.56406616,0.04841498
1693.49287354,0.04974468
1695.42168091,0.03669062
1697.35048828,0.04485277
1699.27929565,0.03979471
1701.20810303,0.03564243
1703.13691040,0.04827906
1705.06571777,0.04461640
1706.99452515,0.04482344
1708.92333252,0.04874638
1710.85213989,0.04700215
1712.78094727,0.04772182
1714.70975464,0.04448204
1716.63856201,0.04007043
1718.56736938,0.03928376
1720.49617676,0.04644782
1722.42498413,0.04830165
1724.35379150,0.04485480
1726.28259888,0.04865722
1728.21140625,0.04512066
1730.14021362,0.04552326
1732.06902100,0.04450615
1733.99782837,0.03418575
1735.92663574,0.04206334
1737.85544312,0.04663808
1739.78425049,0.04173518
1741.71305786,0.04515143
1743.64186523,0.04580536
1745.57067261,0.04596439
1747.49947998,0.04624930
1749.42828735,0.04433811
1751.35709473,0.04251386
1753.28590210,0.04692425
1755.21470947,0.04917759
1757.14351685,0.04479054
1759.07232422,0.04914794
1761.00113159,0.04654112
1762.92993896,0.04481591
1764.85874634,0.05117815
1766.78755371,0.04624312
1768.71636108,0.04662701
1770.64516846,0.04661806
1772.57397583,0.04202317
1774.50278320,0.04657503
1776.43159058,0.04904852
1778.36039795,0.04846582
1780.28920532,0.04798664
1782.21801270,0.04816201
1784.14682007,0.04833489
1786.07562744,0.04749206
1788.00443481,0.04971974
1789.93324219,0.04882143
1791.86204956,0.04427964
1793.79085693,0.04603202
1795.71966431,0.04932062
1797.64847168,0.04871451
1799.57727905,0.04810125
1801.50608643,0.04716765
1803.43489380,0.04886414
1805.36370117,0.04980843
1807.29250854,0.04900641
1809.22131592,0.04932816
1811.15012329,0.04797753
1813.07893066,0.04969783
1815.00773804,0.04976319
1816.93654541,0.04926487
1818.86535278,0.05006528
1820.79416016,0.04953692
1822.72296753,0.05020632
1824.65177490,0.04705847
1826.58058228,0.04882500
1828.50938965,0.04908378
1830.43819702,0.04600498
1832.36700439,0.05001285
1834.29581177,0.04965901
1836.22461914,0.04962537
1838.15342651,0.04941194
1840.08223389,0.04955512
1842.01104126,0.04995241
1843.93984863,0.04449854
1845.86865601,0.04706768
1847.79746338,0.04981473
1849.72627075,0.04888953
1851.65507812,0.05023275
1853.58388550,0.04932107
1855.51269287,0.04993640
1857.44150024,0.04963019
1859.37030762,0.04917102
1861.29911499,0.04958946
1863.22792236,0.04907129
1865.15672974,0.04968286
1867.08553711,0.04825503
1869.01434448,0.04619151
1870.94315186,0.04798582
1872.87195923,0.04974562
1874.80076660,0.04903840
1876.72957397,0.04944680
1878.65838135,0.04918959
1880.58718872,0.04898765
1882.51599609,0.04935261
1884.44480347,0.04849274
1886.37361084,0.04934974
1888.30241821,0.04845037
1890.23122559,0.04745975
1892.16003296,0.04909811
1894.08884033,0.04858008
1896.01764771,0.04830321
1897.94645508,0.04889269
1899.87526245,0.04882683
1901.80406982,0.04888861
1903.73287720,0.04849534
1905.66168457,0.04864787
1907.59049194,0.04834084
1909.51929932,0.04795528
1911.44810669,0.04835634
1913.37691406,0.04859356
1915.30572144,0.04877939
1917.23452881,0.04685732
1919.16333618,0.04695820
1921.09214355,0.04867965
1923.02095093,0.04731486
1924.94975830,0.04813667
1926.87856567,0.04866824
1928.80737305,0.04819107
1930.73618042,0.04869754
1932.66498779,0.04797675
1934.59379517,0.04854638
1936.52260254,0.04822849
1938.45140991,0.04833950
1940.38021729,0.04846299
1942.30902466,0.04693120
1944.23783203,0.04778730
1946.16663940,0.04829200
1948.09544678,0.04810069
1950.02425415,0.04839071
1951.95306152,0.04849628
1953.88186890,0.04841379
1955.81067627,0.04814980
1957.73948364,0.04854284
1959.66829102,0.04840119
1961.59709839,0.04825341
1963.52590576,0.04844492
1965.45471313,0.04812355
1967.38352051,0.04762969
1969.31232788,0.04816261
1971.24113525,0.04845799
1973.16994263,0.04792146
1975.09875000,0.04832150
1977.02755737,0.04819850
1978.95636475,0.04820150
1980.88517212,0.04818261
1982.81397949,0.04801898
1984.74278687,0.04827052
1986.67159424,0.04767187
1988.60040161,0.04795647
1990.52920898,0.04767556
1992.45801636,0.04708712
1994.38682373,0.04787007
1996.31563110,0.04803141
1998.24443848,0.04791448
2000.17324585,0.04774197
2002.10205322,0.04755961
2004.03086060,0.04753014
2005.95966797,0.04749779
2007.88847534,0.04754167
2009.81728271,0.04739211
2011.74609009,0.04727896
2013.67489746,0.04732953
2015.60370483,0.04700912
2017.53251221,0.04667704
2019.46131958,0.04709594
2021.39012695,0.04705627
2023.31893433,0.04683952
2025.24774170,0.04696686
2027.17654907,0.04685565
2029.10535645,0.04683059
2031.03416382,0.04664481
2032.96297119,0.04662179
2034.89177856,0.04658406
2036.82058594,0.04651146
2038.74939331,0.04654844
2040.67820068,0.04630672
2042.60700806,0.04624319
2044.53581543,0.04619911
2046.46462280,0.04624037
2048.39343018,0.04623893
2050.32223755,0.04608069
2052.25104492,0.04611018
2054.17985229,0.04599928
2056.10865967,0.04597405
2058.03746704,0.04599049
2059.96627441,0.04577916
2061.89508179,0.04576151
2063.82388916,0.04563928
2065.75269653,0.04544789
2067.68150391,0.04554863
2069.61031128,0.04543898
2071.53911865,0.04541337
2073.46792603,0.04543199
2075.39673340,0.04526787
2077.32554077,0.04517256
2079.25434814,0.04515261
2081.18315552,0.04534824
2083.11196289,0.04514380
2085.04077026,0.04501424
2086.96957764,0.04510938
2088.89838501,0.04491039
2090.82719238,0.04494123
2092.75599976,0.04486245
2094.68480713,0.04477850
2096.61361450,0.04471084
2098.54242187,0.04459865
2100.47122925,0.04460080
2102.40003662,0.04450145
2104.32884399,0.04454834
2106.25765137,0.04456495
2108.18645874,0.04445327
2110.11526611,0.04434763
2112.04407349,0.04437156
2113.97288086,0.04434523
2115.90168823,0.04423008
2117.83049561,0.04424860
2119.75930298,0.04429264
2121.68811035,0.04420242
2123.61691772,0.04396110
2125.54572510,0.04409432
2127.47453247,0.04411517
2129.40333984,0.04393138
2131.33214722,0.04402455
2133.26095459,0.04404056
2135.18976196,0.04405297
2137.11856934,0.04381867
2139.04737671,0.04366902
2140.97618408,0.04381924
2142.90499146,0.04384314
2144.83379883,0.04373790
2146.76260620,0.04357614
2148.69141357,0.04367876
2150.62022095,0.04375070
2152.54902832,0.04363721
2154.47783569,0.04364448
2156.40664307,0.04372035
2158.33545044,0.04365952
2160.26425781,0.04353865
2162.19306519,0.04354699
2164.12187256,0.04351636
2166.05067993,0.04348204
2167.97948730,0.04350857
2169.90829468,0.04346593
2171.83710205,0.04338029
2173.76590942,0.04339599
2175.69471680,0.04328834
2177.62352417,0.04324179
2179.55233154,0.04336208
2181.48113892,0.04316256
2183.40994629,0.04313524
2185.33875366,0.04325660
2187.26756104,0.04312619
2189.19636841,0.04312716
2191.12517578,0.04314823
2193.05398315,0.04298976
2194.98279053,0.04301976
2196.91159790,0.04300624
2198.84040527,0.04278648
2200.76921265,0.04295924
2202.69802002,0.04293090
2204.62682739,0.04278889
2206.55563477,0.04294604
2208.48444214,0.04285099
2210.41324951,0.04283831
2212.34205688,0.04281052
2214.27086426,0.04275923
2216.19967163,0.04274537
2218.12847900,0.04259713
2220.05728638,0.04261807
2221.98609375,0.04272105
2223.91490112,0.04264243
2225.84370850,0.04247390
2227.77251587,0.04253738
2229.70132324,0.04249855
2231.63013062,0.04242336
2233.55893799,0.04244538
2235.48774536,0.04235461
2237.41655273,0.04242046
2239.34536011,0.04243971
2241.27416748,0.04233107
2243.20297485,0.04217766
2245.13178223,0.04215889
2247.06058960,0.04225220
2248.98939697,0.04217647
2250.91820435,0.04208003
2252.84701172,0.04209542
2254.77581909,0.04209174
2256.70462646,0.04189218
2258.63343384,0.04183982
2260.56224121,0.04194537
2262.49104858,0.04191462
2264.41985596,0.04171766
2266.34866333,0.04168542
2268.27747070,0.04184122
2270.20627808,0.04177165
2272.13508545,0.04174826
2274.06389282,0.04169283
2275.99270020,0.04169001
2277.92150757,0.04165813
2279.85031494,0.04156277
2281.77912231,0.04175351
2283.70792969,0.04163568
2285.63673706,0.04149523
2287.56554443,0.04155692
2289.49435181,0.04135086
2291.42315918,0.04123344
2293.35196655,0.04131686
2295.28077393,0.04111297
2297.20958130,0.04105578
2299.13838867,0.04105436
2301.06719604,0.04056038
2302.99600342,0.04056001
2304.92481079,0.04053247
2306.85361816,0.04011882
2308.78242554,0.03991115
2310.71123291,0.03962947
2312.64004028,0.03926475
2314.56884766,0.03879569
2316.49765503,0.03864592
2318.42646240,0.03820236
2320.35526978,0.03759980
2322.28407715,0.03727342
2324.21288452,0.03666592
2326.14169189,0.03631562
2328.07049927,0.03593951
2329.99930664,0.03552153
2331.92811401,0.03530176
2333.85692139,0.03521511
2335.78572876,0.03506722
2337.71453613,0.03497578
2339.64334351,0.03507902
2341.57215088,0.03508377
2343.50095825,0.03567569
2345.42976562,0.03622308
2347.35857300,0.03761345
2349.28738037,0.03907034
2351.21618774,0.03776084
2353.14499512,0.03599206
2355.07380249,0.03480505
2357.00260986,0.03374865
2358.93141724,0.03318213
2360.86022461,0.03269970
2362.78903198,0.03254393
2364.71783936,0.03284268
2366.64664673,0.03341658
2368.57545410,0.03383754
2370.50426147,0.03460199
2372.43306885,0.03556114
2374.36187622,0.03650132
2376.29068359,0.03765434
2378.21949097,0.03843653
2380.14829834,0.03914363
2382.07710571,0.03956965
2384.00591309,0.03973591
2385.93472046,0.03990943
2387.86352783,0.03989688
2389.79233521,0.03990149
2391.72114258,0.03988434
2393.64994995,0.03998859
2395.57875732,0.03990903
2397.50756470,0.03975523
2399.43637207,0.03991734
2401.36517944,0.03977690
2403.29398682,0.03961027
2405.22279419,0.03977431
2407.15160156,0.03959623
2409.08040894,0.03951851
2411.00921631,0.03961360
2412.93802368,0.03939875
2414.86683105,0.03949758
2416.79563843,0.03953777
2418.72444580,0.03940162
2420.65325317,0.03939753
2422.58206055,0.03934902
2424.51086792,0.03947663
2426.43967529,0.03939549
2428.36848267,0.03916146
2430.29729004,0.03921167
2432.22609741,0.03928026
2434.15490479,0.03917748
2436.08371216,0.03918223
2438.01251953,0.03914859
2439.94132690,0.03904242
2441.87013428,0.03911188
2443.79894165,0.03906944
2445.72774902,0.03906120
2447.65655640,0.03899846
2449.58536377,0.03899289
2451.51417114,0.03895590
2453.44297852,0.03888473
2455.37178589,0.03906005
2457.30059326,0.03880570
2459.22940063,0.03878979
2461.15820801,0.03892214
2463.08701538,0.03876845
2465.01582275,0.03877389
2466.94463013,0.03860691
2468.87343750,0.03863975
2470.80224487,0.03864540
2472.73105225,0.03853100
2474.65985962,0.03853535
2476.58866699,0.03845436
2478.51747437,0.03841794
2480.44628174,0.03850716
2482.37508911,0.03856140
2484.30389648,0.03830849
2486.23270386,0.03835469
2488.16151123,0.03838976
2490.09031860,0.03821471
2492.01912598,0.03834273
2493.94793335,0.03829025
2495.87674072,0.03822923
2497.80554810,0.03816141
2499.73435547,0.03807207
2501.66316284,0.03812665
2503.59197021,0.03812581
2505.52077759,0.03813339
2507.44958496,0.03808533
2509.37839233,0.03801869
2511.30719971,0.03795539
2513.23600708,0.03791763
2515.16481445,0.03789531
2517.09362183,0.03791988
2519.02242920,0.03793116
2520.95123657,0.03783665
2522.88004395,0.03778168
2524.80885132,0.03769996
2526.73765869,0.03766825
2528.66646606,0.03773873
2530.59527344,0.03770711
2532.52408081,0.03766764
2534.45288818,0.03769318
2536.38169556,0.03760954
2538.31050293,0.03767840
2540.23931030,0.03764988
2542.16811768,0.03740971
2544.09692505,0.03747392
2546.02573242,0.03742535
2547.95453979,0.03736733
2549.88334717,0.03743762
2551.81215454,0.03741556
2553.74096191,0.03734158
2555.66976929,0.03731563
2557.59857666,0.03738618
2559.52738403,0.03716161
2561.45619141,0.03717988
2563.38499878,0.03722957
2565.31380615,0.03711779
2567.24261353,0.03716129
2569.17142090,0.03699653
2571.10022827,0.03708197
2573.02903564,0.03698125
2574.95784302,0.03689269
2576.88665039,0.03699583
2578.81545776,0.03683685
2580.74426514,0.03701714
2582.67307251,0.03695755
2584.60187988,0.03680202
2586.53068726,0.03683176
2588.45949463,0.03671938
2590.38830200,0.03676505
2592.31710937,0.03672610
2594.24591675,0.03669743
2596.17472412,0.03668579
2598.10353149,0.03656703
2600.03233887,0.03656645
2601.96114624,0.03656563
2603.88995361,0.03646313
2605.81876099,0.03645042
2607.74756836,0.03647604
2609.67637573,0.03643963
2611.60518311,0.03646293
2613.53399048,0.03644479
2615.46279785,0.03635889
2617.39160522,0.03627060
2619.32041260,0.03625525
2621.24921997,0.03620317
2623.17802734,0.03618348
2625.10683472,0.03624255
2627.03564209,0.03618570
2628.96444946,0.03615161
2630.89325684,0.03603365
2632.82206421,0.03607747
2634.75087158,0.03614023
2636.67967895,0.03595870
2638.60848633,0.03595191
2640.53729370,0.03589993
2642.46610107,0.03583373
2644.39490845,0.03583678
2646.32371582,0.03582641
2648.25252319,0.03576505
2650.18133057,0.03569615
2652.11013794,0.03580901
2654.03894531,0.03574473
2655.96775269,0.03559496
2657.89656006,0.03559753
2659.82536743,0.03561231
2661.75417480,0.03554912
2663.68298218,0.03547282
2665.61178955,0.03550465
2667.54059692,0.03548549
2669.46940430,0.03543993
2671.39821167,0.03543036
2673.32701904,0.03536732
2675.25582642,0.03529016
2677.18463379,0.03536692
2679.11344116,0.03538759
2681.04224854,0.03520916
2682.97105591,0.03514770
2684.89986328,0.03513059
2686.82867065,0.03507018
2688.75747803,0.03511382
2690.68628540,0.03521343
2692.61509277,0.03510983
2694.54390015,0.03499603
2696.47270752,0.03496712
2698.40151489,0.03483800
2700.33032227,0.03491991
2702.25912964,0.03488846
2704.18793701,0.03470200
2706.11674438,0.03476160
2708.04555176,0.03475690
2709.97435913,0.03471164
2711.90316650,0.03471311
2713.83197388,0.03465573
2715.76078125,0.03459073
2717.68958862,0.03455710
2719.61839600,0.03451798
2721.54720337,0.03444730
2723.47601074,0.03444958
2725.40481812,0.03451183
2727.33362549,0.03443522
2729.26243286,0.03433889
2731.19124023,0.03441738
2733.12004761,0.03432335
2735.04885498,0.03414815
2736.97766235,0.03427077
2738.90646973,0.03432240
2740.83527710,0.03415511
2742.76408447,0.03414052
2744.69289185,0.03411466
2746.62169922,0.03402266
2748.55050659,0.03406721
2750.47931396,0.03393492
2752.40812134,0.03387678
2754.33692871,0.03395453
2756.26573608,0.03388638
2758.19454346,0.03384630
2760.12335083,0.03374488
2762.05215820,0.03375104
2763.98096558,0.03370288
2765.90977295,0.03356241
2767.83858032,0.03365208
2769.76738770,0.03369581
2771.69619507,0.03365947
2773.62500244,0.03356238
2775.55380981,0.03347962
2777.48261719,0.03348887
2779.41142456,0.03347032
2781.34023193,0.03338698
2783.26903931,0.03325323
2785.19784668,0.03325674
2787.12665405,0.03331055
2789.05546143,0.03319100
2790.98426880,0.03311709
2792.91307617,0.03318882
2794.84188354,0.03316623
2796.77069092,0.03310306
2798.69949829,0.03294623
2800.62830566,0.03288139
2802.55711304,0.03297850
2804.48592041,0.03284295
2806.41472778,0.03278799
2808.34353516,0.03278184
2810.27234253,0.03272262
2812.20114990,0.03269400
2814.12995728,0.03262660
2816.05876465,0.03261260
2817.98757202,0.03255840
2819.91637939,0.03256827
2821.84518677,0.03238031
2823.77399414,0.03226808
2825.70280151,0.03240982
2827.63160889,0.03234310
2829.56041626,0.03228422
2831.48922363,0.03221233
2833.41803101,0.03218999
2835.34683838,0.03211156
2837.27564575,0.03202927
2839.20445312,0.03204130
2841.13326050,0.03188320
2843.06206787,0.03181286
2844.99087524,0.03176241
2846.91968262,0.03164202
2848.84848999,0.03147559
2850.77729736,0.03131758
2852.70610474,0.03119317
2854.63491211,0.03127509
2856.56371948,0.03138552
2858.49252686,0.03122662
2860.42133423,0.03130721
2862.35014160,0.03115837
2864.27894897,0.03105579
2866.20775635,0.03119888
2868.13656372,0.03097939
2870.06537109,0.03102315
2871.99417847,0.03095614
2873.92298584,0.03087771
2875.85179321,0.03108114
2877.78060059,0.03095105
2879.70940796,0.03079049
2881.63821533,0.03084198
2883.56702270,0.03091675
2885.49583008,0.03080367
2887.42463745,0.03075102
2889.35344482,0.03072077
2891.28225220,0.03060012
2893.21105957,0.03059672
2895.13986694,0.03053561
2897.06867432,0.03049958
2898.99748169,0.03044318
2900.92628906,0.03033249
2902.85509644,0.03026331
2904.78390381,0.03019466
2906.71271118,0.03011339
2908.64151855,0.03005692
2910.57032593,0.03007521
2912.49913330,0.02989474
2914.42794067,0.02966869
2916.35674805,0.02971190
2918.28555542,0.02969707
2920.21436279,0.02952934
2922.14317017,0.02955184
2924.07197754,0.02954763
2926.00078491,0.02938146
2927.92959229,0.02942042
2929.85839966,0.02948004
2931.78720703,0.02943687
2933.71601440,0.02938242
2935.64482178,0.02934899
2937.57362915,0.02943184
2939.50243652,0.02945368
2941.43124390,0.02938186
2943.36005127,0.02941874
2945.28885864,0.02944824
2947.21766602,0.02929089
2949.14647339,0.02919126
2951.07528076,0.02918372
2953.00408813,0.02921293
2954.93289551,0.02919403
2956.86170288,0.02901582
2958.79051025,0.02896876
2960.71931763,0.02894719
2962.64812500,0.02891253
2964.57693237,0.02892164
2966.50573975,0.02884183
2968.43454712,0.02879882
2970.36335449,0.02881989
2972.29216187,0.02889551
2974.22096924,0.02886261
2976.14977661,0.02885055
2978.07858398,0.02894821
2980.00739136,0.02889836
2981.93619873,0.02888922
2983.86500610,0.02886962
2985.79381348,0.02882830
2987.72262085,0.02887576
2989.65142822,0.02880153
2991.58023560,0.02879506
2993.50904297,0.02874927
2995.43785034,0.02867541
2997.36665771,0.02884661
2999.29546509,0.02871900
3001.22427246,0.02857775
3003.15307983,0.02866421
3005.08188721,0.02853234
3007.01069458,0.02858683
3008.93950195,0.02859320
3010.86830933,0.02841333
3012.79711670,0.02840296
3014.72592407,0.02835887
3016.65473145,0.02835568
3018.58353882,0.02833091
3020.51234619,0.02824711
3022.44115356,0.02821423
3024.36996094,0.02809216
3026.29876831,0.02801394
3028.22757568,0.02803810
3030.15638306,0.02789255
3032.08519043,0.02783533
3034.01399780,0.02795115
3035.94280518,0.02785088
3037.87161255,0.02783117
3039.80041992,0.02786917
3041.72922729,0.02776180
3043.65803467,0.02767745
3045.58684204,0.02761910
3047.51564941,0.02758900
3049.44445679,0.02751341
3051.37326416,0.02747831
3053.30207153,0.02743961
3055.23087891,0.02742879
3057.15968628,0.02739788
3059.08849365,0.02727096
3061.01730103,0.02729016
3062.94610840,0.02726438
3064.87491577,0.02715790
3066.80372314,0.02711120
3068.73253052,0.02711119
3070.66133789,0.02712028
3072.59014526,0.02713187
3074.51895264,0.02703948
3076.44776001,0.02691788
3078.37656738,0.02698861
3080.30537476,0.02687707
3082.23418213,0.02677093
3084.16298950,0.02683216
3086.09179687,0.02683640
3088.02060425,0.02684286
3089.94941162,0.02674948
3091.87821899,0.02665137
3093.80702637,0.02649781
3095.73583374,0.02645951
3097.66464111,0.02656899
3099.59344849,0.02653264
3101.52225586,0.02640913
3103.45106323,0.02636274
3105.37987061,0.02640858
3107.30867798,0.02637730
3109.23748535,0.02637830
3111.16629272,0.02623479
3113.09510010,0.02611465
3115.02390747,0.02616267
3116.95271484,0.02605526
3118.88152222,0.02601954
3120.81032959,0.02593289
3122.73913696,0.02578010
3124.66794434,0.02579556
3126.59675171,0.02590619
3128.52555908,0.02575460
3130.45436645,0.02557791
3132.38317383,0.02571737
3134.31198120,0.02559235
3136.24078857,0.02544503
3138.16959595,0.02542845
3140.09840332,0.02533227
3142.02721069,0.02528187
3143.95601807,0.02526773
3145.88482544,0.02529334
3147.81363281,0.02515385
3149.74244019,0.02503064
3151.67124756,0.02507439
3153.60005493,0.02511684
3155.52886230,0.02496421
3157.45766968,0.02484757
3159.38647705,0.02489404
3161.31528442,0.02482142
3163.24409180,0.02474940
3165.17289917,0.02466254
3167.10170654,0.02470032
3169.03051392,0.02462899
3170.95932129,0.02443906
3172.88812866,0.02446122
3174.81693604,0.02440123
3176.74574341,0.02435966
3178.67455078,0.02435941
3180.60335815,0.02437102
3182.53216553,0.02428309
3184.46097290,0.02412597
3186.38978027,0.02412270
3188.31858765,0.02413881
3190.24739502,0.02409181
3192.17620239,0.02401213
3194.10500977,0.02395469
3196.03381714,0.02376457
3197.96262451,0.02375538
3199.89143188,0.02380798
3201.82023926,0.02370101
3203.74904663,0.02369971
3205.67785400,0.02365212
3207.60666138,0.02359064
3209.53546875,0.02348138
3211.46427612,0.02351353
3213.39308350,0.02344330
3215.32189087,0.02339573
3217.25069824,0.02345926
3219.17950562,0.02324001
3221.10831299,0.02336993
3223.03712036,0.02339179
3224.96592773,0.02327901
3226.89473511,0.02328774
3228.82354248,0.02320358
3230.75234985,0.02324779
3232.68115723,0.02307934
3234.60996460,0.02309568
3236.53877197,0.02315853
3238.46757935,0.02306792
3240.39638672,0.02304131
3242.32519409,0.02295825
3244.25400146,0.02298806
3246.18280884,0.02296773
3248.11161621,0.02296886
3250.04042358,0.02295170
3251.96923096,0.02296595
3253.89803833,0.02292922
3255.82684570,0.02279355
3257.75565308,0.02277722
3259.68446045,0.02277495
3261.61326782,0.02287103
3263.54207520,0.02277772
3265.47088257,0.02265572
3267.39968994,0.02272839
3269.32849731,0.02277853
3271.25730469,0.02278143
3273.18611206,0.02271052
3275.11491943,0.02266222
3277.04372681,0.02261578
3278.97253418,0.02257453
3280.90134155,0.02253188
3282.83014893,0.02258888
3284.75895630,0.02256579
3286.68776367,0.02256021
3288.61657104,0.02261043
3290.54537842,0.02246866
3292.47418579,0.02248024
3294.40299316,0.02244161
3296.33180054,0.02245034
3298.26060791,0.02249316
3300.18941528,0.02238596
3302.11822266,0.02238538
3304.04703003,0.02238991
3305.97583740,0.02234983
3307.90464478,0.02223698
3309.83345215,0.02230316
3311.76225952,0.02225556
3313.69106689,0.02221247
3315.61987427,0.02231186
3317.54868164,0.02217439
3319.47748901,0.02221579
3321.40629639,0.02219852
3323.33510376,0.02209741
3325.26391113,0.02201452
3327.19271851,0.02201797
3329.12152588,0.02213404
3331.05033325,0.02206127
3332.97914062,0.02207616
3334.90794800,0.02199032
3336.83675537,0.02192880
3338.76556274,0.02194859
3340.69437012,0.02192504
3342.62317749,0.02196290
3344.55198486,0.02186753
3346.48079224,0.02183438
3348.40959961,0.02180312
3350.33840698,0.02176870
3352.26721436,0.02177170
3354.19602173,0.02170401
3356.12482910,0.02165462
3358.05363647,0.02164422
3359.98244385,0.02164821
3361.91125122,0.02154617
3363.84005859,0.02146208
3365.76886597,0.02152559
3367.69767334,0.02147503
3369.62648071,0.02138818
3371.55528809,0.02144388
3373.48409546,0.02141662
3375.41290283,0.02149678
3377.34171020,0.02138969
3379.27051758,0.02126525
3381.19932495,0.02140772
3383.12813232,0.02116940
3385.05693970,0.02114638
3386.98574707,0.02118208
3388.91455444,0.02116742
3390.84336182,0.02117160
3392.77216919,0.02091577
3394.70097656,0.02106234
3396.62978394,0.02104140
3398.55859131,0.02093816
3400.48739868,0.02090366
3402.41620605,0.02083494
3404.34501343,0.02094178
3406.27382080,0.02088418
3408.20262817,0.02089918
3410.13143555,0.02081557
3412.06024292,0.02082263
3413.98905029,0.02073128
3415.91785767,0.02066405
3417.84666504,0.02077939
3419.77547241,0.02054835
3421.70427979,0.02049696
3423.63308716,0.02051645
3425.56189453,0.02058800
3427.49070190,0.02052840
3429.41950928,0.02043006
3431.34831665,0.02047378
3433.27712402,0.02034214
3435.20593140,0.02036172
3437.13473877,0.02031536
3439.06354614,0.02040178
3440.99235352,0.02032972
3442.92116089,0.02013342
3444.84996826,0.02016275
3446.77877563,0.02000973
3448.70758301,0.02008680
3450.63639038,0.02018485
3452.56519775,0.02012286
3454.49400513,0.02013356
3456.42281250,0.02013409
3458.35161987,0.02003464
3460.28042725,0.02002414
3462.20923462,0.02010045
3464.13804199,0.02007755
3466.06684937,0.02000215
3467.99565674,0.01989957
3469.92446411,0.02009372
3471.85327148,0.02011565
3473.78207886,0.01997965
3475.71088623,0.01989984
3477.63969360,0.01983092
3479.56850098,0.01987871
3481.49730835,0.01976212
3483.42611572,0.01984331
3485.35492310,0.01984728
3487.28373047,0.01986490
3489.21253784,0.01978383
3491.14134521,0.01974585
3493.07015259,0.01996281
3494.99895996,0.01969202
3496.92776733,0.01969401
3498.85657471,0.01981907
3500.78538208,0.01981590
3502.71418945,0.01948132
3504.64299683,0.01940866
3506.57180420,0.01990506
3508.50061157,0.01954073
3510.42941895,0.01953364
3512.35822632,0.01977417
3514.28703369,0.01975035
3516.21584106,0.01982633
3518.14464844,0.01968202
3520.07345581,0.01976741
3522.00226318,0.01953221
3523.93107056,0.01929153
3525.85987793,0.01939740
3527.78868530,0.01947240
3529.71749268,0.01951049
3531.64630005,0.01970926
3533.57510742,0.01984685
3535.50391479,0.01961677
3537.43272217,0.01960930
3539.36152954,0.01967844
3541.29033691,0.01970883
3543.21914429,0.01955369
3545.14795166,0.01905413
3547.07675903,0.01881872
3549.00556641,0.01945605
3550.93437378,0.01964028
3552.86318115,0.01911901
3554.79198853,0.01949211
3556.72079590,0.01960579
3558.64960327,0.01958606
3560.57841064,0.01951377
3562.50721802,0.01939890
3564.43602539,0.01942097
3566.36483276,0.01806726
3568.29364014,0.01779120
3570.22244751,0.01918575
3572.15125488,0.01967374
3574.08006226,0.01944528
3576.00886963,0.01949780
3577.93767700,0.01948917
3579.86648437,0.01941922
3581.79529175,0.01950260
3583.72409912,0.01945355
3585.65290649,0.01913756
3587.58171387,0.01773931
3589.51052124,0.01803121
3591.43932861,0.01959332
3593.36813599,0.01913493
3595.29694336,0.01884860
3597.22575073,0.01914497
3599.15455811,0.01926672
3601.08336548,0.01917393
3603.01217285,0.01932199
3604.94098022,0.01964925
3606.86978760,0.01896883
3608.79859497,0.01789746
3610.72740234,0.01828025
3612.65620972,0.01865433
3614.58501709,0.01819214
3616.51382446,0.01941085
3618.44263184,0.01801141
3620.37143921,0.01749555
3622.30024658,0.01958818
3624.22905395,0.01901790
3626.15786133,0.01979288
3628.08666870,0.01687225
3630.01547607,0.01546011
3631.94428345,0.01933417
3633.87309082,0.01888897
3635.80189819,0.01907892
3637.73070557,0.01955107
3639.65951294,0.01935545
3641.58832031,0.01945863
3643.51712769,0.01929411
3645.44593506,0.01943664
3647.37474243,0.01748697
3649.30354980,0.01614614
3651.23235718,0.01633812
3653.16116455,0.01931491
3655.08997192,0.01906065
3657.01877930,0.01709233
3658.94758667,0.01952979
3660.87639404,0.01913655
3662.80520142,0.01941792
3664.73400879,0.01936063
3666.66281616,0.01926647
3668.59162354,0.01870317
3670.52043091,0.01527526
3672.44923828,0.01843496
3674.37804565,0.01769349
3676.30685303,0.01478517
3678.23566040,0.01835310
3680.16446777,0.01873616
3682.09327515,0.01875605
3684.02208252,0.01919915
3685.95088989,0.01896789
3687.87969727,0.01727653
3689.80850464,0.01586801
3691.73731201,0.01797619
3693.66611938,0.01838304
3695.59492676,0.01887555
3697.52373413,0.01899799
3699.45254150,0.01874239
3701.38134888,0.01830928
3703.31015625,0.01756735
3705.23896362,0.01923385
3707.16777100,0.01840901
3709.09657837,0.01794556
3711.02538574,0.01699978
3712.95419312,0.01595730
3714.88300049,0.01846753
3716.81180786,0.01831025
3718.74061523,0.01855644
3720.66942261,0.01810650
3722.59822998,0.01751103
3724.52703735,0.01813682
3726.45584473,0.01684556
3728.38465210,0.01819318
3730.31345947,0.01802455
3732.24226685,0.01672050
3734.17107422,0.01628354
3736.09988159,0.01550446
3738.02868896,0.01634976
3739.95749634,0.01761332
3741.88630371,0.01850322
3743.81511108,0.01453233
3745.74391846,0.01376719
3747.67272583,0.01758651
3749.60153320,0.01522744
3751.53034058,0.01411797
3753.45914795,0.01610100
3755.38795532,0.01726341
3757.31676270,0.01783953
3759.24557007,0.01665162
3761.17437744,0.01718141
3763.10318481,0.01820123
3765.03199219,0.01712336
3766.96079956,0.01736179
3768.88960693,0.01718467
3770.81841431,0.01644250
3772.74722168,0.01786717
3774.67602905,0.01787135
3776.60483643,0.01775619
3778.53364380,0.01745849
3780.46245117,0.01672103
3782.39125854,0.01774315
3784.32006592,0.01743725
3786.24887329,0.01729626
3788.17768066,0.01765830
3790.10648804,0.01752638
3792.03529541,0.01743765
3793.96410278,0.01769968
3795.89291016,0.01670307
3797.82171753,0.01654337
3799.75052490,0.01743628
3801.67933228,0.01408828
3803.60813965,0.01614725
3805.53694702,0.01741833
3807.46575439,0.01442483
3809.39456177,0.01723284
3811.32336914,0.01699735
3813.25217651,0.01754076
3815.18098389,0.01596925
3817.10979126,0.01418269
3819.03859863,0.01749319
3820.96740601,0.01436680
3822.89621338,0.01513789
3824.82502075,0.01748771
3826.75382812,0.01590852
3828.68263550,0.01703857
3830.61144287,0.01643833
3832.54025024,0.01585639
3834.46905762,0.01624128
3836.39786499,0.01557680
3838.32667236,0.01407436
3840.25547974,0.01515243
3842.18428711,0.01634509
3844.11309448,0.01562711
3846.04190186,0.01677873
3847.97070923,0.01658727
3849.89951660,0.01653973
3851.82832397,0.01489691
3853.75713135,0.01140814
3855.68593872,0.01334373
3857.61474609,0.01655653
3859.54355347,0.01611931
3861.47236084,0.01601638
3863.40116821,0.01580209
3865.32997559,0.01460351
3867.25878296,0.01616428
3869.18759033,0.01493702
3871.11639770,0.01385583
3873.04520508,0.01623854
3874.97401245,0.01502411
3876.90281982,0.01609087
3878.83162720,0.01645032
3880.76043457,0.01428346
3882.68924194,0.01618626
3884.61804932,0.01527672
3886.54685669,0.01403194
3888.47566406,0.01624377
3890.40447144,0.01548276
3892.33327881,0.01447413
3894.26208618,0.01590747
3896.19089355,0.01614307
3898.11970093,0.01534941
3900.04850830,0.01467165
3901.97731567,0.01441722
3903.90612305,0.01425819
3905.83493042,0.01452912
3907.76373779,0.01580286
3909.69254517,0.01579006
3911.62135254,0.01568073
3913.55015991,0.01600055
3915.47896728,0.01553866
3917.40777466,0.01508287
3919.33658203,0.01488859
3921.26538940,0.01551818
3923.19419678,0.01544909
3925.12300415,0.01513417
3927.05181152,0.01545982
3928.98061890,0.01552169
3930.90942627,0.01522319
3932.83823364,0.01476627
3934.76704102,0.01535647
3936.69584839,0.01546369
3938.62465576,0.01529323
3940.55346313,0.01553306
3942.48227051,0.01491428
3944.41107788,0.01501078
3946.33988525,0.01530182
3948.26869263,0.01485888
3950.19750000,0.01489559
3952.12630737,0.01520901
3954.05511475,0.01521036
3955.98392212,0.01515340
3957.91272949,0.01511284
3959.84153687,0.01510188
3961.77034424,0.01506835
3963.69915161,0.01495190
3965.62795898,0.01504638
3967.55676636,0.01507347
3969.48557373,0.01498889
3971.41438110,0.01490799
3973.34318848,0.01487907
3975.27199585,0.01483293
3977.20080322,0.01485569
3979.12961060,0.01487537
3981.05841797,0.01472682
3982.98722534,0.01487053
3984.91603271,0.01475419
3986.84484009,0.01470241
3988.77364746,0.01474203
3990.70245483,0.01460551
3992.63126221,0.01475663
3994.56006958,0.01461605
3996.48887695,0.01466594
3998.41768433,0.01467341
4000.34649170,0.01453186
4002.27529907,0.01461052
4004.20410645,0.01450278
4006.13291382,0.01448816
4008.06172119,0.01448092
4009.99052856,0.01448143
4011.91933594,0.01438354
4013.84814331,0.01432807
4015.77695068,0.01428052
4017.70575806,0.01426623
4019.63456543,0.01433526
4021.56337280,0.01417205
4023.49218018,0.01421591
4025.42098755,0.01421818
4027.34979492,0.01418238
4029.27860229,0.01416743
4031.20740967,0.01415940
4033.13621704,0.01416227
4035.06502441,0.01409909
4036.99383179,0.01416668
4038.92263916,0.01400752
4040.85144653,0.01408573
4042.78025391,0.01411291
4044.70906128,0.01396380
4046.63786865,0.01401039
4048.56667603,0.01390506
4050.49548340,0.01392648
4052.42429077,0.01395869
4054.35309814,0.01400986
4056.28190552,0.01387809
4058.21071289,0.01374349
4060.13952026,0.01378805
4062.06832764,0.01370707
4063.99713501,0.01378535
4065.92594238,0.01374606
4067.85474976,0.01367217
4069.78355713,0.01371812
4071.71236450,0.01370431
4073.64117187,0.01357500
4075.56997925,0.01352242
4077.49878662,0.01357995
4079.42759399,0.01350336
4081.35640137,0.01350337
4083.28520874,0.01350774
4085.21401611,0.01347006
4087.14282349,0.01340898
4089.07163086,0.01346598
4091.00043823,0.01341566
4092.92924561,0.01329830
4094.85805298,0.01339113
4096.78686035,0.01330967
4098.71566772,0.01334766
4100.64447510,0.01329507
4102.57328247,0.01316053
4104.50208984,0.01316959
4106.43089722,0.01315314
4108.35970459,0.01321874
4110.28851196,0.01314473
4112.21731934,0.01315935
4114.14612671,0.01314186
4116.07493408,0.01310486
4118.00374145,0.01310364
4119.93254883,0.01292178
4121.86135620,0.01289627
4123.79016357,0.01299201
4125.71897095,0.01298188
4127.64777832,0.01291293
4129.57658569,0.01290265
4131.50539307,0.01280429
4133.43420044,0.01281852
4135.36300781,0.01282710
4137.29181519,0.01280403
4139.22062256,0.01284556
4141.14942993,0.01269536
4143.07823730,0.01274326
4145.00704468,0.01270678
4146.93585205,0.01268688
4148.86465942,0.01264220
4150.79346680,0.01255363
4152.72227417,0.01272641
4154.65108154,0.01256916
4156.57988892,0.01257849
4158.50869629,0.01260192
4160.43750366,0.01254659
4162.36631103,0.01261399
4164.29511841,0.01241090
4166.22392578,0.01244744
4168.15273315,0.01250678
4170.08154053,0.01241533
4172.01034790,0.01243585
4173.93915527,0.01245964
4175.86796265,0.01231688
4177.79677002,0.01223717
4179.72557739,0.01232705
4181.65438477,0.01229995
4183.58319214,0.01229828
4185.51199951,0.01226093
4187.44080688,0.01222979
4189.36961426,0.01218667
4191.29842163,0.01214737
4193.22722900,0.01210456
4195.15603638,0.01205455
4197.08484375,0.01212033
4199.01365112,0.01209951
4200.94245850,0.01210257
4202.87126587,0.01203298
4204.80007324,0.01200959
4206.72888062,0.01195844
4208.65768799,0.01190093
4210.58649536,0.01197947
4212.51530273,0.01187368
4214.44411011,0.01187108
4216.37291748,0.01180960
4218.30172485,0.01179551
4220.23053223,0.01183421
4222.15933960,0.01176821
4224.08814697,0.01180302
4226.01695435,0.01173458
4227.94576172,0.01167948
4229.87456909,0.01159591
4231.80337646,0.01171977
4233.73218384,0.01172683
4235.66099121,0.01156677
4237.58979858,0.01165875
4239.51860596,0.01157929
4241.44741333,0.01161940
4243.37622070,0.01163081
4245.30502808,0.01153879
4247.23383545,0.01152854
4249.16264282,0.01143777
4251.09145020,0.01146238
4253.02025757,0.01145494
4254.94906494,0.01139589
4256.87787231,0.01135597
4258.80667969,0.01137565
4260.73548706,0.01135572
4262.66429443,0.01125830
4264.59310181,0.01130404
4266.52190918,0.01131903
4268.45071655,0.01114824
4270.37952393,0.01120014
4272.30833130,0.01134566
4274.23713867,0.01118323
4276.16594604,0.01119328
4278.09475342,0.01114957
4280.02356079,0.01105637
4281.95236816,0.01115557
4283.88117554,0.01107714
4285.80998291,0.01108264
4287.73879028,0.01106563
4289.66759766,0.01106129
4291.59640503,0.01105010
4293.52521240,0.01093532
4295.45401978,0.01098915
4297.38282715,0.01097055
4299.31163452,0.01091974
4301.24044189,0.01090734
4303.16924927,0.01084527
4305.09805664,0.01080401
4307.02686401,0.01083589
4308.95567139,0.01085974
4310.88447876,0.01080600
4312.81328613,0.01074619
4314.74209351,0.01072145
4316.67090088,0.01071566
4318.59970825,0.01072499
4320.52851562,0.01071464
4322.45732300,0.01063229
4324.38613037,0.01071132
4326.31493774,0.01065018
4328.24374512,0.01053095
4330.17255249,0.01061768
4332.10135986,0.01054219
4334.03016724,0.01053421
4335.95897461,0.01049522
4337.88778198,0.01048881
4339.81658936,0.01046762
4341.74539673,0.01040143
4343.67420410,0.01046887
4345.60301147,0.01035030
4347.53181885,0.01041940
4349.46062622,0.01038340
4351.38943359,0.01023812
4353.31824097,0.01038752
4355.24704834,0.01038994
4357.17585571,0.01025243
4359.10466309,0.01018624
4361.03347046,0.01026851
4362.96227783,0.01024753
4364.89108520,0.01017943
4366.81989258,0.01017714
4368.74869995,0.01018224
4370.67750732,0.01015162
4372.60631470,0.01008843
4374.53512207,0.01009448
4376.46392944,0.01001241
4378.39273682,0.01002430
4380.32154419,0.01003657
4382.25035156,0.01004173
4384.17915894,0.00998736
4386.10796631,0.00992083
4388.03677368,0.00999834
4389.96558105,0.00993524
4391.89438843,0.00999239
4393.82319580,0.00993210
4395.75200317,0.00989264
4397.68081055,0.00991480
4399.60961792,0.00977465
4401.53842529,0.00980166
4403.46723267,0.00975851
4405.39604004,0.00976011
4407.32484741,0.00969672
4409.25365478,0.00969356
4411.18246216,0.00972932
4413.11126953,0.00966994
4415.04007690,0.00970636
4416.96888428,0.00957748
4418.89769165,0.00964612
4420.82649902,0.00971052
4422.75530640,0.00964784
4424.68411377,0.00962074
4426.61292114,0.00954847
4428.54172852,0.00954858
4430.47053589,0.00953492
4432.39934326,0.00953382
4434.32815063,0.00951828
4436.25695801,0.00957735
4438.18576538,0.00942718
4440.11457275,0.00941065
4442.04338013,0.00946136
4443.97218750,0.00933979
4445.90099487,0.00948338
4447.82980225,0.00929527
4449.75860962,0.00925538
4451.68741699,0.00936725
4453.61622437,0.00932987
4455.54503174,0.00939483
4457.47383911,0.00927555
4459.40264648,0.00930299
4461.33145386,0.00923262
4463.26026123,0.00920735
4465.18906860,0.00923762
4467.11787598,0.00919143
4469.04668335,0.00921863
4470.97549072,0.00913131
4472.90429810,0.00917004
4474.83310547,0.00911482
4476.76191284,0.00905471
4478.69072021,0.00901871
4480.61952759,0.00901830
4482.54833496,0.00905892
4484.47714233,0.00898515
4486.40594971,0.00895660
4488.33475708,0.00889542
4490.26356445,0.00898412
4492.19237183,0.00888043
4494.12117920,0.00880304
4496.04998657,0.00889934
4497.97879395,0.00880544
4499.90760132,0.00881267
4501.83640869,0.00880955
4503.76521606,0.00886714
4505.69402344,0.00880164
4507.62283081,0.00876944
4509.55163818,0.00880890
4511.48044556,0.00865772
4513.40925293,0.00871746
4515.33806030,0.00874792
4517.26686768,0.00869531
4519.19567505,0.00865569
4521.12448242,0.00861671
4523.05328979,0.00861367
4524.98209717,0.00860718
4526.91090454,0.00858933
4528.83971191,0.00852922
4530.76851929,0.00851833
4532.69732666,0.00848121
4534.62613403,0.00851912
4536.55494141,0.00851191
4538.48374878,0.00848805
4540.41255615,0.00845387
4542.34136353,0.00840333
4544.27017090,0.00849644
4546.19897827,0.00841973
4548.12778564,0.00838106
4550.05659302,0.00832867
4551.98540039,0.00830439
4553.91420776,0.00841846
4555.84301514,0.00831490
4557.77182251,0.00828361
4559.70062988,0.00830796
4561.62943726,0.00825739
4563.55824463,0.00825050
4565.48705200,0.00825175
4567.41585937,0.00817021
4569.34466675,0.00815392
4571.27347412,0.00822843
4573.20228149,0.00813754
4575.13108887,0.00808071
4577.05989624,0.00808310
4578.98870361,0.00805167
4580.91751099,0.00808732
4582.84631836,0.00812991
4584.77512573,0.00802809
4586.70393311,0.00801449
4588.63274048,0.00805612
4590.56154785,0.00791727
4592.49035522,0.00793341
4594.41916260,0.00793556
4596.34796997,0.00794787
4598.27677734,0.00797655
4600.20558472,0.00792336
4602.13439209,0.00795888
4604.06319946,0.00785354
4605.99200684,0.00785226
4607.92081421,0.00786993
4609.84962158,0.00790354
4611.77842895,0.00796820
4613.70723633,0.00778674
4615.63604370,0.00775984
4617.56485107,0.00779749
4619.49365845,0.00778637
4621.42246582,0.00778814
4623.35127319,0.00772997
4625.28008057,0.00765336
4627.20888794,0.00760329
4629.13769531,0.00765331
4631.06650269,0.00764572
4632.99531006,0.00760605
4634.92411743,0.00762932
4636.85292480,0.00761501
4638.78173218,0.00752754
4640.71053955,0.00760016
4642.63934692,0.00764507
4644.56815430,0.00749233
4646.49696167,0.00755386
4648.42576904,0.00752923
4650.35457642,0.00736213
4652.28338379,0.00747750
4654.21219116,0.00754934
4656.14099853,0.00738504
4658.06980591,0.00733581
4659.99861328,0.00737552
4661.92742065,0.00732774
4663.85622803,0.00734272
4665.78503540,0.00737979
4667.71384277,0.00731501
4669.64265015,0.00725334
4671.57145752,0.00735639
4673.50026489,0.00733181
4675.42907227,0.00722108
4677.35787964,0.00728393
4679.28668701,0.00727193
4681.21549438,0.00730712
4683.14430176,0.00725068
4685.07310913,0.00715270
4687.00191650,0.00717435
4688.93072388,0.00717575
4690.85953125,0.00723054
4692.78833862,0.00715672
4694.71714600,0.00717503
4696.64595337,0.00711586
4698.57476074,0.00703642
4700.50356812,0.00717711
4702.43237549,0.00700784
4704.36118286,0.00699254
4706.28999023,0.00713769
4708.21879761,0.00700010
4710.14760498,0.00697427
4712.07641235,0.00703318
4714.00521973,0.00699880
4715.93402710,0.00702525
4717.86283447,0.00705985
4719.79164185,0.00694668
4721.72044922,0.00694185
4723.64925659,0.00695194
4725.57806396,0.00683043
4727.50687134,0.00684800
4729.43567871,0.00688951
4731.36448608,0.00689127
4733.29329346,0.00689149
4735.22210083,0.00685271
4737.15090820,0.00688049
4739.07971558,0.00686183
4741.00852295,0.00673673
4742.93733032,0.00676457
4744.86613770,0.00679773
4746.79494507,0.00670466
4748.72375244,0.00670192
4750.65255981,0.00668059
4752.58136719,0.00667518
4754.51017456,0.00666780
4756.43898193,0.00661531
4758.36778931,0.00669008
4760.29659668,0.00665845
4762.22540405,0.00656939
4764.15421143,0.00661031
4766.08301880,0.00660773
4768.01182617,0.00660700
4769.94063354,0.00655380
4771.86944092,0.00648818
4773.79824829,0.00658570
4775.72705566,0.00654053
4777.65586304,0.00646161
4779.58467041,0.00650953
4781.51347778,0.00641731
4783.44228516,0.00641578
4785.37109253,0.00646023
4787.29989990,0.00640621
4789.22870728,0.00640374
4791.15751465,0.00636652
4793.08632202,0.00640437
4795.01512939,0.00643969
4796.94393677,0.00636666
4798.87274414,0.00635616
4800.80155151,0.00633956
4802.73035889,0.00631613
4804.65916626,0.00628550
4806.58797363,0.00624966
4808.51678101,0.00629564
4810.44558838,0.00626986
4812.37439575,0.00626036
4814.30320312,0.00628517
4816.23201050,0.00618083
4818.16081787,0.00616054
4820.08962524,0.00617716
4822.01843262,0.00614463
4823.94723999,0.00611612
4825.87604736,0.00613717
4827.80485474,0.00617475
4829.73366211,0.00605748
4831.66246948,0.00608857
4833.59127686,0.00615741
4835.52008423,0.00608080
4837.44889160,0.00610029
4839.37769897,0.00608501
4841.30650635,0.00604794
4843.23531372,0.00597231
4845.16412109,0.00597687
4847.09292847,0.00604844
4849.02173584,0.00597192
4850.95054321,0.00597049
4852.87935059,0.00596615
4854.80815796,0.00597259
4856.73696533,0.00600787
4858.66577270,0.00593662
4860.59458008,0.00594124
4862.52338745,0.00593348
4864.45219482,0.00591625
4866.38100220,0.00591793
4868.30980957,0.00585501
4870.23861694,0.00584489
4872.16742432,0.00577778
4874.09623169,0.00580272
4876.02503906,0.00589525
4877.95384644,0.00574480
4879.88265381,0.00574067
4881.81146118,0.00583045
4883.74026855,0.00578132
4885.66907593,0.00577922
4887.59788330,0.00571833
4889.52669067,0.00571809
4891.45549805,0.00573207
4893.38430542,0.00566845
4895.31311279,0.00567705
4897.24192017,0.00564747
4899.17072754,0.00565416
4901.09953491,0.00570350
4903.02834228,0.00565944
4904.95714966,0.00565273
4906.88595703,0.00566761
4908.81476440,0.00559414
4910.74357178,0.00557546
4912.67237915,0.00556900
4914.60118652,0.00552655
4916.52999390,0.00556517
4918.45880127,0.00559653
4920.38760864,0.00553907
4922.31641602,0.00545313
4924.24522339,0.00551723
4926.17403076,0.00553568
4928.10283813,0.00548185
4930.03164551,0.00551199
4931.96045288,0.00543421
4933.88926025,0.00546037
4935.81806763,0.00543747
4937.74687500,0.00539182
4939.67568237,0.00548959
4941.60448975,0.00536698
4943.53329712,0.00538014
4945.46210449,0.00545074
4947.39091187,0.00531439
4949.31971924,0.00528734
4951.24852661,0.00530090
4953.17733398,0.00530266
4955.10614136,0.00527024
4957.03494873,0.00526723
4958.96375610,0.00533735
4960.89256348,0.00526783
4962.82137085,0.00521411
4964.75017822,0.00526585
4966.67898560,0.00523166
4968.60779297,0.00521380
4970.53660034,0.00516420
4972.46540771,0.00515753
4974.39421509,0.00520513
4976.32302246,0.00508341
4978.25182983,0.00513660
4980.18063721,0.00517616
4982.10944458,0.00508129
4984.03825195,0.00514468
4985.96705933,0.00512135
4987.89586670,0.00509122
4989.82467407,0.00504119
4991.75348145,0.00501430
4993.68228882,0.00508482
4995.61109619,0.00502288
4997.53990356,0.00500255
4999.46871094,0.00505906
5001.39751831,0.00502850
5003.32632568,0.00494468
5005.25513306,0.00494121
5007.18394043,0.00497427
5009.11274780,0.00499977
5011.04155518,0.00501418
5012.97036255,0.00495851
5014.89916992,0.00493449
5016.82797729,0.00490564
5018.75678467,0.00492442
5020.68559204,0.00495492
5022.61439941,0.00490521
5024.54320679,0.00489331
5026.47201416,0.00485871
5028.40082153,0.00484742
5030.32962891,0.00488059
5032.25843628,0.00487648
5034.18724365,0.00484527
5036.11605103,0.00478395
5038.04485840,0.00475865
5039.97366577,0.00478940
5041.90247314,0.00478923
5043.83128052,0.00480230
5045.76008789,0.00480350
5047.68889526,0.00469781
5049.61770264,0.00470501
5051.54651001,0.00472218
5053.47531738,0.00462828
5055.40412476,0.00467207
5057.33293213,0.00471751
5059.26173950,0.00469135
5061.19054687,0.00467431
5063.11935425,0.00465831
5065.04816162,0.00469261
5066.97696899,0.00469418
5068.90577637,0.00462077
5070.83458374,0.00458589
5072.76339111,0.00457948
5074.69219849,0.00453360
5076.62100586,0.00452799
5078.54981323,0.00454211
5080.47862061,0.00455143
5082.40742798,0.00454273
5084.33623535,0.00450037
5086.26504272,0.00451845
5088.19385010,0.00452506
5090.12265747,0.00454351
5092.05146484,0.00457028
5093.98027222,0.00449176
5095.90907959,0.00444907
5097.83788696,0.00449440
5099.76669434,0.00448759
5101.69550171,0.00442706
5103.62430908,0.00446523
5105.55311645,0.00447955
5107.48192383,0.00439547
5109.41073120,0.00440507
5111.33953857,0.00439065
5113.26834595,0.00433827
5115.19715332,0.00434353
5117.12596069,0.00437939
5119.05476807,0.00443268
5120.98357544,0.00434766
5122.91238281,0.00429619
5124.84119019,0.00437586
5126.76999756,0.00433225
5128.69880493,0.00427332
5130.62761230,0.00433773
5132.55641968,0.00434926
5134.48522705,0.00426284
5136.41403442,0.00426244
5138.34284180,0.00423396
5140.27164917,0.00418705
5142.20045654,0.00425161
5144.12926392,0.00422553
5146.05807129,0.00423406
5147.98687866,0.00427356
5149.91568603,0.00422313
5151.84449341,0.00418879
5153.77330078,0.00419637
5155.70210815,0.00424466
5157.63091553,0.00419180
5159.55972290,0.00414994
5161.48853027,0.00414385
5163.41733765,0.00412617
5165.34614502,0.00412559
5167.27495239,0.00407669
5169.20375977,0.00414520
5171.13256714,0.00414387
5173.06137451,0.00406602
5174.99018188,0.00408721
5176.91898926,0.00405519
5178.84779663,0.00404404
5180.77660400,0.00406049
5182.70541138,0.00401433
5184.63421875,0.00396856
5186.56302612,0.00402392
5188.49183350,0.00398517
5190.42064087,0.00391196
5192.34944824,0.00401715
5194.27825562,0.00400469
5196.20706299,0.00393914
5198.13587036,0.00395291
5200.06467773,0.00393552
5201.99348511,0.00394273
5203.92229248,0.00392169
5205.85109985,0.00381650
5207.77990723,0.00377119
5209.70871460,0.00381338
5211.63752197,0.00385999
5213.56632935,0.00392098
5215.49513672,0.00389929
5217.42394409,0.00390503
5219.35275146,0.00390034
5221.28155884,0.00384076
5223.21036621,0.00387233
5225.13917358,0.00376683
5227.06798096,0.00374912
5228.99678833,0.00382689
5230.92559570,0.00375798
5232.85440308,0.00380269
5234.78321045,0.00384308
5236.71201782,0.00379945
5238.64082520,0.00376844
5240.56963257,0.00376117
5242.49843994,0.00373974
5244.42724731,0.00371395
5246.35605469,0.00372429
5248.28486206,0.00364674
5250.21366943,0.00368356
5252.14247681,0.00376458
5254.07128418,0.00367454
5256.00009155,0.00365307
5257.92889893,0.00367336
5259.85770630,0.00369097
5261.78651367,0.00370193
5263.71532104,0.00367950
5265.64412842,0.00371241
5267.57293579,0.00370380
5269.50174316,0.00363662
5271.43055054,0.00362141
5273.35935791,0.00367035
5275.28816528,0.00361867
5277.21697266,0.00360717
5279.14578003,0.00366209
5281.07458740,0.00356758
5283.00339478,0.00364654
5284.93220215,0.00359509
5286.86100952,0.00343732
5288.78981689,0.00351690
5290.71862427,0.00343312
5292.64743164,0.00354619
5294.57623901,0.00361878
5296.50504639,0.00347650
5298.43385376,0.00354627
5300.36266113,0.00353023
5302.29146851,0.00354002
5304.22027588,0.00350724
5306.14908325,0.00349240
5308.07789062,0.00359111
5310.00669800,0.00352446
5311.93550537,0.00343791
5313.86431274,0.00343746
5315.79312012,0.00348387
5317.72192749,0.00341018
5319.65073486,0.00339391
5321.57954224,0.00346203
5323.50834961,0.00346724
5325.43715698,0.00341898
5327.36596436,0.00330969
5329.29477173,0.00339183
5331.22357910,0.00342599
5333.15238647,0.00337050
5335.08119385,0.00340453
5337.01000122,0.00336015
5338.93880859,0.00326737
5340.86761597,0.00329868
5342.79642334,0.00330644
5344.72523071,0.00316540
5346.65403809,0.00329375
5348.58284546,0.00334700
5350.51165283,0.00318709
5352.44046020,0.00318529
5354.36926758,0.00324644
5356.29807495,0.00335159
5358.22688232,0.00327147
5360.15568970,0.00321300
5362.08449707,0.00323116
5364.01330444,0.00326064
5365.94211182,0.00325889
5367.87091919,0.00314118
5369.79972656,0.00325232
5371.72853394,0.00322334
5373.65734131,0.00312830
5375.58614868,0.00312334
5377.51495605,0.00311552
5379.44376343,0.00320014
5381.37257080,0.00310995
5383.30137817,0.00317016
5385.23018555,0.00319030
5387.15899292,0.00309399
5389.08780029,0.00320092
5391.01660767,0.00314347
5392.94541504,0.00303412
5394.87422241,0.00305460
5396.80302978,0.00310906
5398.73183716,0.00309079
5400.66064453,0.00307356
5402.58945190,0.00311037
5404.51825928,0.00305816
5406.44706665,0.00306472
5408.37587402,0.00308280
5410.30468140,0.00302865
5412.23348877,0.00299870
5414.16229614,0.00296320
5416.09110352,0.00296925
5418.01991089,0.00299219
5419.94871826,0.00301075
5421.87752563,0.00301113
5423.80633301,0.00295588
5425.73514038,0.00297418
5427.66394775,0.00292116
5429.59275513,0.00289047
5431.52156250,0.00301888
5433.45036987,0.00297611
5435.37917725,0.00289434
5437.30798462,0.00290652
5439.23679199,0.00295264
5441.16559936,0.00291878
5443.09440674,0.00286222
5445.02321411,0.00288003
5446.95202148,0.00283654
5448.88082886,0.00292973
5450.80963623,0.00292174
5452.73844360,0.00288301
5454.66725098,0.00291405
5456.59605835,0.00282742
5458.52486572,0.00289491
5460.45367310,0.00286940
5462.38248047,0.00284399
5464.31128784,0.00283872
5466.24009521,0.00279898
5468.16890259,0.00280530
5470.09770996,0.00276268
5472.02651733,0.00291782
5473.95532471,0.00286215
5475.88413208,0.00270885
5477.81293945,0.00278388
5479.74174683,0.00287933
5481.67055420,0.00287224
5483.59936157,0.00273656
5485.52816895,0.00279943
5487.45697632,0.00280809
5489.38578369,0.00278453
5491.31459106,0.00282230
5493.24339844,0.00277344
5495.17220581,0.00278651
5497.10101318,0.00272992
5499.02982056,0.00273414
5500.95862793,0.00277493
5502.88743530,0.00280950
5504.81624268,0.00279036
5506.74505005,0.00270962
5508.67385742,0.00274579
5510.60266479,0.00269074
5512.53147217,0.00264444
5514.46027954,0.00265454
5516.38908691,0.00263060
5518.31789429,0.00264288
5520.24670166,0.00264034
5522.17550903,0.00266222
5524.10431641,0.00269258
5526.03312378,0.00260268
5527.96193115,0.00256555
5529.89073853,0.00269534
5531.81954590,0.00264610
5533.74835327,0.00256069
5535.67716064,0.00264815
5537.60596802,0.00264852
5539.53477539,0.00257039
5541.46358276,0.00256307
5543.39239014,0.00256639
5545.32119751,0.00255002
5547.25000488,0.00256264
5549.17881226,0.00252017
5551.10761963,0.00254393
5553.03642700,0.00253188
5554.96523437,0.00249771
5556.89404175,0.00258709
5558.82284912,0.00253298
5560.75165649,0.00251216
5562.68046387,0.00254778
5564.60927124,0.00253301
5566.53807861,0.00247612
5568.46688599,0.00241976
5570.39569336,0.00246702
5572.32450073,0.00245909
5574.25330811,0.00247797
5576.18211548,0.00248626
5578.11092285,0.00247191
5580.03973022,0.00242882
5581.96853760,0.00243869
5583.89734497,0.00251607
5585.82615234,0.00245752
5587.75495972,0.00249629
5589.68376709,0.00248422
5591.61257446,0.00244756
5593.54138184,0.00247275
5595.47018921,0.00244603
5597.39899658,0.00241939
5599.32780395,0.00234480
5601.25661133,0.00240053
5603.18541870,0.00237711
5605.11422607,0.00238881
5607.04303345,0.00242898
5608.97184082,0.00235258
5610.90064819,0.00243205
5612.82945557,0.00234789
5614.75826294,0.00233540
5616.68707031,0.00243904
5618.61587769,0.00235323
5620.54468506,0.00232805
5622.47349243,0.00230509
5624.40229980,0.00231186
5626.33110718,0.00234583
5628.25991455,0.00229449
5630.18872192,0.00229501
5632.11752930,0.00233158
5634.04633667,0.00230804
5635.97514404,0.00232472
5637.90395142,0.00228936
5639.83275879,0.00226184
5641.76156616,0.00232378
5643.69037353,0.00228256
5645.61918091,0.00231420
5647.54798828,0.00230144
5649.47679565,0.00225725
5651.40560303,0.00229154
5653.33441040,0.00222332
5655.26321777,0.00224326
5657.19202515,0.00224040
5659.12083252,0.00222950
5661.04963989,0.00228725
5662.97844727,0.00226355
5664.90725464,0.00223549
5666.83606201,0.00222640
5668.76486938,0.00224798
5670.69367676,0.00223121
5672.62248413,0.00226777
5674.55129150,0.00228753
5676.48009888,0.00217380
5678.40890625,0.00218571
5680.33771362,0.00219276
5682.26652100,0.00208704
5684.19532837,0.00210262
5686.12413574,0.00215456
5688.05294311,0.00210384
5689.98175049,0.00210185
5691.91055786,0.00213898
5693.83936523,0.00214427
5695.76817261,0.00218576
5697.69697998,0.00213768
5699.62578735,0.00207103
5701.55459473,0.00212355
5703.48340210,0.00210470
5705.41220947,0.00208572
5707.34101685,0.00208674
5709.26982422,0.00205831
5711.19863159,0.00211872
5713.12743896,0.00207377
5715.05624634,0.00206249
5716.98505371,0.00208712
5718.91386108,0.00201673
5720.84266846,0.00207396
5722.77147583,0.00198674
5724.70028320,0.00195487
5726.62909058,0.00209430
5728.55789795,0.00204993
5730.48670532,0.00201415
5732.41551270,0.00200577
5734.34432007,0.00201860
5736.27312744,0.00202095
5738.20193481,0.00199796
5740.13074219,0.00202018
5742.05954956,0.00203381
5743.98835693,0.00200125
5745.91716431,0.00191578
5747.84597168,0.00196648
5749.77477905,0.00198693
5751.70358643,0.00194033
5753.63239380,0.00198927
5755.56120117,0.00200174
5757.49000854,0.00196921
5759.41881592,0.00191107
5761.34762329,0.00192232
5763.27643066,0.00192546
5765.20523804,0.00192770
5767.13404541,0.00196248
5769.06285278,0.00188060
5770.99166016,0.00185268
5772.92046753,0.00190657
5774.84927490,0.00190998
5776.77808228,0.00186281
5778.70688965,0.00182965
5780.63569702,0.00185751
5782.56450439,0.00190047
5784.49331177,0.00187916
5786.42211914,0.00189684
5788.35092651,0.00194045
5790.27973389,0.00184032
5792.20854126,0.00184842
5794.13734863,0.00184653
5796.06615601,0.00177700
5797.99496338,0.00182045
5799.92377075,0.00178826
5801.85257812,0.00188622
5803.78138550,0.00188825
5805.71019287,0.00177780
5807.63900024,0.00187278
5809.56780762,0.00178666
5811.49661499,0.00180302
5813.42542236,0.00191918
5815.35422974,0.00179124
5817.28303711,0.00174416
5819.21184448,0.00176876
5821.14065186,0.00185932
5823.06945923,0.00184060
5824.99826660,0.00172884
5826.92707397,0.00177721
5828.85588135,0.00173977
5830.78468872,0.00177064
5832.71349609,0.00180671
5834.64230347,0.00173693
5836.57111084,0.00175250
5838.49991821,0.00175425
5840.42872559,0.00179488
5842.35753296,0.00174848
5844.28634033,0.00172208
5846.21514770,0.00173392
5848.14395508,0.00167938
5850.07276245,0.00174331
5852.00156982,0.00170268
5853.93037720,0.00167450
5855.85918457,0.00168710
5857.78799194,0.00166741
5859.71679932,0.00173516
5861.64560669,0.00172170
5863.57441406,0.00171150
5865.50322144,0.00166308
5867.43202881,0.00164637
5869.36083618,0.00172875
5871.28964355,0.00168108
5873.21845093,0.00161513
5875.14725830,0.00166924
5877.07606567,0.00164643
5879.00487305,0.00156798
5880.93368042,0.00167135
5882.86248779,0.00163265
5884.79129517,0.00158999
5886.72010254,0.00166484
5888.64890991,0.00155293
5890.57771728,0.00162854
5892.50652466,0.00170515
5894.43533203,0.00165221
5896.36413940,0.00165148
5898.29294678,0.00157451
5900.22175415,0.00158993
5902.15056152,0.00157966
5904.07936890,0.00152987
5906.00817627,0.00152725
5907.93698364,0.00152443
5909.86579102,0.00161203
5911.79459839,0.00164983
5913.72340576,0.00155548
5915.65221313,0.00151761
5917.58102051,0.00157768
5919.50982788,0.00154692
5921.43863525,0.00151648
5923.36744263,0.00153067
5925.29625000,0.00151721
5927.22505737,0.00153849
5929.15386475,0.00151735
5931.08267212,0.00151944
5933.01147949,0.00152870
5934.94028686,0.00154334
5936.86909424,0.00155196
5938.79790161,0.00149113
5940.72670898,0.00156672
5942.65551636,0.00156874
5944.58432373,0.00146804
5946.51313110,0.00151850
5948.44193848,0.00152839
5950.37074585,0.00148828
5952.29955322,0.00146329
5954.22836060,0.00143277
5956.15716797,0.00148462
5958.08597534,0.00155804
5960.01478271,0.00147546
5961.94359009,0.00141735
5963.87239746,0.00149084
5965.80120483,0.00146446
5967.73001221,0.00149570
5969.65881958,0.00148228
5971.58762695,0.00140338
5973.51643433,0.00147592
5975.44524170,0.00143246
5977.37404907,0.00142597
5979.30285645,0.00141867
5981.23166382,0.00134249
5983.16047119,0.00140289
5985.08927856,0.00138725
5987.01808594,0.00141821
5988.94689331,0.00141974
5990.87570068,0.00135746
5992.80450806,0.00143717
5994.73331543,0.00142298
5996.66212280,0.00138903
5998.59093018,0.00141491
6000.51973755,0.00139201
