399.26312622,0.00052448
401.19193359,0.00059455
403.12074097,0.00061537
405.04954834,0.00055589
406.97835571,0.00052930
408.90716309,0.00002924
410.83597046,0.00003048
412.76477783,0.00017290
414.69358521,0.00021056
416.62239258,0.00019561
418.55119995,0.00018704
420.48000732,0.00057850
422.40881470,0.00061366
424.33762207,0.00009071
426.26642944,0.00033717
428.19523682,0.00049110
430.12404419,0.00050471
432.05285156,0.00064555
433.98165894,0.00040122
435.91046631,0.00080473
437.83927368,0.00068841
439.76808105,0.00037210
441.69688843,0.00048637
443.62569580,0.00048362
445.55450317,0.00050603
447.48331055,0.00012644
449.41211792,0.00056763
451.34092529,0.00063983
453.26973267,0.00032075
455.19854004,0.00046378
457.12734741,0.00005397
459.05615479,0.00065973
460.98496216,0.00058065
462.91376953,-0.00006398
464.84257690,0.00024471
466.77138428,0.00017370
468.70019165,0.00038314
470.62899902,-0.00011009
472.55780640,0.00006573
474.48661377,0.00067915
476.41542114,0.00012474
478.34422852,0.00044184
480.27303589,0.00059008
482.20184326,-0.00009008
484.13065063,0.00024484
486.05945801,0.00056620
487.98826538,-0.00004962
489.91707275,0.00039862
491.84588013,0.00058755
493.77468750,0.00039363
495.70349487,0.00069578
497.63230225,0.00022882
499.56110962,0.00023867
501.48991699,0.00008605
503.41872437,0.00010438
505.34753174,0.00029971
507.27633911,-0.00017467
509.20514648,0.00026962
511.13395386,0.00042602
513.06276123,0.00022575
514.99156860,0.00019575
516.92037598,0.00034734
518.84918335,0.00054320
520.77799072,0.00026274
522.70679810,0.00049262
524.63560547,0.00034726
526.56441284,0.00003321
528.49322021,0.00047549
530.42202759,0.00044825
532.35083496,0.00016082
534.27964233,0.00020054
536.20844971,0.00026496
538.13725708,0.00033739
540.06606445,-0.00010233
541.99487183,-0.00015589
543.92367920,0.00057322
545.85248657,-0.00004859
547.78129395,0.00000927
549.71010132,0.00071772
551.63890869,0.00001779
553.56771606,0.00016723
555.49652344,0.00013455
557.42533081,0.00006904
559.35413818,0.00049159
561.28294556,-0.00004616
563.21175293,-0.00003492
565.14056030,0.00011874
567.06936768,0.00015836
568.99817505,0.00040803
570.92698242,0.00040731
572.85578979,0.00042118
574.78459717,0.00016684
576.71340454,0.00010165
578.64221191,0.00010210
580.57101929,0.00000715
582.49982666,0.00008087
584.42863403,0.00010569
586.35744141,0.00021253
588.28624878,0.00011668
590.21505615,0.00003224
592.14386353,0.00024676
594.07267090,0.00019450
596.00147827,0.00005598
597.93028564,0.00012711
599.85909302,0.00014408
601.78790039,0.00034992
603.71670776,0.00060053
605.64551514,0.00036315
607.57432251,0.00005309
609.50312988,0.00000868
611.43193726,0.00016581
613.36074463,0.00007456
615.28955200,-0.00006312
617.21835938,0.00022760
619.14716675,0.00037372
621.07597412,-0.00005594
623.00478149,-0.00006456
624.93358887,0.00027510
626.86239624,-0.00014034
628.79120361,-0.00033240
630.72001099,-0.00002135
632.64881836,0.00031170
634.57762573,0.00027407
636.50643311,0.00034464
638.43524048,0.00069445
640.36404785,0.00044850
642.29285522,0.00053639
644.22166260,0.00058150
646.15046997,0.00044247
648.07927734,0.00075699
650.00808472,0.00057728
651.93689209,0.00050782
653.86569946,0.00089986
655.79450684,0.00096142
657.72331421,0.00081166
659.65212158,0.00080809
661.58092896,0.00086511
663.50973633,0.00097305
665.43854370,0.00115706
667.36735107,0.00095252
669.29615845,0.00094602
671.22496582,0.00133366
673.15377319,0.00142386
675.08258057,0.00144952
677.01138794,0.00123509
678.94019531,0.00120721
680.86900269,0.00153587
682.79781006,0.00120732
684.72661743,0.00089943
686.65542480,0.00132000
688.58423218,0.00155124
690.51303955,0.00132270
692.44184692,0.00138803
694.37065430,0.00149785
696.29946167,0.00155686
698.22826904,0.00219784
700.15707642,0.00228334
702.08588379,0.00179580
704.01469116,0.00181470
705.94349854,0.00169028
707.87230591,0.00144223
709.80111328,0.00111104
711.72992065,0.00072679
713.65872803,0.00074120
715.58753540,0.00055875
717.51634277,0.00024805
719.44515015,0.00023771
721.37395752,0.00012237
723.30276489,-0.00018176
725.23157227,-0.00002650
727.16037964,0.00025856
729.08918701,0.00003344
731.01799438,-0.00009581
732.94680176,0.00000506
734.87560913,0.00015790
736.80441650,-0.00018602
738.73322388,-0.00009049
740.66203125,0.00036271
742.59083862,0.00019338
744.51964600,0.00017584
746.44845337,0.00042672
748.37726074,0.00018167
750.30606812,0.00000526
752.23487549,-0.00002160
754.16368286,0.00027992
756.09249023,0.00055915
758.02129761,0.00031246
759.95010498,0.00046720
761.87891235,0.00026109
763.80771973,0.00023313
765.73652710,0.00052168
767.66533447,0.00045350
769.59414185,0.00056784
771.52294922,0.00021046
773.45175659,0.00008513
775.38056396,0.00034102
777.30937134,0.00015594
779.23817871,-0.00006373
781.16698608,0.00004768
783.09579346,0.00006448
785.02460083,0.00019894
786.95340820,0.00048406
788.88221558,0.00016869
790.81102295,0.00031490
792.73983032,0.00040426
794.66863770,0.00021793
796.59744507,0.00052907
798.52625244,0.00049586
800.45505981,0.00035979
802.38386719,0.00018215
804.31267456,0.00029740
806.24148193,0.00061548
808.17028931,0.00060341
810.09909668,0.00036827
812.02790405,0.00023029
813.95671143,0.00040829
815.88551880,0.00015831
817.81432617,0.00012944
819.74313354,0.00026980
821.67194092,0.00018377
823.60074829,0.00027895
825.52955566,0.00008033
827.45836304,0.00011993
829.38717041,0.00021039
831.31597778,0.00027448
833.24478516,0.00059593
835.17359253,0.00037477
837.10239990,0.00031796
839.03120728,0.00063044
840.96001465,0.00055675
842.88882202,0.00053417
844.81762939,0.00046600
846.74643677,0.00038178
848.67524414,0.00064231
850.60405151,0.00047038
852.53285889,0.00017771
854.46166626,0.00041310
856.39047363,0.00051431
858.31928101,0.00040076
860.24808838,0.00037983
862.17689575,0.00035621
864.10570313,0.00032242
866.03451050,0.00045238
867.96331787,0.00034842
869.89212524,0.00013605
871.82093262,0.00026417
873.74973999,0.00018010
875.67854736,0.00025727
877.60735474,0.00062721
879.53616211,0.00032382
881.46496948,0.00005643
883.39377686,0.00037800
885.32258423,0.00021930
887.25139160,0.00006791
889.18019897,0.00036505
891.10900635,0.00051535
893.03781372,0.00043725
894.96662109,0.00037111
896.89542847,0.00051884
898.82423584,0.00038476
900.75304321,0.00042002
902.68185059,0.00030394
904.61065796,0.00008944
906.53946533,0.00044174
908.46827271,0.00024067
910.39708008,0.00029429
912.32588745,0.00047757
914.25469482,0.00037142
916.18350220,0.00052887
918.11230957,0.00038357
920.04111694,0.00069328
921.96992432,0.00073465
923.89873169,0.00063418
925.82753906,0.00098424
927.75634644,0.00066469
929.68515381,0.00055521
931.61396118,0.00077293
933.54276855,0.00079029
935.47157593,0.00077663
937.40038330,0.00076870
939.32919067,0.00069740
941.25799805,0.00075638
943.18680542,0.00096580
945.11561279,0.00075668
947.04442017,0.00090153
948.97322754,0.00101624
950.90203491,0.00073355
952.83084229,0.00096623
954.75964966,0.00089475
956.68845703,0.00067024
958.61726440,0.00094401
960.54607178,0.00096411
962.47487915,0.00080676
964.40368652,0.00098865
966.33249390,0.00100188
968.26130127,0.00079943
970.19010864,0.00096391
972.11891602,0.00122150
974.04772339,0.00112182
975.97653076,0.00107548
977.90533813,0.00138744
979.83414551,0.00121703
981.76295288,0.00111970
983.69176025,0.00174019
985.62056763,0.00183905
987.54937500,0.00179301
989.47818237,0.00210905
991.40698975,0.00232446
993.33579712,0.00254569
995.26460449,0.00275909
997.19341187,0.00302711
999.12221924,0.00321509
1001.05102661,0.00339775
1002.97983398,0.00346926
1004.90864136,0.00363304
1006.83744873,0.00410742
1008.76625610,0.00420278
1010.69506348,0.00458050
1012.62387085,0.00507677
1014.55267822,0.00527549
1016.48148560,0.00548608
1018.41029297,0.00541898
1020.33910034,0.00599271
1022.26790771,0.00641356
1024.19671509,0.00631913
1026.12552246,0.00653380
1028.05432983,0.00673177
1029.98313721,0.00716854
1031.91194458,0.00709982
1033.84075195,0.00713101
1035.76955933,0.00754277
1037.69836670,0.00768677
1039.62717407,0.00801043
1041.55598145,0.00782152
1043.48478882,0.00773333
1045.41359619,0.00768110
1047.34240356,0.00725367
1049.27121094,0.00728761
1051.20001831,0.00732675
1053.12882568,0.00716237
1055.05763306,0.00705765
1056.98644043,0.00694311
1058.91524780,0.00676365
1060.84405518,0.00674051
1062.77286255,0.00638833
1064.70166992,0.00612694
1066.63047729,0.00606624
1068.55928467,0.00565638
1070.48809204,0.00570745
1072.41689941,0.00533902
1074.34570679,0.00491247
1076.27451416,0.00469636
1078.20332153,0.00433161
1080.13212891,0.00440541
1082.06093628,0.00407351
1083.98974365,0.00413719
1085.91855103,0.00399666
1087.84735840,0.00352444
1089.77616577,0.00352305
1091.70497314,0.00317854
1093.63378052,0.00325771
1095.56258789,0.00315269
1097.49139526,0.00309473
1099.42020264,0.00326826
1101.34901001,0.00290678
1103.27781738,0.00280003
1105.20662476,0.00279646
1107.13543213,0.00286473
1109.06423950,0.00291967
1110.99304687,0.00286166
1112.92185425,0.00269433
1114.85066162,0.00267084
1116.77946899,0.00261718
1118.70827637,0.00257479
1120.63708374,0.00296474
1122.56589111,0.00266789
1124.49469849,0.00278480
1126.42350586,0.00314614
1128.35231323,0.00278222
1130.28112061,0.00305155
1132.20992798,0.00308770
1134.13873535,0.00297478
1136.06754272,0.00327161
1137.99635010,0.00335166
1139.92515747,0.00355667
1141.85396484,0.00396883
1143.78277222,0.00420521
1145.71157959,0.00421301
1147.64038696,0.00447476
1149.56919434,0.00476290
1151.49800171,0.00481794
1153.42680908,0.00512784
1155.35561646,0.00560892
1157.28442383,0.00571325
1159.21323120,0.00572355
1161.14203857,0.00604930
1163.07084595,0.00636998
1164.99965332,0.00669848
1166.92846069,0.00691650
1168.85726807,0.00698924
1170.78607544,0.00723302
1172.71488281,0.00763898
1174.64369019,0.00798565
1176.57249756,0.00815793
1178.50130493,0.00844914
1180.43011230,0.00881881
1182.35891968,0.00914928
1184.28772705,0.00959932
1186.21653442,0.01008809
1188.14534180,0.01058093
1190.07414917,0.01110953
1192.00295654,0.01158526
1193.93176392,0.01196191
1195.86057129,0.01234309
1197.78937866,0.01313430
1199.71818604,0.01393502
1201.64699341,0.01422005
1203.57580078,0.01486712
1205.50460815,0.01553253
1207.43341553,0.01596441
1209.36222290,0.01672638
1211.29103027,0.01708923
1213.21983765,0.01743972
1215.14864502,0.01813930
1217.07745239,0.01860056
1219.00625977,0.01892908
1220.93506714,0.01926369
1222.86387451,0.01930214
1224.79268188,0.01937771
1226.72148926,0.01981956
1228.65029663,0.01988116
1230.57910400,0.01989309
1232.50791138,0.01996894
1234.43671875,0.02005371
1236.36552612,0.02006224
1238.29433350,0.01974887
1240.22314087,0.02005257
1242.15194824,0.02000939
1244.08075562,0.01989140
1246.00956299,0.02010944
1247.93837036,0.01958951
1249.86717773,0.01955874
1251.79598511,0.01939073
1253.72479248,0.01896489
1255.65359985,0.01908045
1257.58240723,0.01874516
1259.51121460,0.01838046
1261.44002197,0.01820275
1263.36882935,0.01808051
1265.29763672,0.01784252
1267.22644409,0.01753115
1269.15525146,0.01758439
1271.08405884,0.01719138
1273.01286621,0.01670231
1274.94167358,0.01665814
1276.87048096,0.01629303
1278.79928833,0.01598799
1280.72809570,0.01580071
1282.65690308,0.01529715
1284.58571045,0.01505440
1286.51451782,0.01487178
1288.44332520,0.01442445
1290.37213257,0.01433022
1292.30093994,0.01443678
1294.22974731,0.01417339
1296.15855469,0.01396826
1298.08736206,0.01406624
1300.01616943,0.01418139
1301.94497681,0.01437709
1303.87378418,0.01448002
1305.80259155,0.01462755
1307.73139893,0.01489078
1309.66020630,0.01504238
1311.58901367,0.01524644
1313.51782104,0.01545686
1315.44662842,0.01590628
1317.37543579,0.01645769
1319.30424316,0.01691729
1321.23305054,0.01743861
1323.16185791,0.01781715
1325.09066528,0.01832159
1327.01947266,0.01895221
1328.94828003,0.01946133
1330.87708740,0.01997239
1332.80589478,0.02040689
1334.73470215,0.02079445
1336.66350952,0.02109656
1338.59231689,0.02075090
1340.52112427,0.02089693
1342.44993164,0.02199062
1344.37873901,0.02202163
1346.30754639,0.02201992
1348.23635376,0.02217218
1350.16516113,0.02189703
1352.09396851,0.02215938
1354.02277588,0.02155547
1355.95158325,0.02122553
1357.88039062,0.02146921
1359.80919800,0.02097511
1361.73800537,0.02021740
1363.66681274,0.01988129
1365.59562012,0.02092647
1367.52442749,0.02058561
1369.45323486,0.02008646
1371.38204224,0.02065290
1373.31084961,0.01958045
1375.23965698,0.01971826
1377.16846436,0.02036916
1379.09727173,0.02007600
1381.02607910,0.02009601
1382.95488647,0.02013213
1384.88369385,0.02023937
1386.81250122,0.01930105
1388.74130859,0.01939641
1390.67011597,0.02112345
1392.59892334,0.02066362
1394.52773071,0.01934806
1396.45653809,0.02040142
1398.38534546,0.02041368
1400.31415283,0.02018332
1402.24296021,0.02179245
1404.17176758,0.02067382
1406.10057495,0.02071848
1408.02938232,0.02167497
1409.95818970,0.02091725
1411.88699707,0.02121926
1413.81580444,0.02054287
1415.74461182,0.02092995
1417.67341919,0.01893199
1419.60222656,0.01692908
1421.53103394,0.01952916
1423.45984131,0.01898504
1425.38864868,0.01843680
1427.31745605,0.01868993
1429.24626343,0.01725928
1431.17507080,0.01687664
1433.10387817,0.01706759
1435.03268555,0.01568433
1436.96149292,0.01327882
1438.89030029,0.01476501
1440.81910767,0.01518560
1442.74791504,0.01417460
1444.67672241,0.01510657
1446.60552979,0.01392574
1448.53433716,0.01408874
1450.46314453,0.01446965
1452.39195190,0.01468872
1454.32075928,0.01552954
1456.24956665,0.01285118
1458.17837402,0.01345877
1460.10718140,0.01780900
1462.03598877,0.01884744
1463.96479614,0.01886443
1465.89360352,0.01947986
1467.82241089,0.02208280
1469.75121826,0.02377997
1471.68002563,0.02126210
1473.60883301,0.02242560
1475.53764038,0.02545638
1477.46644775,0.02722615
1479.39525513,0.02991603
1481.32406250,0.03065984
1483.25286987,0.03254106
1485.18167725,0.03338921
1487.11048462,0.03290344
1489.03929199,0.03289089
1490.96809937,0.03313834
1492.89690674,0.03825689
1494.82571411,0.03745591
1496.75452148,0.03385606
1498.68332886,0.03821170
1500.61213623,0.03947394
1502.54094360,0.04204164
1504.46975098,0.03993643
1506.39855835,0.02962063
1508.32736572,0.03565247
1510.25617310,0.04166939
1512.18498047,0.04040945
1514.11378784,0.04385459
1516.04259521,0.03970434
1517.97140259,0.04122072
1519.90020996,0.03996184
1521.82901733,0.03469453
1523.75782471,0.04241028
1525.68663208,0.04170378
1527.61543945,0.04145595
1529.54424683,0.04586754
1531.47305420,0.04412163
1533.40186157,0.04065178
1535.33066895,0.04278244
1537.25947632,0.04600660
1539.18828369,0.03357568
1541.11709106,0.03465619
1543.04589844,0.04146100
1544.97470581,0.03975542
1546.90351318,0.04692173
1548.83232056,0.04387389
1550.76112793,0.04512639
1552.68993530,0.04498462
1554.61874268,0.04082891
1556.54755005,0.04399248
1558.47635742,0.03154541
1560.40516479,0.03366201
1562.33397217,0.04737108
1564.26277954,0.04497441
1566.19158691,0.04627977
1568.12039429,0.04590101
1570.04920166,0.04091665
1571.97800903,0.04671740
1573.90681641,0.04749703
1575.83562378,0.03813902
1577.76443115,0.04265852
1579.69323853,0.04789639
1581.62204590,0.04592270
1583.55085327,0.04740484
1585.47966064,0.04670200
1587.40846802,0.04705030
1589.33727539,0.04674233
1591.26608276,0.04677292
1593.19489014,0.04691828
1595.12369751,0.04634738
1597.05250488,0.04702865
1598.98131226,0.04654489
1600.91011963,0.04699968
1602.83892700,0.04637288
1604.76773437,0.04709493
1606.69654175,0.04656378
1608.62534912,0.04649182
1610.55415649,0.04649914
1612.48296387,0.04659721
1614.41177124,0.04734410
1616.34057861,0.03908695
1618.26938599,0.04203166
1620.19819336,0.04892948
1622.12700073,0.04374219
1624.05580811,0.04379273
1625.98461548,0.04592551
1627.91342285,0.04593930
1629.84223022,0.04545160
1631.77103760,0.04834592
1633.69984497,0.04492398
1635.62865234,0.03740062
1637.55745972,0.04318884
1639.48626709,0.04732778
1641.41507446,0.04647252
1643.34388184,0.04766691
1645.27268921,0.04325763
1647.20149658,0.03807066
1649.13030396,0.04674695
1651.05911133,0.04493351
1652.98791870,0.02920013
1654.91672607,0.03897060
1656.84553345,0.04900944
1658.77434082,0.04683990
1660.70314819,0.04823928
1662.63195557,0.04398231
1664.56076294,0.04634701
1666.48957031,0.04979214
1668.41837769,0.04356531
1670.34718506,0.04229351
1672.27599243,0.04789994
1674.20479980,0.04448289
1676.13360718,0.04251875
1678.06241455,0.04892004
1679.99122192,0.04721730
1681.92002930,0.04653846
1683.84883667,0.03828442
1685.77764404,0.03771763
1687.70645142,0.05133968
1689.63525879,0.04501928
1691.56406616,0.04914549
1693.49287354,0.05022684
1695.42168091,0.03702208
1697.35048828,0.04515180
1699.27929565,0.04026739
1701.20810303,0.03626137
1703.13691040,0.04883895
1705.06571777,0.04525361
1706.99452515,0.04519249
1708.92333252,0.04905818
1710.85213989,0.04743726
1712.78094727,0.04810759
1714.70975464,0.04488096
1716.63856201,0.04033588
1718.56736938,0.03971356
1720.49617676,0.04694885
1722.42498413,0.04856419
1724.35379150,0.04532547
1726.28259888,0.04928312
1728.21140625,0.04555557
1730.14021362,0.04584990
1732.06902100,0.04472174
1733.99782837,0.03439378
1735.92663574,0.04247715
1737.85544312,0.04706818
1739.78425049,0.04205497
1741.71305786,0.04556713
1743.64186523,0.04616788
1745.57067261,0.04625724
1747.49947998,0.04671400
1749.42828735,0.04479101
1751.35709473,0.04299207
1753.28590210,0.04735491
1755.21470947,0.04952582
1757.14351685,0.04534552
1759.07232422,0.04974511
1761.00113159,0.04702027
1762.92993896,0.04509840
1764.85874634,0.05155068
1766.78755371,0.04675739
1768.71636108,0.04697130
1770.64516846,0.04705005
1772.57397583,0.04243094
1774.50278320,0.04697004
1776.43159058,0.04969426
1778.36039795,0.04893838
1780.28920532,0.04833112
1782.21801270,0.04882750
1784.14682007,0.04882605
1786.07562744,0.04782164
1788.00443481,0.05028222
1789.93324219,0.04920349
1791.86204956,0.04472216
1793.79085693,0.04653636
1795.71966431,0.04970606
1797.64847168,0.04915584
1799.57727905,0.04858042
1801.50608643,0.04764818
1803.43489380,0.04914503
1805.36370117,0.05028265
1807.29250854,0.04948431
1809.22131592,0.04988740
1811.15012329,0.04871400
1813.07893066,0.05006936
1815.00773804,0.05043178
1816.93654541,0.04987840
1818.86535278,0.05045550
1820.79416016,0.05011152
1822.72296753,0.05074482
1824.65177490,0.04768790
1826.58058228,0.04919953
1828.50938965,0.04947064
1830.43819702,0.04651243
1832.36700439,0.05035033
1834.29581177,0.05007420
1836.22461914,0.05010730
1838.15342651,0.04994627
1840.08223389,0.05021394
1842.01104126,0.05057971
1843.93984863,0.04501976
1845.86865601,0.04782223
1847.79746338,0.05047859
1849.72627075,0.04940829
1851.65507812,0.05081999
1853.58388550,0.04975734
1855.51269287,0.05039456
1857.44150024,0.05011811
1859.37030762,0.04989014
1861.29911499,0.05023142
1863.22792236,0.04954272
1865.15672974,0.05017957
1867.08553711,0.04858153
1869.01434448,0.04666130
1870.94315186,0.04847308
1872.87195923,0.05039195
1874.80076660,0.04968093
1876.72957397,0.04986258
1878.65838135,0.04972305
1880.58718872,0.04958552
1882.51599609,0.05003160
1884.44480347,0.04909687
1886.37361084,0.04993879
1888.30241821,0.04885716
1890.23122559,0.04794724
1892.16003296,0.04978617
1894.08884033,0.04903676
1896.01764771,0.04894778
1897.94645508,0.04946977
1899.87526245,0.04931644
1901.80406982,0.04952029
1903.73287720,0.04911344
1905.66168457,0.04923804
1907.59049194,0.04891205
1909.51929932,0.04871219
1911.44810669,0.04887184
1913.37691406,0.04897061
1915.30572144,0.04932559
1917.23452881,0.04741112
1919.16333618,0.04759796
1921.09214355,0.04928785
1923.02095093,0.04779932
1924.94975830,0.04864200
1926.87856567,0.04926047
1928.80737305,0.04864872
1930.73618042,0.04924797
1932.66498779,0.04852492
1934.59379517,0.04902083
1936.52260254,0.04896469
1938.45140991,0.04894386
1940.38021729,0.04905178
1942.30902466,0.04757801
1944.23783203,0.04823225
1946.16663940,0.04872773
1948.09544678,0.04876142
1950.02425415,0.04903970
1951.95306152,0.04897858
1953.88186890,0.04909123
1955.81067627,0.04870553
1957.73948364,0.04897832
1959.66829102,0.04891167
1961.59709839,0.04876998
1963.52590576,0.04896958
1965.45471313,0.04861695
1967.38352051,0.04826009
1969.31232788,0.04852437
1971.24113525,0.04895251
1973.16994263,0.04864921
1975.09875000,0.04873361
1977.02755737,0.04872421
1978.95636475,0.04874480
1980.88517212,0.04874885
1982.81397949,0.04848383
1984.74278687,0.04875054
1986.67159424,0.04846162
1988.60040161,0.04851298
1990.52920898,0.04821733
1992.45801636,0.04764762
1994.38682373,0.04831603
1996.31563110,0.04847992
1998.24443848,0.04828197
2000.17324585,0.04827781
2002.10205322,0.04819577
2004.03086060,0.04818562
2005.95966797,0.04810473
2007.88847534,0.04805082
2009.81728271,0.04797044
2011.74609009,0.04785276
2013.67489746,0.04787181
2015.60370483,0.04751244
2017.53251221,0.04721943
2019.46131958,0.04757338
2021.39012695,0.04742635
2023.31893433,0.04742134
2025.24774170,0.04750827
2027.17654907,0.04721534
2029.10535645,0.04733659
2031.03416382,0.04730428
2032.96297119,0.04726849
2034.89177856,0.04719421
2036.82058594,0.04715256
2038.74939331,0.04709064
2040.67820068,0.04678304
2042.60700806,0.04678086
2044.53581543,0.04674081
2046.46462280,0.04664095
2048.39343018,0.04647099
2050.32223755,0.04647322
2052.25104492,0.04661287
2054.17985229,0.04655119
2056.10865967,0.04648320
2058.03746704,0.04625187
2059.96627441,0.04625469
2061.89508179,0.04641936
2063.82388916,0.04614228
2065.75269653,0.04588769
2067.68150391,0.04609245
2069.61031128,0.04604454
2071.53911865,0.04590343
2073.46792603,0.04598181
2075.39673340,0.04576052
2077.32554077,0.04567752
2079.25434814,0.04576050
2081.18315552,0.04573567
2083.11196289,0.04561671
2085.04077026,0.04548910
2086.96957764,0.04544237
2088.89838501,0.04544642
2090.82719238,0.04536890
2092.75599976,0.04528380
2094.68480713,0.04543055
2096.61361450,0.04520531
2098.54242187,0.04504436
2100.47122925,0.04504975
2102.40003662,0.04497430
2104.32884399,0.04507089
2106.25765137,0.04493776
2108.18645874,0.04497493
2110.11526611,0.04484375
2112.04407349,0.04473276
2113.97288086,0.04480182
2115.90168823,0.04471713
2117.83049561,0.04483468
2119.75930298,0.04467910
2121.68811035,0.04464496
2123.61691772,0.04459446
2125.54572510,0.04446731
2127.47453247,0.04459335
2129.40333984,0.04456311
2131.33214722,0.04451434
2133.26095459,0.04438648
2135.18976196,0.04437535
2137.11856934,0.04433484
2139.04737671,0.04431188
2140.97618408,0.04440298
2142.90499146,0.04441121
2144.83379883,0.04438486
2146.76260620,0.04423689
2148.69141357,0.04428769
2150.62022095,0.04424033
2152.54902832,0.04412632
2154.47783569,0.04410545
2156.40664307,0.04401199
2158.33545044,0.04398911
2160.26425781,0.04390918
2162.19306519,0.04394280
2164.12187256,0.04402888
2166.05067993,0.04400901
2167.97948730,0.04392045
2169.90829468,0.04392192
2171.83710205,0.04394726
2173.76590942,0.04391027
2175.69471680,0.04392388
2177.62352417,0.04381554
2179.55233154,0.04372175
2181.48113892,0.04366282
2183.40994629,0.04367276
2185.33875366,0.04369721
2187.26756104,0.04369587
2189.19636841,0.04361986
2191.12517578,0.04348433
2193.05398315,0.04368073
2194.98279053,0.04372165
2196.91159790,0.04353201
2198.84040527,0.04350022
2200.76921265,0.04350460
2202.69802002,0.04351759
2204.62682739,0.04346596
2206.55563477,0.04333799
2208.48444214,0.04337955
2210.41324951,0.04342212
2212.34205688,0.04318411
2214.27086426,0.04322387
2216.19967163,0.04324327
2218.12847900,0.04313758
2220.05728638,0.04323320
2221.98609375,0.04312996
2223.91490112,0.04309899
2225.84370850,0.04305006
2227.77251587,0.04303315
2229.70132324,0.04305681
2231.63013062,0.04295862
2233.55893799,0.04290032
2235.48774536,0.04277932
2237.41655273,0.04288673
2239.34536011,0.04289512
2241.27416748,0.04273644
2243.20297485,0.04272751
2245.13178223,0.04264029
2247.06058960,0.04255104
2248.98939697,0.04261301
2250.91820435,0.04261401
2252.84701172,0.04245588
2254.77581909,0.04246623
2256.70462646,0.04244945
2258.63343384,0.04239589
2260.56224121,0.04237820
2262.49104858,0.04228011
2264.41985596,0.04227561
2266.34866333,0.04226111
2268.27747070,0.04219820
2270.20627808,0.04212720
2272.13508545,0.04219102
2274.06389282,0.04217290
2275.99270020,0.04209146
2277.92150757,0.04206792
2279.85031494,0.04199143
2281.77912231,0.04208940
2283.70792969,0.04206199
2285.63673706,0.04193225
2287.56554443,0.04187909
2289.49435181,0.04184572
2291.42315918,0.04174153
2293.35196655,0.04162718
2295.28077393,0.04165913
2297.20958130,0.04154638
2299.13838867,0.04138730
2301.06719604,0.04125449
2302.99600342,0.04115625
2304.92481079,0.04092847
2306.85361816,0.04068222
2308.78242554,0.04045477
2310.71123291,0.03997701
2312.64004028,0.03971938
2314.56884766,0.03939464
2316.49765503,0.03894096
2318.42646240,0.03858240
2320.35526978,0.03801175
2322.28407715,0.03743384
2324.21288452,0.03711504
2326.14169189,0.03676788
2328.07049927,0.03629817
2329.99930664,0.03597260
2331.92811401,0.03565988
2333.85692139,0.03566474
2335.78572876,0.03546849
2337.71453613,0.03528694
2339.64334351,0.03547390
2341.57215088,0.03541928
2343.50095825,0.03599867
2345.42976562,0.03671448
2347.35857300,0.03817369
2349.28738037,0.03949093
2351.21618774,0.03814197
2353.14499512,0.03627783
2355.07380249,0.03501213
2357.00260986,0.03410576
2358.93141724,0.03349596
2360.86022461,0.03306770
2362.78903198,0.03302079
2364.71783936,0.03311086
2366.64664673,0.03364102
2368.57545410,0.03422252
2370.50426147,0.03504656
2372.43306885,0.03609573
2374.36187622,0.03712407
2376.29068359,0.03808218
2378.21949097,0.03869383
2380.14829834,0.03938117
2382.07710571,0.03985051
2384.00591309,0.04013278
2385.93472046,0.04030143
2387.86352783,0.04041565
2389.79233521,0.04043813
2391.72114258,0.04030246
2393.64994995,0.04034591
2395.57875732,0.04026546
2397.50756470,0.04028503
2399.43637207,0.04026273
2401.36517944,0.04022213
2403.29398682,0.04025441
2405.22279419,0.04021946
2407.15160156,0.04025651
2409.08040894,0.04008189
2411.00921631,0.04004486
2412.93802368,0.04000527
2414.86683105,0.03993908
2416.79563843,0.03993744
2418.72444580,0.03994858
2420.65325317,0.04008497
2422.58206055,0.03994306
2424.51086792,0.03983620
2426.43967529,0.03980500
2428.36848267,0.03976963
2430.29729004,0.03964602
2432.22609741,0.03949739
2434.15490479,0.03962056
2436.08371216,0.03965546
2438.01251953,0.03956350
2439.94132690,0.03949352
2441.87013428,0.03959485
2443.79894165,0.03949660
2445.72774902,0.03936509
2447.65655640,0.03948006
2449.58536377,0.03944730
2451.51417114,0.03947162
2453.44297852,0.03936453
2455.37178589,0.03925344
2457.30059326,0.03928228
2459.22940063,0.03928797
2461.15820801,0.03928170
2463.08701538,0.03915439
2465.01582275,0.03913875
2466.94463013,0.03913406
2468.87343750,0.03909831
2470.80224487,0.03909440
2472.73105225,0.03907699
2474.65985962,0.03898992
2476.58866699,0.03893979
2478.51747437,0.03902440
2480.44628174,0.03893375
2482.37508911,0.03886329
2484.30389648,0.03884593
2486.23270386,0.03880094
2488.16151123,0.03883585
2490.09031860,0.03876897
2492.01912598,0.03870612
2493.94793335,0.03871194
2495.87674072,0.03863976
2497.80554810,0.03857371
2499.73435547,0.03859440
2501.66316284,0.03851882
2503.59197021,0.03846904
2505.52077759,0.03852572
2507.44958496,0.03841605
2509.37839233,0.03834833
2511.30719971,0.03845280
2513.23600708,0.03845562
2515.16481445,0.03840402
2517.09362183,0.03830823
2519.02242920,0.03825171
2520.95123657,0.03829515
2522.88004395,0.03818249
2524.80885132,0.03824509
2526.73765869,0.03830479
2528.66646606,0.03811914
2530.59527344,0.03810089
2532.52408081,0.03811867
2534.45288818,0.03809035
2536.38169556,0.03799257
2538.31050293,0.03808649
2540.23931030,0.03808168
2542.16811768,0.03789083
2544.09692505,0.03790199
2546.02573242,0.03774050
2547.95453979,0.03783023
2549.88334717,0.03785169
2551.81215454,0.03769068
2553.74096191,0.03779811
2555.66976929,0.03770449
2557.59857666,0.03765309
2559.52738403,0.03768612
2561.45619141,0.03771622
2563.38499878,0.03763913
2565.31380615,0.03753795
2567.24261353,0.03753150
2569.17142090,0.03757399
2571.10022827,0.03763858
2573.02903564,0.03740401
2574.95784302,0.03742583
2576.88665039,0.03745107
2578.81545776,0.03735337
2580.74426514,0.03744763
2582.67307251,0.03721527
2584.60187988,0.03714867
2586.53068726,0.03727990
2588.45949463,0.03718380
2590.38830200,0.03720905
2592.31710937,0.03724173
2594.24591675,0.03702436
2596.17472412,0.03706641
2598.10353149,0.03705391
2600.03233887,0.03690544
2601.96114624,0.03707460
2603.88995361,0.03697444
2605.81876099,0.03704206
2607.74756836,0.03699932
2609.67637573,0.03671372
2611.60518311,0.03684025
2613.53399048,0.03685518
2615.46279785,0.03684899
2617.39160522,0.03673742
2619.32041260,0.03674291
2621.24921997,0.03676971
2623.17802734,0.03663785
2625.10683472,0.03662717
2627.03564209,0.03644924
2628.96444946,0.03649072
2630.89325684,0.03660616
2632.82206421,0.03648446
2634.75087158,0.03621422
2636.67967895,0.03630444
2638.60848633,0.03648530
2640.53729370,0.03630632
2642.46610107,0.03643294
2644.39490845,0.03630438
2646.32371582,0.03614701
2648.25252319,0.03616689
2650.18133057,0.03610057
2652.11013794,0.03615259
2654.03894531,0.03603905
2655.96775269,0.03617787
2657.89656006,0.03622854
2659.82536743,0.03610586
2661.75417480,0.03609059
2663.68298218,0.03602588
2665.61178955,0.03597504
2667.54059692,0.03582933
2669.46940430,0.03579068
2671.39821167,0.03578644
2673.32701904,0.03585643
2675.25582642,0.03581645
2677.18463379,0.03575353
2679.11344116,0.03578248
2681.04224854,0.03561483
2682.97105591,0.03558601
2684.89986328,0.03554688
2686.82867065,0.03561130
2688.75747803,0.03561381
2690.68628540,0.03545037
2692.61509277,0.03548509
2694.54390015,0.03536111
2696.47270752,0.03534219
2698.40151489,0.03539406
2700.33032227,0.03530080
2702.25912964,0.03527402
2704.18793701,0.03522245
2706.11674438,0.03522518
2708.04555176,0.03518016
2709.97435913,0.03510101
2711.90316650,0.03512664
2713.83197388,0.03505767
2715.76078125,0.03501505
2717.68958862,0.03500514
2719.61839600,0.03489303
2721.54720337,0.03487514
2723.47601074,0.03484298
2725.40481812,0.03492176
2727.33362549,0.03495083
2729.26243286,0.03477724
2731.19124023,0.03480255
2733.12004761,0.03473146
2735.04885498,0.03466956
2736.97766235,0.03466495
2738.90646973,0.03459565
2740.83527710,0.03463981
2742.76408447,0.03461757
2744.69289185,0.03457437
2746.62169922,0.03445523
2748.55050659,0.03440608
2750.47931396,0.03436410
2752.40812134,0.03428902
2754.33692871,0.03436451
2756.26573608,0.03432725
2758.19454346,0.03425345
2760.12335083,0.03419920
2762.05215820,0.03415916
2763.98096558,0.03412338
2765.90977295,0.03410052
2767.83858032,0.03405987
2769.76738770,0.03401966
2771.69619507,0.03398526
2773.62500244,0.03384068
2775.55380981,0.03385372
2777.48261719,0.03382561
2779.41142456,0.03378991
2781.34023193,0.03375269
2783.26903931,0.03361125
2785.19784668,0.03369834
2787.12665405,0.03363606
2789.05546143,0.03350186
2790.98426880,0.03349024
2792.91307617,0.03341927
2794.84188354,0.03341770
2796.77069092,0.03340285
2798.69949829,0.03330568
2800.62830566,0.03330170
2802.55711304,0.03332613
2804.48592041,0.03329775
2806.41472778,0.03325205
2808.34353516,0.03298670
2810.27234253,0.03299713
2812.20114990,0.03309403
2814.12995728,0.03288428
2816.05876465,0.03292987
2817.98757202,0.03289197
2819.91637939,0.03286520
2821.84518677,0.03289934
2823.77399414,0.03274832
2825.70280151,0.03267800
2827.63160889,0.03259383
2829.56041626,0.03257364
2831.48922363,0.03256573
2833.41803101,0.03244617
2835.34683838,0.03235433
2837.27564575,0.03238866
2839.20445312,0.03227106
2841.13326050,0.03217936
2843.06206787,0.03215599
2844.99087524,0.03195503
2846.91968262,0.03194439
2848.84848999,0.03175106
2850.77729736,0.03163721
2852.70610474,0.03167374
2854.63491211,0.03155737
2856.56371948,0.03167067
2858.49252686,0.03162350
2860.42133423,0.03159264
2862.35014160,0.03156641
2864.27894897,0.03155366
2866.20775635,0.03155103
2868.13656372,0.03130600
2870.06537109,0.03140888
2871.99417847,0.03140666
2873.92298584,0.03122431
2875.85179321,0.03127903
2877.78060059,0.03122776
2879.70940796,0.03115344
2881.63821533,0.03116262
2883.56702270,0.03117095
2885.49583008,0.03117664
2887.42463745,0.03108789
2889.35344482,0.03094004
2891.28225220,0.03094128
2893.21105957,0.03087869
2895.13986694,0.03089687
2897.06867432,0.03094981
2898.99748169,0.03081123
2900.92628906,0.03081447
2902.85509644,0.03063871
2904.78390381,0.03046192
2906.71271118,0.03049741
2908.64151855,0.03045308
2910.57032593,0.03036232
2912.49913330,0.03022640
2914.42794067,0.03014025
2916.35674805,0.02997160
2918.28555542,0.02996578
2920.21436279,0.03008388
2922.14317017,0.02991959
2924.07197754,0.02975513
2926.00078491,0.02976754
2927.92959229,0.02981161
2929.85839966,0.02978404
2931.78720703,0.02975636
2933.71601440,0.02974759
2935.64482178,0.02987189
2937.57362915,0.02985731
2939.50243652,0.02966635
2941.43124390,0.02980172
2943.36005127,0.02981844
2945.28885864,0.02963925
2947.21766602,0.02966696
2949.14647339,0.02966754
2951.07528076,0.02956811
2953.00408813,0.02947234
2954.93289551,0.02936015
2956.86170288,0.02931843
2958.79051025,0.02931952
2960.71931763,0.02924410
2962.64812500,0.02916303
2964.57693237,0.02910222
2966.50573975,0.02914800
2968.43454712,0.02909217
2970.36335449,0.02906063
2972.29216187,0.02923172
2974.22096924,0.02916379
2976.14977661,0.02923965
2978.07858398,0.02934112
2980.00739136,0.02918303
2981.93619873,0.02924927
2983.86500610,0.02920808
2985.79381348,0.02907739
2987.72262085,0.02913979
2989.65142822,0.02914356
2991.58023560,0.02915549
2993.50904297,0.02911131
2995.43785034,0.02896627
2997.36665771,0.02902951
2999.29546509,0.02901601
3001.22427246,0.02887485
3003.15307983,0.02888210
3005.08188721,0.02877367
3007.01069458,0.02877761
3008.93950195,0.02881084
3010.86830933,0.02867750
3012.79711670,0.02868822
3014.72592407,0.02860517
3016.65473145,0.02850524
3018.58353882,0.02854449
3020.51234619,0.02858942
3022.44115356,0.02857146
3024.36996094,0.02842120
3026.29876831,0.02837673
3028.22757568,0.02838224
3030.15638306,0.02831153
3032.08519043,0.02824240
3034.01399780,0.02810645
3035.94280518,0.02806820
3037.87161255,0.02809444
3039.80041992,0.02804535
3041.72922729,0.02800997
3043.65803467,0.02795641
3045.58684204,0.02803167
3047.51564941,0.02796291
3049.44445679,0.02771438
3051.37326416,0.02784553
3053.30207153,0.02786255
3055.23087891,0.02760592
3057.15968628,0.02762650
3059.08849365,0.02767231
3061.01730103,0.02752854
3062.94610840,0.02746191
3064.87491577,0.02742825
3066.80372314,0.02732994
3068.73253052,0.02738895
3070.66133789,0.02745931
3072.59014526,0.02738010
3074.51895264,0.02729079
3076.44776001,0.02731139
3078.37656738,0.02734686
3080.30537476,0.02728323
3082.23418213,0.02720357
3084.16298950,0.02707213
3086.09179687,0.02705912
3088.02060425,0.02704357
3089.94941162,0.02700027
3091.87821899,0.02699535
3093.80702637,0.02679918
3095.73583374,0.02674945
3097.66464111,0.02680299
3099.59344849,0.02677408
3101.52225586,0.02671899
3103.45106323,0.02670095
3105.37987061,0.02667941
3107.30867798,0.02657412
3109.23748535,0.02653792
3111.16629272,0.02643181
3113.09510010,0.02649318
3115.02390747,0.02643544
3116.95271484,0.02616444
3118.88152222,0.02620253
3120.81032959,0.02613255
3122.73913696,0.02607366
3124.66794434,0.02613072
3126.59675171,0.02605388
3128.52555908,0.02601957
3130.45436645,0.02601488
3132.38317383,0.02587865
3134.31198120,0.02580535
3136.24078857,0.02582733
3138.16959595,0.02569610
3140.09840332,0.02570426
3142.02721069,0.02566515
3143.95601807,0.02555609
3145.88482544,0.02552317
3147.81363281,0.02542570
3149.74244019,0.02537811
3151.67124756,0.02525426
3153.60005493,0.02525351
3155.52886230,0.02522142
3157.45766968,0.02522505
3159.38647705,0.02520942
3161.31528442,0.02496216
3163.24409180,0.02498317
3165.17289917,0.02498847
3167.10170654,0.02498047
3169.03051392,0.02492806
3170.95932129,0.02474272
3172.88812866,0.02469674
3174.81693604,0.02470089
3176.74574341,0.02467189
3178.67455078,0.02449065
3180.60335815,0.02451817
3182.53216553,0.02452647
3184.46097290,0.02434887
3186.38978027,0.02438122
3188.31858765,0.02441782
3190.24739502,0.02432195
3192.17620239,0.02421103
3194.10500977,0.02416573
3196.03381714,0.02406309
3197.96262451,0.02404381
3199.89143188,0.02402709
3201.82023926,0.02395460
3203.74904663,0.02390820
3205.67785400,0.02387413
3207.60666138,0.02392967
3209.53546875,0.02378779
3211.46427612,0.02371991
3213.39308350,0.02367568
3215.32189087,0.02364719
3217.25069824,0.02376516
3219.17950562,0.02365458
3221.10831299,0.02359506
3223.03712036,0.02354001
3224.96592773,0.02353530
3226.89473511,0.02353646
3228.82354248,0.02336507
3230.75234985,0.02340029
3232.68115723,0.02345281
3234.60996460,0.02335364
3236.53877197,0.02341535
3238.46757935,0.02341108
3240.39638672,0.02323023
3242.32519409,0.02325462
3244.25400146,0.02314465
3246.18280884,0.02314210
3248.11161621,0.02325058
3250.04042358,0.02315053
3251.96923096,0.02318311
3253.89803833,0.02307321
3255.82684570,0.02308330
3257.75565308,0.02301385
3259.68446045,0.02297403
3261.61326782,0.02312556
3263.54207520,0.02305277
3265.47088257,0.02311803
3267.39968994,0.02293839
3269.32849731,0.02286779
3271.25730469,0.02294982
3273.18611206,0.02289781
3275.11491943,0.02291812
3277.04372681,0.02288730
3278.97253418,0.02293707
3280.90134155,0.02276069
3282.83014893,0.02281146
3284.75895630,0.02290048
3286.68776367,0.02283303
3288.61657104,0.02286976
3290.54537842,0.02273276
3292.47418579,0.02269304
3294.40299316,0.02263621
3296.33180054,0.02270458
3298.26060791,0.02268087
3300.18941528,0.02266017
3302.11822266,0.02264748
3304.04703003,0.02249103
3305.97583740,0.02254317
3307.90464478,0.02242102
3309.83345215,0.02242250
3311.76225952,0.02243012
3313.69106689,0.02248764
3315.61987427,0.02245384
3317.54868164,0.02233563
3319.47748901,0.02248319
3321.40629639,0.02230501
3323.33510376,0.02236174
3325.26391113,0.02236897
3327.19271851,0.02229795
3329.12152588,0.02229859
3331.05033325,0.02222530
3332.97914062,0.02236214
3334.90794800,0.02212755
3336.83675537,0.02210703
3338.76556274,0.02214302
3340.69437012,0.02211680
3342.62317749,0.02223564
3344.55198486,0.02212836
3346.48079224,0.02209509
3348.40959961,0.02206368
3350.33840698,0.02201594
3352.26721436,0.02188390
3354.19602173,0.02195882
3356.12482910,0.02188624
3358.05363647,0.02176325
3359.98244385,0.02185058
3361.91125122,0.02172715
3363.84005859,0.02171252
3365.76886597,0.02164347
3367.69767334,0.02177901
3369.62648071,0.02165791
3371.55528809,0.02155238
3373.48409546,0.02171460
3375.41290283,0.02154260
3377.34171020,0.02161698
3379.27051758,0.02145120
3381.19932495,0.02147399
3383.12813232,0.02154652
3385.05693970,0.02130787
3386.98574707,0.02129807
3388.91455444,0.02129054
3390.84336182,0.02134251
3392.77216919,0.02118346
3394.70097656,0.02124382
3396.62978394,0.02120305
3398.55859131,0.02115706
3400.48739868,0.02125305
3402.41620605,0.02102716
3404.34501343,0.02112880
3406.27382080,0.02107933
3408.20262817,0.02103286
3410.13143555,0.02100392
3412.06024292,0.02086493
3413.98905029,0.02088720
3415.91785767,0.02091617
3417.84666504,0.02105273
3419.77547241,0.02087861
3421.70427979,0.02068285
3423.63308716,0.02067544
3425.56189453,0.02079970
3427.49070190,0.02074670
3429.41950928,0.02064244
3431.34831665,0.02064382
3433.27712402,0.02053128
3435.20593140,0.02067702
3437.13473877,0.02050385
3439.06354614,0.02044843
3440.99235352,0.02045897
3442.92116089,0.02037434
3444.84996826,0.02044981
3446.77877563,0.02014428
3448.70758301,0.02032351
3450.63639038,0.02042319
3452.56519775,0.02027239
3454.49400513,0.02038855
3456.42281250,0.02029906
3458.35161987,0.02028848
3460.28042725,0.02022146
3462.20923462,0.02014210
3464.13804199,0.02015800
3466.06684937,0.02014267
3467.99565674,0.02010374
3469.92446411,0.02018121
3471.85327148,0.02018256
3473.78207886,0.02012883
3475.71088623,0.02016797
3477.63969360,0.02010824
3479.56850098,0.02008750
3481.49730835,0.01981065
3483.42611572,0.01985730
3485.35492310,0.02012550
3487.28373047,0.01997880
3489.21253784,0.01993505
3491.14134521,0.01994853
3493.07015259,0.01999757
3494.99895996,0.01994545
3496.92776733,0.01987644
3498.85657471,0.01992026
3500.78538208,0.01989520
3502.71418945,0.01956302
3504.64299683,0.01952483
3506.57180420,0.02001955
3508.50061157,0.01989615
3510.42941895,0.01974046
3512.35822632,0.01985947
3514.28703369,0.01988970
3516.21584106,0.01988345
3518.14464844,0.01983131
3520.07345581,0.01991723
3522.00226318,0.01972705
3523.93107056,0.01953826
3525.85987793,0.01952201
3527.78868530,0.01955306
3529.71749268,0.01959154
3531.64630005,0.01978545
3533.57510742,0.01995457
3535.50391479,0.01964208
3537.43272217,0.01959486
3539.36152954,0.01978436
3541.29033691,0.01984257
3543.21914429,0.01972050
3545.14795166,0.01927843
3547.07675903,0.01907707
3549.00556641,0.01963788
3550.93437378,0.01974781
3552.86318115,0.01929989
3554.79198853,0.01969176
3556.72079590,0.01980903
3558.64960327,0.01968586
3560.57841064,0.01955141
3562.50721802,0.01946512
3564.43602539,0.01959511
3566.36483276,0.01834033
3568.29364014,0.01791742
3570.22244751,0.01928771
3572.15125488,0.01977848
3574.08006226,0.01966223
3576.00886963,0.01977855
3577.93767700,0.01960274
3579.86648437,0.01949955
3581.79529175,0.01954112
3583.72409912,0.01967734
3585.65290649,0.01932122
3587.58171387,0.01774447
3589.51052124,0.01827211
3591.43932861,0.01984165
3593.36813599,0.01924275
3595.29694336,0.01885445
3597.22575073,0.01924103
3599.15455811,0.01946521
3601.08336548,0.01926202
3603.01217285,0.01942121
3604.94098022,0.01969786
3606.86978760,0.01908088
3608.79859497,0.01803863
3610.72740234,0.01833748
3612.65620972,0.01881076
3614.58501709,0.01829622
3616.51382446,0.01949723
3618.44263184,0.01816034
3620.37143921,0.01763365
3622.30024658,0.01976191
3624.22905395,0.01920998
3626.15786133,0.02007523
3628.08666870,0.01719227
3630.01547607,0.01568599
3631.94428345,0.01945998
3633.87309082,0.01902551
3635.80189819,0.01931112
3637.73070557,0.01973131
3639.65951294,0.01949853
3641.58832031,0.01957839
3643.51712769,0.01935482
3645.44593506,0.01953236
3647.37474243,0.01757709
3649.30354980,0.01625798
3651.23235718,0.01641051
3653.16116455,0.01932653
3655.08997192,0.01917384
3657.01877930,0.01726466
3658.94758667,0.01972208
3660.87639404,0.01934041
3662.80520142,0.01961000
3664.73400879,0.01951357
3666.66281616,0.01933690
3668.59162354,0.01884752
3670.52043091,0.01556042
3672.44923828,0.01859928
3674.37804565,0.01769834
3676.30685303,0.01478356
3678.23566040,0.01840577
3680.16446777,0.01891333
3682.09327515,0.01888805
3684.02208252,0.01935169
3685.95088989,0.01915082
3687.87969727,0.01727775
3689.80850464,0.01591702
3691.73731201,0.01807246
3693.66611938,0.01855633
3695.59492676,0.01904926
3697.52373413,0.01902350
3699.45254150,0.01885176
3701.38134888,0.01839368
3703.31015625,0.01768412
3705.23896362,0.01936007
3707.16777100,0.01853728
3709.09657837,0.01817413
3711.02538574,0.01707399
3712.95419312,0.01612073
3714.88300049,0.01872000
3716.81180786,0.01841591
3718.74061523,0.01860268
3720.66942261,0.01812732
3722.59822998,0.01757500
3724.52703735,0.01817982
3726.45584473,0.01698693
3728.38465210,0.01837643
3730.31345947,0.01810963
3732.24226685,0.01687697
3734.17107422,0.01638231
3736.09988159,0.01555805
3738.02868896,0.01646107
3739.95749634,0.01769219
3741.88630371,0.01860539
3743.81511108,0.01464091
3745.74391846,0.01381882
3747.67272583,0.01760308
3749.60153320,0.01527688
3751.53034058,0.01419142
3753.45914795,0.01616564
3755.38795532,0.01743622
3757.31676270,0.01803938
3759.24557007,0.01675298
3761.17437744,0.01732095
3763.10318481,0.01836145
3765.03199219,0.01721679
3766.96079956,0.01749220
3768.88960693,0.01739478
3770.81841431,0.01661859
3772.74722168,0.01789280
3774.67602905,0.01788623
3776.60483643,0.01791313
3778.53364380,0.01758855
3780.46245117,0.01687731
3782.39125854,0.01793871
3784.32006592,0.01744692
3786.24887329,0.01730260
3788.17768066,0.01777014
3790.10648804,0.01766523
3792.03529541,0.01753243
3793.96410278,0.01777048
3795.89291016,0.01679614
3797.82171753,0.01655288
3799.75052490,0.01748427
3801.67933228,0.01408293
3803.60813965,0.01621790
3805.53694702,0.01764436
3807.46575439,0.01451819
3809.39456177,0.01736389
3811.32336914,0.01708118
3813.25217651,0.01769346
3815.18098389,0.01604908
3817.10979126,0.01410210
3819.03859863,0.01771750
3820.96740601,0.01444222
3822.89621338,0.01515927
3824.82502075,0.01762444
3826.75382812,0.01593710
3828.68263550,0.01714047
3830.61144287,0.01649508
3832.54025024,0.01600143
3834.46905762,0.01632668
3836.39786499,0.01551583
3838.32667236,0.01407701
3840.25547974,0.01513096
3842.18428711,0.01634762
3844.11309448,0.01566859
3846.04190186,0.01684295
3847.97070923,0.01659955
3849.89951660,0.01667178
3851.82832397,0.01510429
3853.75713135,0.01147897
3855.68593872,0.01340678
3857.61474609,0.01661601
3859.54355347,0.01627881
3861.47236084,0.01607236
3863.40116821,0.01570236
3865.32997559,0.01468580
3867.25878296,0.01634878
3869.18759033,0.01503540
3871.11639770,0.01385977
3873.04520508,0.01630416
3874.97401245,0.01514682
3876.90281982,0.01624702
3878.83162720,0.01658831
3880.76043457,0.01438302
3882.68924194,0.01628969
3884.61804932,0.01524233
3886.54685669,0.01409415
3888.47566406,0.01641394
3890.40447144,0.01556691
3892.33327881,0.01462413
3894.26208618,0.01600195
3896.19089355,0.01617352
3898.11970093,0.01545598
3900.04850830,0.01474847
3901.97731567,0.01445419
3903.90612305,0.01434998
3905.83493042,0.01461640
3907.76373779,0.01583001
3909.69254517,0.01589322
3911.62135254,0.01582132
3913.55015991,0.01605971
3915.47896728,0.01554253
3917.40777466,0.01510780
3919.33658203,0.01502106
3921.26538940,0.01554183
3923.19419678,0.01544819
3925.12300415,0.01527214
3927.05181152,0.01540059
3928.98061890,0.01549175
3930.90942627,0.01533612
3932.83823364,0.01476990
3934.76704102,0.01536493
3936.69584839,0.01551428
3938.62465576,0.01539548
3940.55346313,0.01555555
3942.48227051,0.01496728
3944.41107788,0.01511005
3946.33988525,0.01530259
3948.26869263,0.01508240
3950.19750000,0.01505866
3952.12630737,0.01514718
3954.05511475,0.01525128
3955.98392212,0.01516783
3957.91272949,0.01511961
3959.84153687,0.01509690
3961.77034424,0.01498523
3963.69915161,0.01500669
3965.62795898,0.01518128
3967.55676636,0.01515221
3969.48557373,0.01504452
3971.41438110,0.01496017
3973.34318848,0.01502238
3975.27199585,0.01494665
3977.20080322,0.01490132
3979.12961060,0.01497471
3981.05841797,0.01484380
3982.98722534,0.01497972
3984.91603271,0.01480594
3986.84484009,0.01486532
3988.77364746,0.01484323
3990.70245483,0.01450055
3992.63126221,0.01475629
3994.56006958,0.01466799
3996.48887695,0.01472750
3998.41768433,0.01467578
4000.34649170,0.01457449
4002.27529907,0.01468919
4004.20410645,0.01453406
4006.13291382,0.01464647
4008.06172119,0.01448733
4009.99052856,0.01448049
4011.91933594,0.01454481
4013.84814331,0.01447642
4015.77695068,0.01445929
4017.70575806,0.01435137
4019.63456543,0.01438973
4021.56337280,0.01426910
4023.49218018,0.01432943
4025.42098755,0.01437085
4027.34979492,0.01430206
4029.27860229,0.01416999
4031.20740967,0.01417406
4033.13621704,0.01423573
4035.06502441,0.01409411
4036.99383179,0.01420232
4038.92263916,0.01409012
4040.85144653,0.01415442
4042.78025391,0.01412070
4044.70906128,0.01396261
4046.63786865,0.01404778
4048.56667603,0.01395061
4050.49548340,0.01402889
4052.42429077,0.01391977
4054.35309814,0.01393730
4056.28190552,0.01391871
4058.21071289,0.01386185
4060.13952026,0.01390968
4062.06832764,0.01372804
4063.99713501,0.01379185
4065.92594238,0.01374934
4067.85474976,0.01377328
4069.78355713,0.01370017
4071.71236450,0.01368390
4073.64117187,0.01375587
4075.56997925,0.01357575
4077.49878662,0.01362322
4079.42759399,0.01358282
4081.35640137,0.01357971
4083.28520874,0.01351683
4085.21401611,0.01354046
4087.14282349,0.01349558
4089.07163086,0.01331761
4091.00043823,0.01342872
4092.92924561,0.01339470
4094.85805298,0.01343727
4096.78686035,0.01333718
4098.71566772,0.01328536
4100.64447510,0.01329461
4102.57328247,0.01323779
4104.50208984,0.01327263
4106.43089722,0.01309111
4108.35970459,0.01315716
4110.28851196,0.01316725
4112.21731934,0.01316306
4114.14612671,0.01321902
4116.07493408,0.01312297
4118.00374145,0.01310168
4119.93254883,0.01306197
4121.86135620,0.01306833
4123.79016357,0.01299243
4125.71897095,0.01293972
4127.64777832,0.01291253
4129.57658569,0.01303027
4131.50539307,0.01296637
4133.43420044,0.01280471
4135.36300781,0.01292745
4137.29181519,0.01283358
4139.22062256,0.01283636
4141.14942993,0.01280181
4143.07823730,0.01278426
4145.00704468,0.01277765
4146.93585205,0.01262544
4148.86465942,0.01266814
4150.79346680,0.01263856
4152.72227417,0.01261695
4154.65108154,0.01257473
4156.57988892,0.01259496
4158.50869629,0.01255773
4160.43750366,0.01260116
4162.36631103,0.01261815
4164.29511841,0.01241454
4166.22392578,0.01257947
4168.15273315,0.01248110
4170.08154053,0.01231342
4172.01034790,0.01238963
4173.93915527,0.01237570
4175.86796265,0.01239165
4177.79677002,0.01234530
4179.72557739,0.01232710
4181.65438477,0.01224381
4183.58319214,0.01228185
4185.51199951,0.01228574
4187.44080688,0.01223124
4189.36961426,0.01220935
4191.29842163,0.01213410
4193.22722900,0.01216654
4195.15603638,0.01209824
4197.08484375,0.01207885
4199.01365112,0.01206354
4200.94245850,0.01208450
4202.87126587,0.01203418
4204.80007324,0.01194341
4206.72888062,0.01204058
4208.65768799,0.01202031
4210.58649536,0.01199818
4212.51530273,0.01189650
4214.44411011,0.01187572
4216.37291748,0.01189915
4218.30172485,0.01186285
4220.23053223,0.01188310
4222.15933960,0.01180434
4224.08814697,0.01178813
4226.01695435,0.01173714
4227.94576172,0.01173906
4229.87456909,0.01170327
4231.80337646,0.01166757
4233.73218384,0.01167016
4235.66099121,0.01158058
4237.58979858,0.01159363
4239.51860596,0.01152826
4241.44741333,0.01154439
4243.37622070,0.01157358
4245.30502808,0.01156730
4247.23383545,0.01155477
4249.16264282,0.01149261
4251.09145020,0.01148684
4253.02025757,0.01140373
4254.94906494,0.01144580
4256.87787231,0.01143106
4258.80667969,0.01139979
4260.73548706,0.01140603
4262.66429443,0.01133598
4264.59310181,0.01131882
4266.52190918,0.01126444
4268.45071655,0.01129366
4270.37952393,0.01128454
4272.30833130,0.01127105
4274.23713867,0.01121107
4276.16594604,0.01120339
4278.09475342,0.01126370
4280.02356079,0.01115628
4281.95236816,0.01115584
4283.88117554,0.01111712
4285.80998291,0.01112229
4287.73879028,0.01107707
4289.66759766,0.01097370
4291.59640503,0.01105336
4293.52521240,0.01100245
4295.45401978,0.01098229
4297.38282715,0.01096047
4299.31163452,0.01089526
4301.24044189,0.01089871
4303.16924927,0.01087129
4305.09805664,0.01087193
4307.02686401,0.01084727
4308.95567139,0.01076803
4310.88447876,0.01075836
4312.81328613,0.01081754
4314.74209351,0.01076422
4316.67090088,0.01071674
4318.59970825,0.01071822
4320.52851562,0.01065587
4322.45732300,0.01061473
4324.38613037,0.01063055
4326.31493774,0.01061197
4328.24374512,0.01059840
4330.17255249,0.01062237
4332.10135986,0.01053513
4334.03016724,0.01053545
4335.95897461,0.01051544
4337.88778198,0.01043866
4339.81658936,0.01048687
4341.74539673,0.01044294
4343.67420410,0.01041806
4345.60301147,0.01042190
4347.53181885,0.01038242
4349.46062622,0.01031056
4351.38943359,0.01028805
4353.31824097,0.01031221
4355.24704834,0.01031141
4357.17585571,0.01028022
4359.10466309,0.01013734
4361.03347046,0.01019330
4362.96227783,0.01022538
4364.89108520,0.01014628
4366.81989258,0.01017738
4368.74869995,0.01013191
4370.67750732,0.01017760
4372.60631470,0.01014958
4374.53512207,0.01007406
4376.46392944,0.01007480
4378.39273682,0.00996895
4380.32154419,0.01000075
4382.25035156,0.01007502
4384.17915894,0.00996783
4386.10796631,0.00991977
4388.03677368,0.00993445
4389.96558105,0.00990601
4391.89438843,0.00993828
4393.82319580,0.00992359
4395.75200317,0.00984993
4397.68081055,0.00983877
4399.60961792,0.00988563
4401.53842529,0.00983804
4403.46723267,0.00980487
4405.39604004,0.00982830
4407.32484741,0.00972393
4409.25365478,0.00979547
4411.18246216,0.00978868
4413.11126953,0.00970902
4415.04007690,0.00968921
4416.96888428,0.00955453
4418.89769165,0.00964788
4420.82649902,0.00958565
4422.75530640,0.00956128
4424.68411377,0.00968011
4426.61292114,0.00954332
4428.54172852,0.00952538
4430.47053589,0.00948615
4432.39934326,0.00941216
4434.32815063,0.00943708
4436.25695801,0.00943634
4438.18576538,0.00938990
4440.11457275,0.00934596
4442.04338013,0.00932691
4443.97218750,0.00940138
4445.90099487,0.00941697
4447.82980225,0.00923661
4449.75860962,0.00930123
4451.68741699,0.00929925
4453.61622437,0.00921306
4455.54503174,0.00930470
4457.47383911,0.00925039
4459.40264648,0.00921666
4461.33145386,0.00919569
4463.26026123,0.00919477
4465.18906860,0.00919985
4467.11787598,0.00918277
4469.04668335,0.00916311
4470.97549072,0.00906558
4472.90429810,0.00902167
4474.83310547,0.00907492
4476.76191284,0.00914672
4478.69072021,0.00909698
4480.61952759,0.00905086
4482.54833496,0.00897067
4484.47714233,0.00897675
4486.40594971,0.00898441
4488.33475708,0.00886957
4490.26356445,0.00895992
4492.19237183,0.00893209
4494.12117920,0.00888513
4496.04998657,0.00888693
4497.97879395,0.00880748
4499.90760132,0.00873937
4501.83640869,0.00877953
4503.76521606,0.00894898
4505.69402344,0.00881252
4507.62283081,0.00874586
4509.55163818,0.00873148
4511.48044556,0.00865185
4513.40925293,0.00874319
4515.33806030,0.00872992
4517.26686768,0.00871717
4519.19567505,0.00860468
4521.12448242,0.00852394
4523.05328979,0.00851124
4524.98209717,0.00850207
4526.91090454,0.00856341
4528.83971191,0.00851626
4530.76851929,0.00849344
4532.69732666,0.00851670
4534.62613403,0.00856782
4536.55494141,0.00852404
4538.48374878,0.00853720
4540.41255615,0.00854709
4542.34136353,0.00844468
4544.27017090,0.00848186
4546.19897827,0.00840772
4548.12778564,0.00832454
4550.05659302,0.00832701
4551.98540039,0.00834530
4553.91420776,0.00833398
4555.84301514,0.00832805
4557.77182251,0.00835953
4559.70062988,0.00825485
4561.62943726,0.00821355
4563.55824463,0.00819751
4565.48705200,0.00823966
4567.41585937,0.00825772
4569.34466675,0.00819114
4571.27347412,0.00817629
4573.20228149,0.00811576
4575.13108887,0.00814351
4577.05989624,0.00810470
4578.98870361,0.00805014
4580.91751099,0.00805502
4582.84631836,0.00807046
4584.77512573,0.00801452
4586.70393311,0.00787380
4588.63274048,0.00802138
4590.56154785,0.00800847
4592.49035522,0.00786526
4594.41916260,0.00794907
4596.34796997,0.00793521
4598.27677734,0.00791829
4600.20558472,0.00785293
4602.13439209,0.00779202
4604.06319946,0.00783302
4605.99200684,0.00779867
4607.92081421,0.00779951
4609.84962158,0.00777560
4611.77842895,0.00772639
4613.70723633,0.00771520
4615.63604370,0.00766985
4617.56485107,0.00774574
4619.49365845,0.00771117
4621.42246582,0.00764266
4623.35127319,0.00775947
4625.28008057,0.00769167
4627.20888794,0.00765111
4629.13769531,0.00763638
4631.06650269,0.00758374
4632.99531006,0.00760422
4634.92411743,0.00753622
4636.85292480,0.00758994
4638.78173218,0.00762386
4640.71053955,0.00756777
4642.63934692,0.00749309
4644.56815430,0.00743656
4646.49696167,0.00746699
4648.42576904,0.00745125
4650.35457642,0.00746533
4652.28338379,0.00739271
4654.21219116,0.00738515
4656.14099853,0.00740990
4658.06980591,0.00730341
4659.99861328,0.00737085
4661.92742065,0.00737656
4663.85622803,0.00731310
4665.78503540,0.00737910
4667.71384277,0.00732798
4669.64265015,0.00731251
4671.57145752,0.00737382
4673.50026489,0.00726961
4675.42907227,0.00725409
4677.35787964,0.00724227
4679.28668701,0.00719528
4681.21549438,0.00728570
4683.14430176,0.00722711
4685.07310913,0.00721244
4687.00191650,0.00718516
4688.93072388,0.00707869
4690.85953125,0.00712731
4692.78833862,0.00709742
4694.71714600,0.00705072
4696.64595337,0.00706544
4698.57476074,0.00706991
4700.50356812,0.00708186
4702.43237549,0.00710062
4704.36118286,0.00702891
4706.28999023,0.00698492
4708.21879761,0.00701775
4710.14760498,0.00698115
4712.07641235,0.00701229
4714.00521973,0.00696823
4715.93402710,0.00692268
4717.86283447,0.00690952
4719.79164185,0.00687695
4721.72044922,0.00689167
4723.64925659,0.00682146
4725.57806396,0.00683888
4727.50687134,0.00684372
4729.43567871,0.00687670
4731.36448608,0.00686240
4733.29329346,0.00675429
4735.22210083,0.00679064
4737.15090820,0.00670899
4739.07971558,0.00671844
4741.00852295,0.00683422
4742.93733032,0.00676025
4744.86613770,0.00666832
4746.79494507,0.00671109
4748.72375244,0.00676763
4750.65255981,0.00667226
4752.58136719,0.00660618
4754.51017456,0.00668565
4756.43898193,0.00668274
4758.36778931,0.00652091
4760.29659668,0.00653825
4762.22540405,0.00656385
4764.15421143,0.00651730
4766.08301880,0.00660073
4768.01182617,0.00659369
4769.94063354,0.00656789
4771.86944092,0.00650407
4773.79824829,0.00651810
4775.72705566,0.00655637
4777.65586304,0.00651479
4779.58467041,0.00652048
4781.51347778,0.00639408
4783.44228516,0.00637261
4785.37109253,0.00644480
4787.29989990,0.00647124
4789.22870728,0.00641874
4791.15751465,0.00629458
4793.08632202,0.00630509
4795.01512939,0.00636644
4796.94393677,0.00640804
4798.87274414,0.00632028
4800.80155151,0.00624867
4802.73035889,0.00629350
4804.65916626,0.00627145
4806.58797363,0.00620379
4808.51678101,0.00623099
4810.44558838,0.00621533
4812.37439575,0.00616489
4814.30320312,0.00625105
4816.23201050,0.00616558
4818.16081787,0.00615124
4820.08962524,0.00619012
4822.01843262,0.00614561
4823.94723999,0.00617541
4825.87604736,0.00608253
4827.80485474,0.00615477
4829.73366211,0.00616404
4831.66246948,0.00607014
4833.59127686,0.00606216
4835.52008423,0.00600556
4837.44889160,0.00602423
4839.37769897,0.00603140
4841.30650635,0.00602888
4843.23531372,0.00595417
4845.16412109,0.00597002
4847.09292847,0.00595215
4849.02173584,0.00595457
4850.95054321,0.00599898
4852.87935059,0.00586559
4854.80815796,0.00595280
4856.73696533,0.00588346
4858.66577270,0.00584959
4860.59458008,0.00591072
4862.52338745,0.00580334
4864.45219482,0.00589403
4866.38100220,0.00582385
4868.30980957,0.00579841
4870.23861694,0.00582968
4872.16742432,0.00577593
4874.09623169,0.00575611
4876.02503906,0.00567940
4877.95384644,0.00569989
4879.88265381,0.00572503
4881.81146118,0.00576556
4883.74026855,0.00569737
4885.66907593,0.00570594
4887.59788330,0.00577261
4889.52669067,0.00567962
4891.45549805,0.00569631
4893.38430542,0.00563828
4895.31311279,0.00555843
4897.24192017,0.00559851
4899.17072754,0.00566603
4901.09953491,0.00563956
4903.02834228,0.00559352
4904.95714966,0.00561686
4906.88595703,0.00553533
4908.81476440,0.00552128
4910.74357178,0.00551367
4912.67237915,0.00549419
4914.60118652,0.00552945
4916.52999390,0.00549104
4918.45880127,0.00548134
4920.38760864,0.00546812
4922.31641602,0.00545080
4924.24522339,0.00549273
4926.17403076,0.00547824
4928.10283813,0.00539534
4930.03164551,0.00540748
4931.96045288,0.00539805
4933.88926025,0.00529535
4935.81806763,0.00532620
4937.74687500,0.00540382
4939.67568237,0.00537845
4941.60448975,0.00539807
4943.53329712,0.00543060
4945.46210449,0.00533459
4947.39091187,0.00531141
4949.31971924,0.00532119
4951.24852661,0.00526785
4953.17733398,0.00523272
4955.10614136,0.00520892
4957.03494873,0.00527599
4958.96375610,0.00527183
4960.89256348,0.00519669
4962.82137085,0.00517651
4964.75017822,0.00513866
4966.67898560,0.00513044
4968.60779297,0.00519497
4970.53660034,0.00519260
4972.46540771,0.00512394
4974.39421509,0.00509045
4976.32302246,0.00502614
4978.25182983,0.00510676
4980.18063721,0.00507788
4982.10944458,0.00497254
4984.03825195,0.00508189
4985.96705933,0.00500942
4987.89586670,0.00500351
4989.82467407,0.00502468
4991.75348145,0.00499881
4993.68228882,0.00503353
4995.61109619,0.00493848
4997.53990356,0.00502035
4999.46871094,0.00496511
5001.39751831,0.00486851
5003.32632568,0.00498535
5005.25513306,0.00491147
5007.18394043,0.00491323
5009.11274780,0.00498166
5011.04155518,0.00492697
5012.97036255,0.00490734
5014.89916992,0.00488216
5016.82797729,0.00484361
5018.75678467,0.00482505
5020.68559204,0.00481714
5022.61439941,0.00487023
5024.54320679,0.00486231
5026.47201416,0.00479598
5028.40082153,0.00482936
5030.32962891,0.00480782
5032.25843628,0.00477149
5034.18724365,0.00481279
5036.11605103,0.00481430
5038.04485840,0.00471598
5039.97366577,0.00466595
5041.90247314,0.00473528
5043.83128052,0.00467083
5045.76008789,0.00468676
5047.68889526,0.00478311
5049.61770264,0.00469171
5051.54651001,0.00471255
5053.47531738,0.00473203
5055.40412476,0.00466094
5057.33293213,0.00471263
5059.26173950,0.00468184
5061.19054687,0.00461856
5063.11935425,0.00460651
5065.04816162,0.00460813
5066.97696899,0.00466372
5068.90577637,0.00459337
5070.83458374,0.00455576
5072.76339111,0.00454256
5074.69219849,0.00451941
5076.62100586,0.00460568
5078.54981323,0.00453815
5080.47862061,0.00447409
5082.40742798,0.00445467
5084.33623535,0.00446984
5086.26504272,0.00446561
5088.19385010,0.00438506
5090.12265747,0.00448804
5092.05146484,0.00445745
5093.98027222,0.00441708
5095.90907959,0.00440054
5097.83788696,0.00432212
5099.76669434,0.00446619
5101.69550171,0.00444369
5103.62430908,0.00435250
5105.55311645,0.00442152
5107.48192383,0.00443524
5109.41073120,0.00437106
5111.33953857,0.00435324
5113.26834595,0.00436328
5115.19715332,0.00430744
5117.12596069,0.00434204
5119.05476807,0.00434081
5120.98357544,0.00427041
5122.91238281,0.00427640
5124.84119019,0.00430719
5126.76999756,0.00430500
5128.69880493,0.00427389
5130.62761230,0.00422762
5132.55641968,0.00422617
5134.48522705,0.00427747
5136.41403442,0.00416047
5138.34284180,0.00416015
5140.27164917,0.00424454
5142.20045654,0.00416550
5144.12926392,0.00417113
5146.05807129,0.00414435
5147.98687866,0.00416139
5149.91568603,0.00414814
5151.84449341,0.00407021
5153.77330078,0.00409534
5155.70210815,0.00406901
5157.63091553,0.00407094
5159.55972290,0.00406154
5161.48853027,0.00404451
5163.41733765,0.00408212
5165.34614502,0.00409319
5167.27495239,0.00407240
5169.20375977,0.00405258
5171.13256714,0.00402318
5173.06137451,0.00404704
5174.99018188,0.00408433
5176.91898926,0.00396475
5178.84779663,0.00397068
5180.77660400,0.00396805
5182.70541138,0.00391190
5184.63421875,0.00397225
5186.56302612,0.00387949
5188.49183350,0.00390970
5190.42064087,0.00393954
5192.34944824,0.00392190
5194.27825562,0.00404132
5196.20706299,0.00392581
5198.13587036,0.00382756
5200.06467773,0.00386846
5201.99348511,0.00389504
5203.92229248,0.00392518
5205.85109985,0.00380571
5207.77990723,0.00376659
5209.70871460,0.00385326
5211.63752197,0.00380355
5213.56632935,0.00382715
5215.49513672,0.00388562
5217.42394409,0.00380643
5219.35275146,0.00382478
5221.28155884,0.00384269
5223.21036621,0.00371640
5225.13917358,0.00365572
5227.06798096,0.00374290
5228.99678833,0.00376037
5230.92559570,0.00369264
5232.85440308,0.00371982
5234.78321045,0.00377884
5236.71201782,0.00382227
5238.64082520,0.00375108
5240.56963257,0.00366947
5242.49843994,0.00364513
5244.42724731,0.00361811
5246.35605469,0.00369103
5248.28486206,0.00361923
5250.21366943,0.00364012
5252.14247681,0.00376246
5254.07128418,0.00358494
5256.00009155,0.00359302
5257.92889893,0.00364722
5259.85770630,0.00354775
5261.78651367,0.00358580
5263.71532104,0.00352708
5265.64412842,0.00356204
5267.57293579,0.00361729
5269.50174316,0.00350125
5271.43055054,0.00351576
5273.35935791,0.00350232
5275.28816528,0.00348143
5277.21697266,0.00351628
5279.14578003,0.00356447
5281.07458740,0.00358770
5283.00339478,0.00352074
5284.93220215,0.00357606
5286.86100952,0.00355269
5288.78981689,0.00345081
5290.71862427,0.00346981
5292.64743164,0.00350330
5294.57623901,0.00348222
5296.50504639,0.00346962
5298.43385376,0.00352735
5300.36266113,0.00338089
5302.29146851,0.00331114
5304.22027588,0.00341483
5306.14908325,0.00337733
5308.07789062,0.00334407
5310.00669800,0.00333012
5311.93550537,0.00338074
5313.86431274,0.00338618
5315.79312012,0.00338172
5317.72192749,0.00337611
5319.65073486,0.00337287
5321.57954224,0.00342051
5323.50834961,0.00332600
5325.43715698,0.00333173
5327.36596436,0.00328932
5329.29477173,0.00327881
5331.22357910,0.00333608
5333.15238647,0.00322536
5335.08119385,0.00328615
5337.01000122,0.00325423
5338.93880859,0.00319372
5340.86761597,0.00325224
5342.79642334,0.00317201
5344.72523071,0.00310235
5346.65403809,0.00317672
5348.58284546,0.00327632
5350.51165283,0.00319789
5352.44046020,0.00316536
5354.36926758,0.00319104
5356.29807495,0.00324025
5358.22688232,0.00321737
5360.15568970,0.00313916
5362.08449707,0.00326907
5364.01330444,0.00318375
5365.94211182,0.00314627
5367.87091919,0.00324491
5369.79972656,0.00311328
5371.72853394,0.00313889
5373.65734131,0.00318771
5375.58614868,0.00308433
5377.51495605,0.00303041
5379.44376343,0.00308130
5381.37257080,0.00311176
5383.30137817,0.00308027
5385.23018555,0.00306253
5387.15899292,0.00304751
5389.08780029,0.00311322
5391.01660767,0.00311606
5392.94541504,0.00300020
5394.87422241,0.00295087
5396.80302978,0.00298488
5398.73183716,0.00297770
5400.66064453,0.00302327
5402.58945190,0.00307806
5404.51825928,0.00297324
5406.44706665,0.00302355
5408.37587402,0.00301135
5410.30468140,0.00293597
5412.23348877,0.00295960
5414.16229614,0.00278037
5416.09110352,0.00293823
5418.01991089,0.00306984
5419.94871826,0.00286301
5421.87752563,0.00296731
5423.80633301,0.00295444
5425.73514038,0.00291001
5427.66394775,0.00294340
5429.59275513,0.00281496
5431.52156250,0.00291516
5433.45036987,0.00291952
5435.37917725,0.00275471
5437.30798462,0.00285536
5439.23679199,0.00289417
5441.16559936,0.00278898
5443.09440674,0.00287094
5445.02321411,0.00284423
5446.95202148,0.00275804
5448.88082886,0.00284444
5450.80963623,0.00280236
5452.73844360,0.00282337
5454.66725098,0.00279756
5456.59605835,0.00274462
5458.52486572,0.00284475
5460.45367310,0.00274603
5462.38248047,0.00280654
5464.31128784,0.00290238
5466.24009521,0.00280566
5468.16890259,0.00282160
5470.09770996,0.00277246
5472.02651733,0.00274408
5473.95532471,0.00278144
5475.88413208,0.00272367
5477.81293945,0.00268153
5479.74174683,0.00274347
5481.67055420,0.00276243
5483.59936157,0.00278296
5485.52816895,0.00278062
5487.45697632,0.00267026
5489.38578369,0.00269539
5491.31459106,0.00266238
5493.24339844,0.00261077
5495.17220581,0.00266330
5497.10101318,0.00266922
5499.02982056,0.00270438
5500.95862793,0.00265689
5502.88743530,0.00264464
5504.81624268,0.00268001
5506.74505005,0.00261112
5508.67385742,0.00261024
5510.60266479,0.00271365
5512.53147217,0.00268328
5514.46027954,0.00261890
5516.38908691,0.00268910
5518.31789429,0.00260916
5520.24670166,0.00255098
5522.17550903,0.00264930
5524.10431641,0.00268217
5526.03312378,0.00262838
5527.96193115,0.00255495
5529.89073853,0.00252529
5531.81954590,0.00251007
5533.74835327,0.00255271
5535.67716064,0.00253729
5537.60596802,0.00252216
5539.53477539,0.00254833
5541.46358276,0.00258218
5543.39239014,0.00259341
5545.32119751,0.00249709
5547.25000488,0.00256906
5549.17881226,0.00252658
5551.10761963,0.00241375
5553.03642700,0.00249062
5554.96523437,0.00247935
5556.89404175,0.00250268
5558.82284912,0.00250617
5560.75165649,0.00250523
5562.68046387,0.00248984
5564.60927124,0.00242048
5566.53807861,0.00249195
5568.46688599,0.00255158
5570.39569336,0.00250426
5572.32450073,0.00243573
5574.25330811,0.00237412
5576.18211548,0.00237853
5578.11092285,0.00244300
5580.03973022,0.00241311
5581.96853760,0.00241026
5583.89734497,0.00238074
5585.82615234,0.00234227
5587.75495972,0.00241734
5589.68376709,0.00233234
5591.61257446,0.00234520
5593.54138184,0.00241648
5595.47018921,0.00234296
5597.39899658,0.00231515
5599.32780395,0.00237102
5601.25661133,0.00241102
5603.18541870,0.00229969
5605.11422607,0.00228371
5607.04303345,0.00231744
5608.97184082,0.00233255
5610.90064819,0.00229042
5612.82945557,0.00226570
5614.75826294,0.00236953
5616.68707031,0.00228597
5618.61587769,0.00229116
5620.54468506,0.00235643
5622.47349243,0.00234519
5624.40229980,0.00235427
5626.33110718,0.00228526
5628.25991455,0.00224489
5630.18872192,0.00223403
5632.11752930,0.00226903
5634.04633667,0.00224457
5635.97514404,0.00227149
5637.90395142,0.00227539
5639.83275879,0.00222534
5641.76156616,0.00224813
5643.69037353,0.00222615
5645.61918091,0.00231386
5647.54798828,0.00226191
5649.47679565,0.00217905
5651.40560303,0.00222226
5653.33441040,0.00217803
5655.26321777,0.00212040
5657.19202515,0.00215590
5659.12083252,0.00223866
5661.04963989,0.00213656
5662.97844727,0.00217010
5664.90725464,0.00219363
5666.83606201,0.00214800
5668.76486938,0.00221586
5670.69367676,0.00213402
5672.62248413,0.00214938
5674.55129150,0.00212130
5676.48009888,0.00209890
5678.40890625,0.00214702
5680.33771362,0.00214709
5682.26652100,0.00208900
5684.19532837,0.00198200
5686.12413574,0.00211991
5688.05294311,0.00209006
5689.98175049,0.00205743
5691.91055786,0.00212811
5693.83936523,0.00205070
5695.76817261,0.00212370
5697.69697998,0.00209750
5699.62578735,0.00207942
5701.55459473,0.00208189
5703.48340210,0.00197841
5705.41220947,0.00203329
5707.34101685,0.00207051
5709.26982422,0.00203203
5711.19863159,0.00206279
5713.12743896,0.00207595
5715.05624634,0.00205720
5716.98505371,0.00204588
5718.91386108,0.00200924
5720.84266846,0.00205532
5722.77147583,0.00205728
5724.70028320,0.00200166
5726.62909058,0.00198174
5728.55789795,0.00194610
5730.48670532,0.00198916
5732.41551270,0.00196340
5734.34432007,0.00191020
5736.27312744,0.00191378
5738.20193481,0.00194156
5740.13074219,0.00195634
5742.05954956,0.00191137
5743.98835693,0.00191430
5745.91716431,0.00191806
5747.84597168,0.00196513
5749.77477905,0.00199969
5751.70358643,0.00199461
5753.63239380,0.00195163
5755.56120117,0.00189822
5757.49000854,0.00195056
5759.41881592,0.00193158
5761.34762329,0.00186589
5763.27643066,0.00188564
5765.20523804,0.00192454
5767.13404541,0.00187153
5769.06285278,0.00188737
5770.99166016,0.00190859
5772.92046753,0.00187580
5774.84927490,0.00193340
5776.77808228,0.00187168
5778.70688965,0.00187890
5780.63569702,0.00186671
5782.56450439,0.00182540
5784.49331177,0.00188168
5786.42211914,0.00182659
5788.35092651,0.00186352
5790.27973389,0.00185380
5792.20854126,0.00183875
5794.13734863,0.00184367
5796.06615601,0.00178118
5797.99496338,0.00182321
5799.92377075,0.00187798
5801.85257812,0.00183860
5803.78138550,0.00170780
5805.71019287,0.00174421
5807.63900024,0.00176461
5809.56780762,0.00176196
5811.49661499,0.00177724
5813.42542236,0.00170162
5815.35422974,0.00179878
5817.28303711,0.00174477
5819.21184448,0.00169612
5821.14065186,0.00179409
5823.06945923,0.00178563
5824.99826660,0.00179188
5826.92707397,0.00175542
5828.85588135,0.00172402
5830.78468872,0.00169892
5832.71349609,0.00171324
5834.64230347,0.00171342
5836.57111084,0.00169784
5838.49991821,0.00169787
5840.42872559,0.00167740
5842.35753296,0.00172700
5844.28634033,0.00171565
5846.21514770,0.00173994
5848.14395508,0.00172725
5850.07276245,0.00164216
5852.00156982,0.00164441
5853.93037720,0.00161809
5855.85918457,0.00163471
5857.78799194,0.00168653
5859.71679932,0.00166108
5861.64560669,0.00157651
5863.57441406,0.00163410
5865.50322144,0.00170961
5867.43202881,0.00159748
5869.36083618,0.00159040
5871.28964355,0.00163763
5873.21845093,0.00161581
5875.14725830,0.00163435
5877.07606567,0.00160683
5879.00487305,0.00156130
5880.93368042,0.00156564
5882.86248779,0.00153494
5884.79129517,0.00156166
5886.72010254,0.00163298
5888.64890991,0.00162087
5890.57771728,0.00160197
5892.50652466,0.00158056
5894.43533203,0.00156350
5896.36413940,0.00155022
5898.29294678,0.00155423
5900.22175415,0.00155348
5902.15056152,0.00153851
5904.07936890,0.00154036
5906.00817627,0.00147556
5907.93698364,0.00153123
5909.86579102,0.00165341
5911.79459839,0.00154636
5913.72340576,0.00144646
5915.65221313,0.00152212
5917.58102051,0.00154299
5919.50982788,0.00151722
5921.43863525,0.00152294
5923.36744263,0.00151711
5925.29625000,0.00149968
5927.22505737,0.00147814
5929.15386475,0.00154335
5931.08267212,0.00151993
5933.01147949,0.00151440
5934.94028686,0.00152199
5936.86909424,0.00137456
5938.79790161,0.00145521
5940.72670898,0.00148186
5942.65551636,0.00143929
5944.58432373,0.00151343
5946.51313110,0.00146339
5948.44193848,0.00140397
5950.37074585,0.00138739
5952.29955322,0.00147145
5954.22836060,0.00144271
5956.15716797,0.00139845
5958.08597534,0.00143300
5960.01478271,0.00142907
5961.94359009,0.00143926
5963.87239746,0.00137861
5965.80120483,0.00144735
5967.73001221,0.00138927
5969.65881958,0.00137088
5971.58762695,0.00146248
5973.51643433,0.00135259
5975.44524170,0.00138932
5977.37404907,0.00136446
5979.30285645,0.00137753
5981.23166382,0.00140110
5983.16047119,0.00129624
5985.08927856,0.00136174
5987.01808594,0.00140628
5988.94689331,0.00141990
5990.87570068,0.00137427
5992.80450806,0.00130435
5994.73331543,0.00128381
5996.66212280,0.00131865
5998.59093018,0.00137563
6000.51973755,0.00136137
