399.26312622,-0.00010922
401.19193359,0.00018513
403.12074097,0.00039132
405.04954834,0.00031943
406.97835571,0.00024018
408.90716309,0.00038084
410.83597046,0.00016665
412.76477783,-0.00008500
414.69358521,0.00004924
416.62239258,0.00021061
418.55119995,0.00032929
420.48000732,0.00000354
422.40881470,0.00003481
424.33762207,0.00026918
426.26642944,0.00022009
428.19523682,0.00021262
430.12404419,0.00015513
432.05285156,0.00010196
433.98165894,-0.00008566
435.91046631,0.00012595
437.83927368,0.00011537
439.76808105,0.00027792
441.69688843,0.00043886
443.62569580,-0.00007788
445.55450317,0.00005020
447.48331055,0.00010791
449.41211792,0.00019248
451.34092529,0.00004353
453.26973267,-0.00033590
455.19854004,0.00010796
457.12734741,0.00046966
459.05615479,0.00050502
460.98496216,0.00042221
462.91376953,0.00034204
464.84257690,-0.00000327
466.77138428,0.00015169
468.70019165,0.00064414
470.62899902,0.00011806
472.55780640,0.00006517
474.48661377,0.00022143
476.41542114,0.00022931
478.34422852,0.00014023
480.27303589,-0.00020942
482.20184326,0.00000150
484.13065063,0.00011764
486.05945801,0.00035380
487.98826538,0.00013175
489.91707275,-0.00003870
491.84588013,0.00010366
493.77468750,0.00003749
495.70349487,0.00038959
497.63230225,-0.00007758
499.56110962,-0.00006935
501.48991699,0.00017054
503.41872437,0.00006211
505.34753174,0.00030894
507.27633911,-0.00016212
509.20514648,0.00019881
511.13395386,0.00028351
513.06276123,-0.00015931
514.99156860,0.00015820
516.92037598,0.00014584
518.84918335,0.00033960
520.77799072,0.00020123
522.70679810,0.00005975
524.63560547,0.00021942
526.56441284,0.00031827
528.49322021,0.00031737
530.42202759,-0.00013437
532.35083496,-0.00003142
534.27964233,0.00001828
536.20844971,0.00005735
538.13725708,0.00023027
540.06606445,0.00016407
541.99487183,0.00032690
543.92367920,0.00009418
545.85248657,0.00004519
547.78129395,0.00035468
549.71010132,0.00018368
551.63890869,0.00013794
553.56771606,0.00033866
555.49652344,0.00002243
557.42533081,-0.00003508
559.35413818,-0.00003613
561.28294556,-0.00000239
563.21175293,0.00049469
565.14056030,0.00007485
567.06936768,-0.00003435
568.99817505,0.00012411
570.92698242,-0.00008527
572.85578979,0.00018637
574.78459717,0.00012529
576.71340454,0.00015007
578.64221191,0.00008465
580.57101929,-0.00010420
582.49982666,0.00003495
584.42863403,0.00007772
586.35744141,0.00019795
588.28624878,0.00038584
590.21505615,0.00021277
592.14386353,0.00000128
594.07267090,0.00041366
596.00147827,0.00031842
597.93028564,-0.00014022
599.85909302,0.00000201
601.78790039,0.00012635
603.71670776,0.00004763
605.64551514,-0.00007566
607.57432251,0.00010025
609.50312988,0.00026280
611.43193726,0.00003119
613.36074463,-0.00015870
615.28955200,0.00009324
617.21835938,0.00039107
619.14716675,0.00011661
621.07597412,0.00008267
623.00478149,0.00020421
624.93358887,0.00010389
626.86239624,0.00017968
628.79120361,0.00021162
630.72001099,0.00008777
632.64881836,0.00004846
634.57762573,0.00005718
636.50643311,0.00003577
638.43524048,0.00014595
640.36404785,0.00005317
642.29285522,0.00007732
644.22166260,0.00011573
646.15046997,0.00009302
648.07927734,0.00036781
650.00808472,0.00020775
651.93689209,0.00027903
653.86569946,0.00044565
655.79450684,0.00002907
657.72331421,-0.00001223
659.65212158,0.00007954
661.58092896,0.00020781
663.50973633,0.00017442
665.43854370,-0.00008586
667.36735107,0.00010716
669.29615845,0.00014031
671.22496582,0.00009420
673.15377319,0.00026367
675.08258057,0.00016156
677.01138794,0.00006265
678.94019531,0.00011567
680.86900269,0.00007690
682.79781006,0.00013986
684.72661743,0.00038545
686.65542480,0.00030408
688.58423218,0.00022404
690.51303955,0.00031665
692.44184692,0.00021775
694.37065430,0.00025072
696.29946167,0.00012874
698.22826904,0.00025414
700.15707642,0.00042076
702.08588379,0.00008789
704.01469116,0.00035136
705.94349854,0.00031196
707.87230591,0.00007912
709.80111328,0.00018635
711.72992065,0.00005979
713.65872803,0.00010661
715.58753540,-0.00002841
717.51634277,0.00030030
719.44515015,0.00040137
721.37395752,-0.00010098
723.30276489,0.00007747
725.23157227,0.00026491
727.16037964,0.00025314
729.08918701,0.00019130
731.01799438,0.00014942
732.94680176,0.00003742
734.87560913,0.00002812
736.80441650,0.00008879
738.73322388,0.00014823
740.66203125,0.00018079
742.59083862,0.00003169
744.51964600,0.00023113
746.44845337,0.00000992
748.37726074,0.00008629
750.30606812,0.00036078
752.23487549,0.00007203
754.16368286,0.00041278
756.09249023,0.00021254
758.02129761,-0.00004199
759.95010498,0.00018792
761.87891235,0.00021525
763.80771973,0.00023549
765.73652710,0.00004795
767.66533447,0.00021287
769.59414185,0.00019410
771.52294922,0.00017230
773.45175659,0.00027171
775.38056396,0.00023252
777.30937134,0.00020038
779.23817871,0.00008822
781.16698608,0.00035141
783.09579346,0.00012918
785.02460083,0.00006690
786.95340820,0.00024540
788.88221558,-0.00001198
790.81102295,0.00017833
792.73983032,0.00011270
794.66863770,0.00007301
796.59744507,0.00039109
798.52625244,0.00025225
800.45505981,0.00010739
802.38386719,0.00012134
804.31267456,-0.00006336
806.24148193,0.00017025
808.17028931,0.00030781
810.09909668,0.00019990
812.02790405,0.00036828
813.95671143,-0.00010138
815.88551880,0.00012428
817.81432617,0.00037208
819.74313354,0.00002815
821.67194092,0.00036201
823.60074829,0.00011895
825.52955566,0.00030716
827.45836304,0.00040937
829.38717041,0.00014170
831.31597778,0.00044063
833.24478516,0.00008639
835.17359253,0.00011068
837.10239990,0.00030539
839.03120728,0.00021646
840.96001465,0.00015331
842.88882202,0.00007800
844.81762939,0.00028186
846.74643677,0.00020062
848.67524414,0.00025350
850.60405151,0.00030306
852.53285889,0.00019320
854.46166626,0.00015154
856.39047363,0.00011241
858.31928101,0.00019620
860.24808838,0.00015373
862.17689575,0.00017104
864.10570313,0.00023022
866.03451050,0.00018446
867.96331787,0.00005151
869.89212524,0.00010675
871.82093262,0.00021381
873.74973999,0.00029076
875.67854736,0.00030342
877.60735474,0.00012443
879.53616211,0.00019923
881.46496948,0.00024757
883.39377686,0.00020890
885.32258423,0.00013814
887.25139160,0.00019952
889.18019897,0.00022619
891.10900635,0.00004003
893.03781372,0.00014878
894.96662109,0.00020217
896.89542847,0.00027160
898.82423584,0.00031924
900.75304321,0.00032977
902.68185059,0.00026614
904.61065796,0.00011390
906.53946533,0.00028349
908.46827271,0.00031620
910.39708008,0.00025795
912.32588745,0.00023394
914.25469482,0.00026806
916.18350220,0.00035049
918.11230957,0.00021229
920.04111694,0.00011465
921.96992432,0.00017181
923.89873169,0.00021515
925.82753906,0.00018215
927.75634644,0.00017286
929.68515381,0.00016652
931.61396118,0.00032110
933.54276855,0.00043928
935.47157593,0.00041527
937.40038330,0.00040147
939.32919067,0.00028286
941.25799805,0.00028266
943.18680542,0.00020280
945.11561279,0.00032011
947.04442017,0.00067171
948.97322754,0.00063785
950.90203491,0.00036332
952.83084229,0.00029201
954.75964966,0.00045929
956.68845703,0.00020722
958.61726440,0.00011367
960.54607178,0.00033164
962.47487915,0.00016761
964.40368652,0.00024980
966.33249390,0.00032708
968.26130127,0.00029305
970.19010864,0.00050423
972.11891602,0.00039380
974.04772339,0.00047569
975.97653076,0.00067875
977.90533813,0.00030667
979.83414551,0.00041635
981.76295288,0.00046061
983.69176025,0.00011040
985.62056763,0.00046223
987.54937500,0.00057133
989.47818237,0.00049213
991.40698975,0.00054253
993.33579712,0.00039389
995.26460449,0.00047543
997.19341187,0.00050089
999.12221924,0.00037580
1001.05102661,0.00049665
1002.97983398,0.00069213
1004.90864136,0.00070561
1006.83744873,0.00080162
1008.76625610,0.00081332
1010.69506348,0.00070571
1012.62387085,0.00069982
1014.55267822,0.00089517
1016.48148560,0.00106991
1018.41029297,0.00104134
1020.33910034,0.00112245
1022.26790771,0.00092319
1024.19671509,0.00104912
1026.12552246,0.00123681
1028.05432983,0.00094846
1029.98313721,0.00125780
1031.91194458,0.00139421
1033.84075195,0.00117113
1035.76955933,0.00105614
1037.69836670,0.00112138
1039.62717407,0.00136326
1041.55598145,0.00129421
1043.48478882,0.00125816
1045.41359619,0.00117547
1047.34240356,0.00118412
1049.27121094,0.00127944
1051.20001831,0.00111510
1053.12882568,0.00098458
1055.05763306,0.00103493
1056.98644043,0.00126219
1058.91524780,0.00130470
1060.84405518,0.00128322
1062.77286255,0.00119021
1064.70166992,0.00111614
1066.63047729,0.00119312
1068.55928467,0.00103254
1070.48809204,0.00115231
1072.41689941,0.00116301
1074.34570679,0.00099701
1076.27451416,0.00121892
1078.20332153,0.00092295
1080.13212891,0.00069359
1082.06093628,0.00096130
1083.98974365,0.00098420
1085.91855103,0.00102409
1087.84735840,0.00088985
1089.77616577,0.00076487
1091.70497314,0.00075339
1093.63378052,0.00079943
1095.56258789,0.00097124
1097.49139526,0.00067609
1099.42020264,0.00068360
1101.34901001,0.00084401
1103.27781738,0.00067889
1105.20662476,0.00072317
1107.13543213,0.00066616
1109.06423950,0.00063334
1110.99304687,0.00042046
1112.92185425,0.00056613
1114.85066162,0.00081315
1116.77946899,0.00053470
1118.70827637,0.00079110
1120.63708374,0.00073109
1122.56589111,0.00067221
1124.49469849,0.00101552
1126.42350586,0.00077935
1128.35231323,0.00062067
1130.28112061,0.00066855
1132.20992798,0.00090974
1134.13873535,0.00095176
1136.06754272,0.00078965
1137.99635010,0.00087150
1139.92515747,0.00089590
1141.85396484,0.00093345
1143.78277222,0.00085200
1145.71157959,0.00102316
1147.64038696,0.00111683
1149.56919434,0.00088105
1151.49800171,0.00104672
1153.42680908,0.00118688
1155.35561646,0.00117755
1157.28442383,0.00111631
1159.21323120,0.00102120
1161.14203857,0.00108526
1163.07084595,0.00118433
1164.99965332,0.00121599
1166.92846069,0.00121295
1168.85726807,0.00141831
1170.78607544,0.00146058
1172.71488281,0.00137881
1174.64369019,0.00152071
1176.57249756,0.00149147
1178.50130493,0.00156056
1180.43011230,0.00175068
1182.35891968,0.00186202
1184.28772705,0.00200931
1186.21653442,0.00188817
1188.14534180,0.00190077
1190.07414917,0.00212838
1192.00295654,0.00219342
1193.93176392,0.00221881
1195.86057129,0.00225677
1197.78937866,0.00243684
1199.71818604,0.00257202
1201.64699341,0.00264584
1203.57580078,0.00271222
1205.50460815,0.00284438
1207.43341553,0.00289780
1209.36222290,0.00293471
1211.29103027,0.00327532
1213.21983765,0.00315142
1215.14864502,0.00317152
1217.07745239,0.00338769
1219.00625977,0.00324223
1220.93506714,0.00348804
1222.86387451,0.00353551
1224.79268188,0.00344335
1226.72148926,0.00348203
1228.65029663,0.00358737
1230.57910400,0.00362816
1232.50791138,0.00348158
1234.43671875,0.00361006
1236.36552612,0.00369982
1238.29433350,0.00381586
1240.22314087,0.00358607
1242.15194824,0.00349090
1244.08075562,0.00364949
1246.00956299,0.00335903
1247.93837036,0.00361580
1249.86717773,0.00373691
1251.79598511,0.00341799
1253.72479248,0.00340762
1255.65359985,0.00351472
1257.58240723,0.00351574
1259.51121460,0.00345915
1261.44002197,0.00347449
1263.36882935,0.00339747
1265.29763672,0.00351499
1267.22644409,0.00341766
1269.15525146,0.00329302
1271.08405884,0.00323056
1273.01286621,0.00308899
1274.94167358,0.00315755
1276.87048096,0.00285705
1278.79928833,0.00303182
1280.72809570,0.00313954
1282.65690308,0.00273672
1284.58571045,0.00289946
1286.51451782,0.00294428
1288.44332520,0.00273644
1290.37213257,0.00269829
1292.30093994,0.00289344
1294.22974731,0.00294397
1296.15855469,0.00290270
1298.08736206,0.00287378
1300.01616943,0.00288134
1301.94497681,0.00291834
1303.87378418,0.00269316
1305.80259155,0.00283079
1307.73139893,0.00285077
1309.66020630,0.00285650
1311.58901367,0.00308394
1313.51782104,0.00304330
1315.44662842,0.00316495
1317.37543579,0.00319123
1319.30424316,0.00334838
1321.23305054,0.00343552
1323.16185791,0.00336199
1325.09066528,0.00366565
1327.01947266,0.00379764
1328.94828003,0.00368194
1330.87708740,0.00386910
1332.80589478,0.00401087
1334.73470215,0.00381819
1336.66350952,0.00402351
1338.59231689,0.00404737
1340.52112427,0.00407499
1342.44993164,0.00435022
1344.37873901,0.00406975
1346.30754639,0.00412141
1348.23635376,0.00420320
1350.16516113,0.00406136
1352.09396851,0.00407041
1354.02277588,0.00406488
1355.95158325,0.00414681
1357.88039062,0.00424895
1359.80919800,0.00419670
1361.73800537,0.00383363
1363.66681274,0.00400693
1365.59562012,0.00405721
1367.52442749,0.00383478
1369.45323486,0.00410569
1371.38204224,0.00395911
1373.31084961,0.00381225
1375.23965698,0.00381225
1377.16846436,0.00386270
1379.09727173,0.00392498
1381.02607910,0.00397938
1382.95488647,0.00416393
1384.88369385,0.00389915
1386.81250122,0.00387260
1388.74130859,0.00396423
1390.67011597,0.00411804
1392.59892334,0.00426244
1394.52773071,0.00399316
1396.45653809,0.00415263
1398.38534546,0.00400482
1400.31415283,0.00400973
1402.24296021,0.00441187
1404.17176758,0.00410785
1406.10057495,0.00418958
1408.02938232,0.00444420
1409.95818970,0.00434845
1411.88699707,0.00418771
1413.81580444,0.00411467
1415.74461182,0.00431767
1417.67341919,0.00381625
1419.60222656,0.00359739
1421.53103394,0.00405586
1423.45984131,0.00385160
1425.38864868,0.00380237
1427.31745605,0.00386970
1429.24626343,0.00364535
1431.17507080,0.00347642
1433.10387817,0.00346110
1435.03268555,0.00336149
1436.96149292,0.00297742
1438.89030029,0.00318519
1440.81910767,0.00334973
1442.74791504,0.00322865
1444.67672241,0.00330269
1446.60552979,0.00306192
1448.53433716,0.00300417
1450.46314453,0.00308620
1452.39195190,0.00336727
1454.32075928,0.00336976
1456.24956665,0.00283491
1458.17837402,0.00314890
1460.10718140,0.00372011
1462.03598877,0.00403104
1463.96479614,0.00416384
1465.89360352,0.00413154
1467.82241089,0.00475629
1469.75121826,0.00491596
1471.68002563,0.00439206
1473.60883301,0.00472279
1475.53764038,0.00517047
1477.46644775,0.00550244
1479.39525513,0.00603896
1481.32406250,0.00609950
1483.25286987,0.00643499
1485.18167725,0.00672758
1487.11048462,0.00650838
1489.03929199,0.00649133
1490.96809937,0.00667963
1492.89690674,0.00749215
1494.82571411,0.00744572
1496.75452148,0.00686373
1498.68332886,0.00750495
1500.61213623,0.00771446
1502.54094360,0.00834756
1504.46975098,0.00789947
1506.39855835,0.00594455
1508.32736572,0.00727357
1510.25617310,0.00830601
1512.18498047,0.00798547
1514.11378784,0.00854085
1516.04259521,0.00784713
1517.97140259,0.00824200
1519.90020996,0.00785956
1521.82901733,0.00710407
1523.75782471,0.00854998
1525.68663208,0.00835296
1527.61543945,0.00832854
1529.54424683,0.00906259
1531.47305420,0.00880441
1533.40186157,0.00807802
1535.33066895,0.00863102
1537.25947632,0.00918958
1539.18828369,0.00683058
1541.11709106,0.00719098
1543.04589844,0.00824836
1544.97470581,0.00802583
1546.90351318,0.00937634
1548.83232056,0.00877011
1550.76112793,0.00917435
1552.68993530,0.00913177
1554.61874268,0.00834189
1556.54755005,0.00878421
1558.47635742,0.00648939
1560.40516479,0.00710859
1562.33397217,0.00952299
1564.26277954,0.00895862
1566.19158691,0.00935217
1568.12039429,0.00914187
1570.04920166,0.00825282
1571.97800903,0.00952104
1573.90681641,0.00946915
1575.83562378,0.00772459
1577.76443115,0.00868753
1579.69323853,0.00983517
1581.62204590,0.00944274
1583.55085327,0.00953507
1585.47966064,0.00946064
1587.40846802,0.00968257
1589.33727539,0.00966093
1591.26608276,0.00950391
1593.19489014,0.00983203
1595.12369751,0.00955383
1597.05250488,0.00943978
1598.98131226,0.00971549
1600.91011963,0.00948673
1602.83892700,0.00937876
1604.76773437,0.00953271
1606.69654175,0.00936125
1608.62534912,0.00962015
1610.55415649,0.00949323
1612.48296387,0.00959839
1614.41177124,0.00970230
1616.34057861,0.00816648
1618.26938599,0.00880624
1620.19819336,0.00991594
1622.12700073,0.00895294
1624.05580811,0.00896644
1625.98461548,0.00941064
1627.91342285,0.00946099
1629.84223022,0.00944053
1631.77103760,0.01000000
1633.69984497,0.00923816
1635.62865234,0.00776002
1637.55745972,0.00904722
1639.48626709,0.00983931
1641.41507446,0.00942652
1643.34388184,0.00985837
1645.27268921,0.00897563
1647.20149658,0.00792349
1649.13030396,0.00972171
1651.05911133,0.00925953
1652.98791870,0.00632767
1654.91672607,0.00827825
1656.84553345,0.01023450
1658.77434082,0.00973846
1660.70314819,0.01000729
1662.63195557,0.00929456
1664.56076294,0.00976828
1666.48957031,0.01040189
1668.41837769,0.00913583
1670.34718506,0.00895758
1672.27599243,0.00994655
1674.20479980,0.00937435
1676.13360718,0.00905819
1678.06241455,0.01030163
1679.99122192,0.01009790
1681.92002930,0.00972501
1683.84883667,0.00806571
1685.77764404,0.00811187
1687.70645142,0.01077723
1689.63525879,0.00945695
1691.56406616,0.01036419
1693.49287354,0.01045868
1695.42168091,0.00780893
1697.35048828,0.00968427
1699.27929565,0.00849667
1701.20810303,0.00786165
1703.13691040,0.01025159
1705.06571777,0.00930151
1706.99452515,0.00969222
1708.92333252,0.01038930
1710.85213989,0.01005893
1712.78094727,0.01013793
1714.70975464,0.00946648
1716.63856201,0.00862048
1718.56736938,0.00855585
1720.49617676,0.01010795
1722.42498413,0.01016240
1724.35379150,0.00973367
1726.28259888,0.01045144
1728.21140625,0.00957047
1730.14021362,0.00993855
1732.06902100,0.00953928
1733.99782837,0.00759681
1735.92663574,0.00931515
1737.85544312,0.01004654
1739.78425049,0.00904061
1741.71305786,0.00981425
1743.64186523,0.00997063
1745.57067261,0.00995075
1747.49947998,0.01013859
1749.42828735,0.00971678
1751.35709473,0.00929954
1753.28590210,0.01016595
1755.21470947,0.01045767
1757.14351685,0.00978050
1759.07232422,0.01080048
1761.00113159,0.01002910
1762.92993896,0.00976395
1764.85874634,0.01110281
1766.78755371,0.00995026
1768.71636108,0.01026154
1770.64516846,0.01030024
1772.57397583,0.00925219
1774.50278320,0.01021668
1776.43159058,0.01072592
1778.36039795,0.01053400
1780.28920532,0.01034162
1782.21801270,0.01059359
1784.14682007,0.01056256
1786.07562744,0.01036269
1788.00443481,0.01093626
1789.93324219,0.01045304
1791.86204956,0.00959514
1793.79085693,0.01005526
1795.71966431,0.01079531
1797.64847168,0.01075379
1799.57727905,0.01043264
1801.50608643,0.01032033
1803.43489380,0.01067702
1805.36370117,0.01086948
1807.29250854,0.01079972
1809.22131592,0.01084403
1811.15012329,0.01057033
1813.07893066,0.01087917
1815.00773804,0.01097023
1816.93654541,0.01083924
1818.86535278,0.01091625
1820.79416016,0.01087088
1822.72296753,0.01096127
1824.65177490,0.01033972
1826.58058228,0.01080777
1828.50938965,0.01081177
1830.43819702,0.01013151
1832.36700439,0.01109247
1834.29581177,0.01110517
1836.22461914,0.01099524
1838.15342651,0.01091435
1840.08223389,0.01094578
1842.01104126,0.01094943
1843.93984863,0.00984817
1845.86865601,0.01045491
1847.79746338,0.01107142
1849.72627075,0.01093862
1851.65507812,0.01114432
1853.58388550,0.01099084
1855.51269287,0.01106293
1857.44150024,0.01080599
1859.37030762,0.01094487
1861.29911499,0.01107316
1863.22792236,0.01083323
1865.15672974,0.01105122
1867.08553711,0.01069123
1869.01434448,0.01022164
1870.94315186,0.01059046
1872.87195923,0.01113007
1874.80076660,0.01101596
1876.72957397,0.01095006
1878.65838135,0.01106680
1880.58718872,0.01093753
1882.51599609,0.01094870
1884.44480347,0.01089279
1886.37361084,0.01098907
1888.30241821,0.01082896
1890.23122559,0.01067658
1892.16003296,0.01092842
1894.08884033,0.01075686
1896.01764771,0.01089731
1897.94645508,0.01102703
1899.87526245,0.01091268
1901.80406982,0.01099814
1903.73287720,0.01078004
1905.66168457,0.01090715
1907.59049194,0.01091014
1909.51929932,0.01073756
1911.44810669,0.01089538
1913.37691406,0.01089727
1915.30572144,0.01100706
1917.23452881,0.01059362
1919.16333618,0.01053907
1921.09214355,0.01103475
1923.02095093,0.01072779
1924.94975830,0.01078074
1926.87856567,0.01095749
1928.80737305,0.01090274
1930.73618042,0.01090844
1932.66498779,0.01086260
1934.59379517,0.01102821
1936.52260254,0.01090126
1938.45140991,0.01096464
1940.38021729,0.01093138
1942.30902466,0.01067688
1944.23783203,0.01083343
1946.16663940,0.01097289
1948.09544678,0.01106183
1950.02425415,0.01091129
1951.95306152,0.01097063
1953.88186890,0.01108405
1955.81067627,0.01091486
1957.73948364,0.01101359
1959.66829102,0.01108026
1961.59709839,0.01106060
1963.52590576,0.01099028
1965.45471313,0.01090302
1967.38352051,0.01084482
1969.31232788,0.01096931
1971.24113525,0.01107791
1973.16994263,0.01099419
1975.09875000,0.01101910
1977.02755737,0.01090284
1978.95636475,0.01096895
1980.88517212,0.01096304
1982.81397949,0.01094465
1984.74278687,0.01109187
1986.67159424,0.01093478
1988.60040161,0.01099179
1990.52920898,0.01084089
1992.45801636,0.01074498
1994.38682373,0.01097652
1996.31563110,0.01092462
1998.24443848,0.01092971
2000.17324585,0.01095886
2002.10205322,0.01097433
2004.03086060,0.01083089
2005.95966797,0.01072511
2007.88847534,0.01083250
2009.81728271,0.01093983
2011.74609009,0.01094856
2013.67489746,0.01083765
2015.60370483,0.01091617
2017.53251221,0.01078133
2019.46131958,0.01068867
2021.39012695,0.01080858
2023.31893433,0.01081575
2025.24774170,0.01085637
2027.17654907,0.01070076
2029.10535645,0.01065633
2031.03416382,0.01068133
2032.96297119,0.01072652
2034.89177856,0.01080604
2036.82058594,0.01075461
2038.74939331,0.01079363
2040.67820068,0.01071896
2042.60700806,0.01065860
2044.53581543,0.01059572
2046.46462280,0.01059447
2048.39343018,0.01061129
2050.32223755,0.01051138
2052.25104492,0.01061931
2054.17985229,0.01064317
2056.10865967,0.01061268
2058.03746704,0.01054366
2059.96627441,0.01055181
2061.89508179,0.01068464
2063.82388916,0.01053639
2065.75269653,0.01047125
2067.68150391,0.01050383
2069.61031128,0.01044706
2071.53911865,0.01045632
2073.46792603,0.01049980
2075.39673340,0.01043318
2077.32554077,0.01043111
2079.25434814,0.01058642
2081.18315552,0.01053741
2083.11196289,0.01053170
2085.04077026,0.01061692
2086.96957764,0.01050057
2088.89838501,0.01040591
2090.82719238,0.01042593
2092.75599976,0.01036695
2094.68480713,0.01032959
2096.61361450,0.01043415
2098.54242187,0.01045035
2100.47122925,0.01043396
2102.40003662,0.01038083
2104.32884399,0.01043059
2106.25765137,0.01049306
2108.18645874,0.01034530
2110.11526611,0.01041411
2112.04407349,0.01041542
2113.97288086,0.01033544
2115.90168823,0.01037283
2117.83049561,0.01031335
2119.75930298,0.01035998
2121.68811035,0.01033970
2123.61691772,0.01019630
2125.54572510,0.01015965
2127.47453247,0.01028340
2129.40333984,0.01029394
2131.33214722,0.01031061
2133.26095459,0.01048675
2135.18976196,0.01024766
2137.11856934,0.01016179
2139.04737671,0.01037507
2140.97618408,0.01028962
2142.90499146,0.01024908
2144.83379883,0.01024565
2146.76260620,0.01034811
2148.69141357,0.01033716
2150.62022095,0.01010766
2152.54902832,0.01018430
2154.47783569,0.01022465
2156.40664307,0.01024970
2158.33545044,0.01032683
2160.26425781,0.01019437
2162.19306519,0.01023226
2164.12187256,0.01030038
2166.05067993,0.01023901
2167.97948730,0.01025334
2169.90829468,0.01028571
2171.83710205,0.01027796
2173.76590942,0.01016684
2175.69471680,0.01012818
2177.62352417,0.01022334
2179.55233154,0.01019444
2181.48113892,0.01017005
2183.40994629,0.01024215
2185.33875366,0.01017796
2187.26756104,0.01019336
2189.19636841,0.01025518
2191.12517578,0.01019864
2193.05398315,0.01020546
2194.98279053,0.01009233
2196.91159790,0.01010916
2198.84040527,0.01014166
2200.76921265,0.01007298
2202.69802002,0.01024284
2204.62682739,0.01022291
2206.55563477,0.01020763
2208.48444214,0.01016714
2210.41324951,0.01008521
2212.34205688,0.01020036
2214.27086426,0.01013986
2216.19967163,0.01020224
2218.12847900,0.01020343
2220.05728638,0.01007224
2221.98609375,0.00999330
2223.91490112,0.00998414
2225.84370850,0.01019585
2227.77251587,0.01010418
2229.70132324,0.01003973
2231.63013062,0.01016036
2233.55893799,0.01005095
2235.48774536,0.01002005
2237.41655273,0.01003674
2239.34536011,0.00999736
2241.27416748,0.01008269
2243.20297485,0.01010764
2245.13178223,0.00994032
2247.06058960,0.00992012
2248.98939697,0.01001749
2250.91820435,0.01003172
2252.84701172,0.00990557
2254.77581909,0.00990409
2256.70462646,0.00999791
2258.63343384,0.00992062
2260.56224121,0.01006235
2262.49104858,0.01002109
2264.41985596,0.00991707
2266.34866333,0.00999590
2268.27747070,0.00990727
2270.20627808,0.00994800
2272.13508545,0.00986450
2274.06389282,0.00990227
2275.99270020,0.01000421
2277.92150757,0.00988739
2279.85031494,0.00990056
2281.77912231,0.00991730
2283.70792969,0.00989825
2285.63673706,0.00979728
2287.56554443,0.00980563
2289.49435181,0.00981621
2291.42315918,0.00986074
2293.35196655,0.00986017
2295.28077393,0.00978050
2297.20958130,0.00995424
2299.13838867,0.00979135
2301.06719604,0.00966338
2302.99600342,0.00973967
2304.92481079,0.00969066
2306.85361816,0.00964064
2308.78242554,0.00958643
2310.71123291,0.00966035
2312.64004028,0.00948707
2314.56884766,0.00941724
2316.49765503,0.00932354
2318.42646240,0.00907604
2320.35526978,0.00910089
2322.28407715,0.00892754
2324.21288452,0.00878583
2326.14169189,0.00878562
2328.07049927,0.00872285
2329.99930664,0.00857743
2331.92811401,0.00850824
2333.85692139,0.00854823
2335.78572876,0.00851975
2337.71453613,0.00849380
2339.64334351,0.00843093
2341.57215088,0.00862743
2343.50095825,0.00872261
2345.42976562,0.00873890
2347.35857300,0.00912436
2349.28738037,0.00940735
2351.21618774,0.00914243
2353.14499512,0.00859902
2355.07380249,0.00848436
2357.00260986,0.00827378
2358.93141724,0.00803981
2360.86022461,0.00809040
2362.78903198,0.00798598
2364.71783936,0.00805562
2366.64664673,0.00822552
2368.57545410,0.00837092
2370.50426147,0.00845293
2372.43306885,0.00871404
2374.36187622,0.00896669
2376.29068359,0.00908136
2378.21949097,0.00935616
2380.14829834,0.00938608
2382.07710571,0.00955315
2384.00591309,0.00962437
2385.93472046,0.00960319
2387.86352783,0.00976844
2389.79233521,0.00970127
2391.72114258,0.00975641
2393.64994995,0.00965021
2395.57875732,0.00958291
2397.50756470,0.00974903
2399.43637207,0.00970529
2401.36517944,0.00959862
2403.29398682,0.00957020
2405.22279419,0.00966770
2407.15160156,0.00963033
2409.08040894,0.00955693
2411.00921631,0.00957969
2412.93802368,0.00966598
2414.86683105,0.00965383
2416.79563843,0.00958810
2418.72444580,0.00962629
2420.65325317,0.00949403
2422.58206055,0.00954647
2424.51086792,0.00957861
2426.43967529,0.00947287
2428.36848267,0.00955845
2430.29729004,0.00950587
2432.22609741,0.00944052
2434.15490479,0.00950307
2436.08371216,0.00952842
2438.01251953,0.00946734
2439.94132690,0.00953823
2441.87013428,0.00951770
2443.79894165,0.00939565
2445.72774902,0.00948057
2447.65655640,0.00943402
2449.58536377,0.00949966
2451.51417114,0.00956092
2453.44297852,0.00937435
2455.37178589,0.00938454
2457.30059326,0.00951862
2459.22940063,0.00947656
2461.15820801,0.00936994
2463.08701538,0.00945250
2465.01582275,0.00942726
2466.94463013,0.00938648
2468.87343750,0.00944387
2470.80224487,0.00939003
2472.73105225,0.00943618
2474.65985962,0.00939422
2476.58866699,0.00936367
2478.51747437,0.00949628
2480.44628174,0.00944570
2482.37508911,0.00936422
2484.30389648,0.00939812
2486.23270386,0.00930586
2488.16151123,0.00931390
2490.09031860,0.00951660
2492.01912598,0.00939650
2493.94793335,0.00921918
2495.87674072,0.00934129
2497.80554810,0.00943828
2499.73435547,0.00936831
2501.66316284,0.00924276
2503.59197021,0.00921223
2505.52077759,0.00930880
2507.44958496,0.00942151
2509.37839233,0.00938790
2511.30719971,0.00934701
2513.23600708,0.00929549
2515.16481445,0.00921058
2517.09362183,0.00926251
2519.02242920,0.00926594
2520.95123657,0.00922660
2522.88004395,0.00920475
2524.80885132,0.00928673
2526.73765869,0.00937346
2528.66646606,0.00928690
2530.59527344,0.00925522
2532.52408081,0.00925788
2534.45288818,0.00929135
2536.38169556,0.00925005
2538.31050293,0.00915105
2540.23931030,0.00920055
2542.16811768,0.00923581
2544.09692505,0.00921142
2546.02573242,0.00922011
2547.95453979,0.00924446
2549.88334717,0.00918257
2551.81215454,0.00921935
2553.74096191,0.00925885
2555.66976929,0.00916595
2557.59857666,0.00921992
2559.52738403,0.00927494
2561.45619141,0.00918965
2563.38499878,0.00908201
2565.31380615,0.00911160
2567.24261353,0.00908273
2569.17142090,0.00906267
2571.10022827,0.00910578
2573.02903564,0.00899632
2574.95784302,0.00908381
2576.88665039,0.00903965
2578.81545776,0.00907277
2580.74426514,0.00924133
2582.67307251,0.00901928
2584.60187988,0.00903405
2586.53068726,0.00905335
2588.45949463,0.00903503
2590.38830200,0.00917079
2592.31710937,0.00908929
2594.24591675,0.00899428
2596.17472412,0.00901892
2598.10353149,0.00905584
2600.03233887,0.00892193
2601.96114624,0.00899749
2603.88995361,0.00908117
2605.81876099,0.00895219
2607.74756836,0.00900258
2609.67637573,0.00901764
2611.60518311,0.00898564
2613.53399048,0.00896392
2615.46279785,0.00907230
2617.39160522,0.00894086
2619.32041260,0.00882744
2621.24921997,0.00899445
2623.17802734,0.00882134
2625.10683472,0.00886142
2627.03564209,0.00893944
2628.96444946,0.00898037
2630.89325684,0.00899205
2632.82206421,0.00881356
2634.75087158,0.00896683
2636.67967895,0.00896465
2638.60848633,0.00894505
2640.53729370,0.00884554
2642.46610107,0.00882856
2644.39490845,0.00905736
2646.32371582,0.00889482
2648.25252319,0.00886183
2650.18133057,0.00884605
2652.11013794,0.00882193
2654.03894531,0.00881531
2655.96775269,0.00886102
2657.89656006,0.00899611
2659.82536743,0.00885065
2661.75417480,0.00892240
2663.68298218,0.00877471
2665.61178955,0.00870915
2667.54059692,0.00881157
2669.46940430,0.00863954
2671.39821167,0.00888919
2673.32701904,0.00887889
2675.25582642,0.00881719
2677.18463379,0.00889206
2679.11344116,0.00875713
2681.04224854,0.00890322
2682.97105591,0.00880215
2684.89986328,0.00867809
2686.82867065,0.00877485
2688.75747803,0.00879074
2690.68628540,0.00883072
2692.61509277,0.00875582
2694.54390015,0.00869981
2696.47270752,0.00869114
2698.40151489,0.00873281
2700.33032227,0.00872287
2702.25912964,0.00861275
2704.18793701,0.00864285
2706.11674438,0.00860558
2708.04555176,0.00856622
2709.97435913,0.00867359
2711.90316650,0.00870481
2713.83197388,0.00869424
2715.76078125,0.00869913
2717.68958862,0.00864348
2719.61839600,0.00857683
2721.54720337,0.00863071
2723.47601074,0.00862586
2725.40481812,0.00852584
2727.33362549,0.00851518
2729.26243286,0.00850322
2731.19124023,0.00860905
2733.12004761,0.00859672
2735.04885498,0.00844451
2736.97766235,0.00853984
2738.90646973,0.00852432
2740.83527710,0.00849051
2742.76408447,0.00850308
2744.69289185,0.00842903
2746.62169922,0.00854727
2748.55050659,0.00854592
2750.47931396,0.00841834
2752.40812134,0.00848819
2754.33692871,0.00851511
2756.26573608,0.00841961
2758.19454346,0.00844124
2760.12335083,0.00845023
2762.05215820,0.00842584
2763.98096558,0.00841499
2765.90977295,0.00834009
2767.83858032,0.00842894
2769.76738770,0.00833816
2771.69619507,0.00828501
2773.62500244,0.00849935
2775.55380981,0.00839380
2777.48261719,0.00837944
2779.41142456,0.00839521
2781.34023193,0.00835433
2783.26903931,0.00843861
2785.19784668,0.00831118
2787.12665405,0.00832676
2789.05546143,0.00833946
2790.98426880,0.00829889
2792.91307617,0.00836314
2794.84188354,0.00822370
2796.77069092,0.00820240
2798.69949829,0.00821574
2800.62830566,0.00817466
2802.55711304,0.00822395
2804.48592041,0.00817811
2806.41472778,0.00819475
2808.34353516,0.00819829
2810.27234253,0.00817862
2812.20114990,0.00816094
2814.12995728,0.00811367
2816.05876465,0.00820815
2817.98757202,0.00813430
2819.91637939,0.00805030
2821.84518677,0.00814766
2823.77399414,0.00810529
2825.70280151,0.00803468
2827.63160889,0.00800775
2829.56041626,0.00798880
2831.48922363,0.00800155
2833.41803101,0.00809046
2835.34683838,0.00808951
2837.27564575,0.00799373
2839.20445312,0.00798776
2841.13326050,0.00800766
2843.06206787,0.00806285
2844.99087524,0.00794880
2846.91968262,0.00787812
2848.84848999,0.00793050
2850.77729736,0.00789210
2852.70610474,0.00789026
2854.63491211,0.00780170
2856.56371948,0.00780905
2858.49252686,0.00785805
2860.42133423,0.00796638
2862.35014160,0.00795052
2864.27894897,0.00769947
2866.20775635,0.00784731
2868.13656372,0.00782933
2870.06537109,0.00772800
2871.99417847,0.00790974
2873.92298584,0.00786932
2875.85179321,0.00790311
2877.78060059,0.00791896
2879.70940796,0.00777959
2881.63821533,0.00775237
2883.56702270,0.00781948
2885.49583008,0.00782114
2887.42463745,0.00773917
2889.35344482,0.00773764
2891.28225220,0.00778008
2893.21105957,0.00774318
2895.13986694,0.00766034
2897.06867432,0.00769133
2898.99748169,0.00766742
2900.92628906,0.00757879
2902.85509644,0.00753783
2904.78390381,0.00758199
2906.71271118,0.00767700
2908.64151855,0.00757581
2910.57032593,0.00752266
2912.49913330,0.00751809
2914.42794067,0.00753154
2916.35674805,0.00745412
2918.28555542,0.00733004
2920.21436279,0.00754548
2922.14317017,0.00747858
2924.07197754,0.00734656
2926.00078491,0.00748382
2927.92959229,0.00742047
2929.85839966,0.00741776
2931.78720703,0.00742919
2933.71601440,0.00735851
2935.64482178,0.00741350
2937.57362915,0.00746479
2939.50243652,0.00741310
2941.43124390,0.00747282
2943.36005127,0.00754152
2945.28885864,0.00747644
2947.21766602,0.00744533
2949.14647339,0.00742830
2951.07528076,0.00743361
2953.00408813,0.00733552
2954.93289551,0.00734119
2956.86170288,0.00742409
2958.79051025,0.00737561
2960.71931763,0.00735819
2962.64812500,0.00724576
2964.57693237,0.00734884
2966.50573975,0.00741195
2968.43454712,0.00730736
2970.36335449,0.00732039
2972.29216187,0.00722954
2974.22096924,0.00738909
2976.14977661,0.00737384
2978.07858398,0.00719881
2980.00739136,0.00728267
2981.93619873,0.00723961
2983.86500610,0.00737256
2985.79381348,0.00741021
2987.72262085,0.00732098
2989.65142822,0.00737736
2991.58023560,0.00729780
2993.50904297,0.00731065
2995.43785034,0.00728857
2997.36665771,0.00725868
2999.29546509,0.00730393
3001.22427246,0.00720122
3003.15307983,0.00718766
3005.08188721,0.00718436
3007.01069458,0.00715947
3008.93950195,0.00723193
3010.86830933,0.00720943
3012.79711670,0.00719150
3014.72592407,0.00718472
3016.65473145,0.00713291
3018.58353882,0.00720923
3020.51234619,0.00720988
3022.44115356,0.00711868
3024.36996094,0.00714391
3026.29876831,0.00708252
3028.22757568,0.00700021
3030.15638306,0.00714569
3032.08519043,0.00723931
3034.01399780,0.00710159
3035.94280518,0.00707690
3037.87161255,0.00705388
3039.80041992,0.00697427
3041.72922729,0.00707710
3043.65803467,0.00706770
3045.58684204,0.00709038
3047.51564941,0.00712667
3049.44445679,0.00703303
3051.37326416,0.00707106
3053.30207153,0.00698979
3055.23087891,0.00695720
3057.15968628,0.00701775
3059.08849365,0.00700078
3061.01730103,0.00700775
3062.94610840,0.00689790
3064.87491577,0.00692181
3066.80372314,0.00700500
3068.73253052,0.00691825
3070.66133789,0.00686032
3072.59014526,0.00683908
3074.51895264,0.00679897
3076.44776001,0.00682001
3078.37656738,0.00682339
3080.30537476,0.00674851
3082.23418213,0.00684067
3084.16298950,0.00686860
3086.09179687,0.00682778
3088.02060425,0.00680928
3089.94941162,0.00671023
3091.87821899,0.00684820
3093.80702637,0.00684270
3095.73583374,0.00670878
3097.66464111,0.00675766
3099.59344849,0.00675818
3101.52225586,0.00678372
3103.45106323,0.00674228
3105.37987061,0.00669265
3107.30867798,0.00671124
3109.23748535,0.00666071
3111.16629272,0.00661987
3113.09510010,0.00667020
3115.02390747,0.00662002
3116.95271484,0.00658742
3118.88152222,0.00672374
3120.81032959,0.00661537
3122.73913696,0.00653398
3124.66794434,0.00661204
3126.59675171,0.00657530
3128.52555908,0.00655388
3130.45436645,0.00651596
3132.38317383,0.00648086
3134.31198120,0.00651584
3136.24078857,0.00660436
3138.16959595,0.00651300
3140.09840332,0.00645420
3142.02721069,0.00651615
3143.95601807,0.00643471
3145.88482544,0.00649941
3147.81363281,0.00650618
3149.74244019,0.00636889
3151.67124756,0.00633000
3153.60005493,0.00636281
3155.52886230,0.00639186
3157.45766968,0.00633256
3159.38647705,0.00627491
3161.31528442,0.00628257
3163.24409180,0.00637400
3165.17289917,0.00632123
3167.10170654,0.00624294
3169.03051392,0.00628561
3170.95932129,0.00632041
3172.88812866,0.00632707
3174.81693604,0.00626055
3176.74574341,0.00628556
3178.67455078,0.00624648
3180.60335815,0.00621430
3182.53216553,0.00620300
3184.46097290,0.00620845
3186.38978027,0.00625901
3188.31858765,0.00611183
3190.24739502,0.00620733
3192.17620239,0.00619123
3194.10500977,0.00600760
3196.03381714,0.00604656
3197.96262451,0.00600290
3199.89143188,0.00607528
3201.82023926,0.00605897
3203.74904663,0.00601686
3205.67785400,0.00607990
3207.60666138,0.00602436
3209.53546875,0.00599727
3211.46427612,0.00595988
3213.39308350,0.00592245
3215.32189087,0.00593305
3217.25069824,0.00595227
3219.17950562,0.00587343
3221.10831299,0.00595479
3223.03712036,0.00608169
3224.96592773,0.00599322
3226.89473511,0.00593052
3228.82354248,0.00583203
3230.75234985,0.00596057
3232.68115723,0.00600988
3234.60996460,0.00581617
3236.53877197,0.00590935
3238.46757935,0.00590966
3240.39638672,0.00581264
3242.32519409,0.00586516
3244.25400146,0.00588100
3246.18280884,0.00587873
3248.11161621,0.00588293
3250.04042358,0.00586061
3251.96923096,0.00585828
3253.89803833,0.00588296
3255.82684570,0.00588471
3257.75565308,0.00586950
3259.68446045,0.00584688
3261.61326782,0.00588754
3263.54207520,0.00587784
3265.47088257,0.00582699
3267.39968994,0.00583450
3269.32849731,0.00578642
3271.25730469,0.00580611
3273.18611206,0.00581017
3275.11491943,0.00573745
3277.04372681,0.00578531
3278.97253418,0.00581460
3280.90134155,0.00575320
3282.83014893,0.00577418
3284.75895630,0.00579326
3286.68776367,0.00569672
3288.61657104,0.00569549
3290.54537842,0.00579466
3292.47418579,0.00579943
3294.40299316,0.00571129
3296.33180054,0.00569558
3298.26060791,0.00577815
3300.18941528,0.00575836
3302.11822266,0.00574393
3304.04703003,0.00578530
3305.97583740,0.00572933
3307.90464478,0.00569700
3309.83345215,0.00565942
3311.76225952,0.00562675
3313.69106689,0.00564924
3315.61987427,0.00561034
3317.54868164,0.00565903
3319.47748901,0.00569312
3321.40629639,0.00563615
3323.33510376,0.00564688
3325.26391113,0.00559005
3327.19271851,0.00555386
3329.12152588,0.00561205
3331.05033325,0.00562612
3332.97914062,0.00559470
3334.90794800,0.00560652
3336.83675537,0.00560831
3338.76556274,0.00558083
3340.69437012,0.00561440
3342.62317749,0.00560392
3344.55198486,0.00558764
3346.48079224,0.00551467
3348.40959961,0.00551053
3350.33840698,0.00558845
3352.26721436,0.00558372
3354.19602173,0.00562194
3356.12482910,0.00546208
3358.05363647,0.00550777
3359.98244385,0.00565070
3361.91125122,0.00540841
3363.84005859,0.00541546
3365.76886597,0.00552080
3367.69767334,0.00551780
3369.62648071,0.00549313
3371.55528809,0.00539092
3373.48409546,0.00541900
3375.41290283,0.00551474
3377.34171020,0.00551846
3379.27051758,0.00545536
3381.19932495,0.00545211
3383.12813232,0.00541394
3385.05693970,0.00542564
3386.98574707,0.00547203
3388.91455444,0.00542467
3390.84336182,0.00538965
3392.77216919,0.00539117
3394.70097656,0.00541296
3396.62978394,0.00532668
3398.55859131,0.00532832
3400.48739868,0.00533814
3402.41620605,0.00526999
3404.34501343,0.00536698
3406.27382080,0.00540674
3408.20262817,0.00533495
3410.13143555,0.00531125
3412.06024292,0.00529440
3413.98905029,0.00523874
3415.91785767,0.00531399
3417.84666504,0.00532765
3419.77547241,0.00522136
3421.70427979,0.00518546
3423.63308716,0.00522869
3425.56189453,0.00536973
3427.49070190,0.00526664
3429.41950928,0.00516874
3431.34831665,0.00519488
3433.27712402,0.00521948
3435.20593140,0.00523757
3437.13473877,0.00521623
3439.06354614,0.00527292
3440.99235352,0.00513338
3442.92116089,0.00523097
3444.84996826,0.00520773
3446.77877563,0.00503622
3448.70758301,0.00522661
3450.63639038,0.00517029
3452.56519775,0.00522465
3454.49400513,0.00519538
3456.42281250,0.00515082
3458.35161987,0.00523060
3460.28042725,0.00513905
3462.20923462,0.00519600
3464.13804199,0.00509463
3466.06684937,0.00509038
3467.99565674,0.00512028
3469.92446411,0.00517688
3471.85327148,0.00521365
3473.78207886,0.00507640
3475.71088623,0.00514434
3477.63969360,0.00506357
3479.56850098,0.00508540
3481.49730835,0.00507050
3483.42611572,0.00497633
3485.35492310,0.00510076
3487.28373047,0.00508158
3489.21253784,0.00505098
3491.14134521,0.00507379
3493.07015259,0.00513028
3494.99895996,0.00507237
3496.92776733,0.00501790
3498.85657471,0.00507492
3500.78538208,0.00512170
3502.71418945,0.00499552
3504.64299683,0.00489909
3506.57180420,0.00507344
3508.50061157,0.00497964
3510.42941895,0.00499714
3512.35822632,0.00506929
3514.28703369,0.00508122
3516.21584106,0.00519668
3518.14464844,0.00498273
3520.07345581,0.00500065
3522.00226318,0.00502141
3523.93107056,0.00488536
3525.85987793,0.00504240
3527.78868530,0.00507985
3529.71749268,0.00493974
3531.64630005,0.00501780
3533.57510742,0.00512225
3535.50391479,0.00501206
3537.43272217,0.00500803
3539.36152954,0.00495456
3541.29033691,0.00505413
3543.21914429,0.00514857
3545.14795166,0.00488993
3547.07675903,0.00486515
3549.00556641,0.00496848
3550.93437378,0.00498032
3552.86318115,0.00495476
3554.79198853,0.00504462
3556.72079590,0.00502618
3558.64960327,0.00490848
3560.57841064,0.00492124
3562.50721802,0.00491223
3564.43602539,0.00499851
3566.36483276,0.00467373
3568.29364014,0.00453373
3570.22244751,0.00495702
3572.15125488,0.00496762
3574.08006226,0.00491881
3576.00886963,0.00500098
3577.93767700,0.00502926
3579.86648437,0.00501982
3581.79529175,0.00491927
3583.72409912,0.00498484
3585.65290649,0.00487106
3587.58171387,0.00450474
3589.51052124,0.00468052
3591.43932861,0.00494008
3593.36813599,0.00486031
3595.29694336,0.00491200
3597.22575073,0.00486504
3599.15455811,0.00484997
3601.08336548,0.00486977
3603.01217285,0.00489913
3604.94098022,0.00508273
3606.86978760,0.00489960
3608.79859497,0.00450870
3610.72740234,0.00467089
3612.65620972,0.00476362
3614.58501709,0.00458666
3616.51382446,0.00499707
3618.44263184,0.00459548
3620.37143921,0.00441374
3622.30024658,0.00507351
3624.22905395,0.00480114
3626.15786133,0.00501446
3628.08666870,0.00447142
3630.01547607,0.00400291
3631.94428345,0.00491146
3633.87309082,0.00473866
3635.80189819,0.00477494
3637.73070557,0.00497451
3639.65951294,0.00492739
3641.58832031,0.00503178
3643.51712769,0.00500201
3645.44593506,0.00493393
3647.37474243,0.00443267
3649.30354980,0.00420540
3651.23235718,0.00423032
3653.16116455,0.00487275
3655.08997192,0.00485135
3657.01877930,0.00435531
3658.94758667,0.00492492
3660.87639404,0.00486398
3662.80520142,0.00493597
3664.73400879,0.00496365
3666.66281616,0.00498732
3668.59162354,0.00475028
3670.52043091,0.00393752
3672.44923828,0.00473032
3674.37804565,0.00442714
3676.30685303,0.00375949
3678.23566040,0.00464203
3680.16446777,0.00475272
3682.09327515,0.00477602
3684.02208252,0.00491982
3685.95088989,0.00488980
3687.87969727,0.00435142
3689.80850464,0.00409587
3691.73731201,0.00463520
3693.66611938,0.00463464
3695.59492676,0.00477121
3697.52373413,0.00480556
3699.45254150,0.00474049
3701.38134888,0.00464884
3703.31015625,0.00457450
3705.23896362,0.00490174
3707.16777100,0.00465061
3709.09657837,0.00467336
3711.02538574,0.00436466
3712.95419312,0.00406864
3714.88300049,0.00474666
3716.81180786,0.00463779
3718.74061523,0.00463264
3720.66942261,0.00458774
3722.59822998,0.00441844
3724.52703735,0.00460038
3726.45584473,0.00434850
3728.38465210,0.00454902
3730.31345947,0.00459707
3732.24226685,0.00433361
3734.17107422,0.00408053
3736.09988159,0.00391780
3738.02868896,0.00418865
3739.95749634,0.00452698
3741.88630371,0.00468418
3743.81511108,0.00369490
3745.74391846,0.00363388
3747.67272583,0.00449457
3749.60153320,0.00381188
3751.53034058,0.00368058
3753.45914795,0.00416055
3755.38795532,0.00436687
3757.31676270,0.00458650
3759.24557007,0.00426726
3761.17437744,0.00437096
3763.10318481,0.00460247
3765.03199219,0.00435484
3766.96079956,0.00446426
3768.88960693,0.00435902
3770.81841431,0.00424490
3772.74722168,0.00456628
3774.67602905,0.00451262
3776.60483643,0.00456574
3778.53364380,0.00440029
3780.46245117,0.00421977
3782.39125854,0.00450300
3784.32006592,0.00439819
3786.24887329,0.00440795
3788.17768066,0.00443754
3790.10648804,0.00443621
3792.03529541,0.00446548
3793.96410278,0.00438725
3795.89291016,0.00417975
3797.82171753,0.00428031
3799.75052490,0.00435183
3801.67933228,0.00347896
3803.60813965,0.00408703
3805.53694702,0.00436319
3807.46575439,0.00372627
3809.39456177,0.00439491
3811.32336914,0.00421120
3813.25217651,0.00444493
3815.18098389,0.00404675
3817.10979126,0.00358698
3819.03859863,0.00445792
3820.96740601,0.00369691
3822.89621338,0.00386922
3824.82502075,0.00435808
3826.75382812,0.00395853
3828.68263550,0.00434134
3830.61144287,0.00418602
3832.54025024,0.00397972
3834.46905762,0.00418317
3836.39786499,0.00395158
3838.32667236,0.00353249
3840.25547974,0.00391845
3842.18428711,0.00409192
3844.11309448,0.00402244
3846.04190186,0.00431502
3847.97070923,0.00409955
3849.89951660,0.00418221
3851.82832397,0.00368814
3853.75713135,0.00293414
3855.68593872,0.00352305
3857.61474609,0.00415967
3859.54355347,0.00408618
3861.47236084,0.00398981
3863.40116821,0.00389589
3865.32997559,0.00372848
3867.25878296,0.00412249
3869.18759033,0.00379843
3871.11639770,0.00359998
3873.04520508,0.00417190
3874.97401245,0.00375887
3876.90281982,0.00409466
3878.83162720,0.00419218
3880.76043457,0.00356267
3882.68924194,0.00411303
3884.61804932,0.00382727
3886.54685669,0.00348371
3888.47566406,0.00421380
3890.40447144,0.00395896
3892.33327881,0.00363490
3894.26208618,0.00406468
3896.19089355,0.00405315
3898.11970093,0.00381914
3900.04850830,0.00365099
3901.97731567,0.00363844
3903.90612305,0.00362072
3905.83493042,0.00361652
3907.76373779,0.00403636
3909.69254517,0.00404108
3911.62135254,0.00390264
3913.55015991,0.00406021
3915.47896728,0.00397891
3917.40777466,0.00378200
3919.33658203,0.00370609
3921.26538940,0.00384136
3923.19419678,0.00382359
3925.12300415,0.00382739
3927.05181152,0.00392391
3928.98061890,0.00389725
3930.90942627,0.00384975
3932.83823364,0.00374406
3934.76704102,0.00390080
3936.69584839,0.00395157
3938.62465576,0.00384698
3940.55346313,0.00393103
3942.48227051,0.00378917
3944.41107788,0.00375668
3946.33988525,0.00391057
3948.26869263,0.00374929
3950.19750000,0.00369544
3952.12630737,0.00379705
3954.05511475,0.00376069
3955.98392212,0.00377726
3957.91272949,0.00376052
3959.84153687,0.00377336
3961.77034424,0.00375746
3963.69915161,0.00378582
3965.62795898,0.00384088
3967.55676636,0.00371175
3969.48557373,0.00372635
3971.41438110,0.00367316
3973.34318848,0.00366435
3975.27199585,0.00369873
3977.20080322,0.00362137
3979.12961060,0.00364605
3981.05841797,0.00365531
3982.98722534,0.00375153
3984.91603271,0.00365112
3986.84484009,0.00366729
3988.77364746,0.00371910
3990.70245483,0.00359077
3992.63126221,0.00372104
3994.56006958,0.00362227
3996.48887695,0.00363412
3998.41768433,0.00370353
4000.34649170,0.00361565
4002.27529907,0.00365553
4004.20410645,0.00354543
4006.13291382,0.00361029
4008.06172119,0.00369025
4009.99052856,0.00364413
4011.91933594,0.00363124
4013.84814331,0.00355799
4015.77695068,0.00356347
4017.70575806,0.00361535
4019.63456543,0.00358842
4021.56337280,0.00355243
4023.49218018,0.00362708
4025.42098755,0.00358809
4027.34979492,0.00352522
4029.27860229,0.00354607
4031.20740967,0.00353951
4033.13621704,0.00355552
4035.06502441,0.00353983
4036.99383179,0.00350403
4038.92263916,0.00346452
4040.85144653,0.00349176
4042.78025391,0.00346641
4044.70906128,0.00343470
4046.63786865,0.00345522
4048.56667603,0.00349109
4050.49548340,0.00353358
4052.42429077,0.00338523
4054.35309814,0.00338342
4056.28190552,0.00346408
4058.21071289,0.00340485
4060.13952026,0.00338371
4062.06832764,0.00336777
4063.99713501,0.00340919
4065.92594238,0.00341837
4067.85474976,0.00338529
4069.78355713,0.00339352
4071.71236450,0.00339398
4073.64117187,0.00334205
4075.56997925,0.00339424
4077.49878662,0.00344957
4079.42759399,0.00337633
4081.35640137,0.00337290
4083.28520874,0.00334547
4085.21401611,0.00334293
4087.14282349,0.00330452
4089.07163086,0.00333387
4091.00043823,0.00342847
4092.92924561,0.00336267
4094.85805298,0.00337146
4096.78686035,0.00335726
4098.71566772,0.00333635
4100.64447510,0.00325902
4102.57328247,0.00324157
4104.50208984,0.00335441
4106.43089722,0.00331241
4108.35970459,0.00326786
4110.28851196,0.00317867
4112.21731934,0.00320781
4114.14612671,0.00324413
4116.07493408,0.00320324
4118.00374145,0.00320770
4119.93254883,0.00318076
4121.86135620,0.00328184
4123.79016357,0.00319651
4125.71897095,0.00316359
4127.64777832,0.00320852
4129.57658569,0.00316573
4131.50539307,0.00326654
4133.43420044,0.00319813
4135.36300781,0.00322790
4137.29181519,0.00324605
4139.22062256,0.00316638
4141.14942993,0.00319847
4143.07823730,0.00310816
4145.00704468,0.00315118
4146.93585205,0.00319873
4148.86465942,0.00315957
4150.79346680,0.00315995
4152.72227417,0.00314463
4154.65108154,0.00316219
4156.57988892,0.00312892
4158.50869629,0.00310647
4160.43750366,0.00309427
4162.36631103,0.00312661
4164.29511841,0.00314726
4166.22392578,0.00310334
4168.15273315,0.00311093
4170.08154053,0.00307661
4172.01034790,0.00303531
4173.93915527,0.00303976
4175.86796265,0.00308795
4177.79677002,0.00306721
4179.72557739,0.00299116
4181.65438477,0.00305313
4183.58319214,0.00308989
4185.51199951,0.00304452
4187.44080688,0.00300808
4189.36961426,0.00300407
4191.29842163,0.00298534
4193.22722900,0.00297733
4195.15603638,0.00303056
4197.08484375,0.00298278
4199.01365112,0.00300048
4200.94245850,0.00306184
4202.87126587,0.00299755
4204.80007324,0.00297424
4206.72888062,0.00293338
4208.65768799,0.00294901
4210.58649536,0.00302222
4212.51530273,0.00295538
4214.44411011,0.00287157
4216.37291748,0.00292393
4218.30172485,0.00298213
4220.23053223,0.00292156
4222.15933960,0.00288393
4224.08814697,0.00284713
4226.01695435,0.00282548
4227.94576172,0.00286734
4229.87456909,0.00285175
4231.80337646,0.00285103
4233.73218384,0.00285662
4235.66099121,0.00285341
4237.58979858,0.00286062
4239.51860596,0.00281457
4241.44741333,0.00278477
4243.37622070,0.00283967
4245.30502808,0.00284850
4247.23383545,0.00276459
4249.16264282,0.00282491
4251.09145020,0.00285491
4253.02025757,0.00273936
4254.94906494,0.00284478
4256.87787231,0.00287751
4258.80667969,0.00271519
4260.73548706,0.00277307
4262.66429443,0.00280530
4264.59310181,0.00280524
4266.52190918,0.00285300
4268.45071655,0.00273487
4270.37952393,0.00273535
4272.30833130,0.00277694
4274.23713867,0.00276295
4276.16594604,0.00274673
4278.09475342,0.00269250
4280.02356079,0.00276013
4281.95236816,0.00272973
4283.88117554,0.00272816
4285.80998291,0.00274871
4287.73879028,0.00265712
4289.66759766,0.00266449
4291.59640503,0.00262704
4293.52521240,0.00269166
4295.45401978,0.00267634
4297.38282715,0.00259301
4299.31163452,0.00272939
4301.24044189,0.00267937
4303.16924927,0.00260270
4305.09805664,0.00265380
4307.02686401,0.00269021
4308.95567139,0.00271147
4310.88447876,0.00262346
4312.81328613,0.00261018
4314.74209351,0.00267116
4316.67090088,0.00259417
4318.59970825,0.00249894
4320.52851562,0.00255212
4322.45732300,0.00263248
4324.38613037,0.00264584
4326.31493774,0.00262310
4328.24374512,0.00255878
4330.17255249,0.00251230
4332.10135986,0.00255711
4334.03016724,0.00258439
4335.95897461,0.00254643
4337.88778198,0.00260505
4339.81658936,0.00259435
4341.74539673,0.00250689
4343.67420410,0.00253808
4345.60301147,0.00249153
4347.53181885,0.00248045
4349.46062622,0.00256695
4351.38943359,0.00252558
4353.31824097,0.00250333
4355.24704834,0.00251172
4357.17585571,0.00248274
4359.10466309,0.00253886
4361.03347046,0.00254624
4362.96227783,0.00248158
4364.89108520,0.00248763
4366.81989258,0.00251209
4368.74869995,0.00248400
4370.67750732,0.00244196
4372.60631470,0.00246800
4374.53512207,0.00245910
4376.46392944,0.00244490
4378.39273682,0.00244978
4380.32154419,0.00240873
4382.25035156,0.00243613
4384.17915894,0.00245501
4386.10796631,0.00248608
4388.03677368,0.00250828
4389.96558105,0.00247004
4391.89438843,0.00242831
4393.82319580,0.00240899
4395.75200317,0.00244624
4397.68081055,0.00236344
4399.60961792,0.00235822
4401.53842529,0.00238334
4403.46723267,0.00229517
4405.39604004,0.00237406
4407.32484741,0.00236405
4409.25365478,0.00231259
4411.18246216,0.00238411
4413.11126953,0.00237350
4415.04007690,0.00236528
4416.96888428,0.00236849
4418.89769165,0.00230758
4420.82649902,0.00227333
4422.75530640,0.00237297
4424.68411377,0.00243237
4426.61292114,0.00229930
4428.54172852,0.00229060
4430.47053589,0.00237589
4432.39934326,0.00224433
4434.32815063,0.00225700
4436.25695801,0.00232793
4438.18576538,0.00220898
4440.11457275,0.00228763
4442.04338013,0.00234698
4443.97218750,0.00225885
4445.90099487,0.00222754
4447.82980225,0.00226656
4449.75860962,0.00228856
4451.68741699,0.00223668
4453.61622437,0.00225502
4455.54503174,0.00221608
4457.47383911,0.00223898
4459.40264648,0.00228660
4461.33145386,0.00220805
4463.26026123,0.00218589
4465.18906860,0.00216178
4467.11787598,0.00219030
4469.04668335,0.00216968
4470.97549072,0.00215712
4472.90429810,0.00224356
4474.83310547,0.00222040
4476.76191284,0.00217353
4478.69072021,0.00217539
4480.61952759,0.00216145
4482.54833496,0.00216842
4484.47714233,0.00221179
4486.40594971,0.00212683
4488.33475708,0.00210847
4490.26356445,0.00212423
4492.19237183,0.00211872
4494.12117920,0.00223138
4496.04998657,0.00214907
4497.97879395,0.00216283
4499.90760132,0.00217681
4501.83640869,0.00208060
4503.76521606,0.00212044
4505.69402344,0.00206198
4507.62283081,0.00209574
4509.55163818,0.00204714
4511.48044556,0.00202102
4513.40925293,0.00209621
4515.33806030,0.00204467
4517.26686768,0.00210534
4519.19567505,0.00206254
4521.12448242,0.00206229
4523.05328979,0.00207589
4524.98209717,0.00199398
4526.91090454,0.00203410
4528.83971191,0.00202374
4530.76851929,0.00204067
4532.69732666,0.00202861
4534.62613403,0.00205408
4536.55494141,0.00208257
4538.48374878,0.00199152
4540.41255615,0.00202761
4542.34136353,0.00204807
4544.27017090,0.00202883
4546.19897827,0.00199598
4548.12778564,0.00197094
4550.05659302,0.00201087
4551.98540039,0.00197462
4553.91420776,0.00198433
4555.84301514,0.00203958
4557.77182251,0.00203724
4559.70062988,0.00193403
4561.62943726,0.00189041
4563.55824463,0.00200241
4565.48705200,0.00198256
4567.41585937,0.00200817
4569.34466675,0.00201141
4571.27347412,0.00188693
4573.20228149,0.00197408
4575.13108887,0.00195086
4577.05989624,0.00184951
4578.98870361,0.00191899
4580.91751099,0.00191798
4582.84631836,0.00189672
4584.77512573,0.00188535
4586.70393311,0.00188054
4588.63274048,0.00190200
4590.56154785,0.00192784
4592.49035522,0.00192305
4594.41916260,0.00184309
4596.34796997,0.00186008
4598.27677734,0.00195671
4600.20558472,0.00194376
4602.13439209,0.00184553
4604.06319946,0.00180491
4605.99200684,0.00185699
4607.92081421,0.00187246
4609.84962158,0.00191266
4611.77842895,0.00196787
4613.70723633,0.00181569
4615.63604370,0.00180036
4617.56485107,0.00191304
4619.49365845,0.00179873
4621.42246582,0.00183474
4623.35127319,0.00186059
4625.28008057,0.00179737
4627.20888794,0.00184189
4629.13769531,0.00175779
4631.06650269,0.00181138
4632.99531006,0.00189579
4634.92411743,0.00182655
4636.85292480,0.00176199
4638.78173218,0.00174527
4640.71053955,0.00183508
4642.63934692,0.00177024
4644.56815430,0.00170762
4646.49696167,0.00177597
4648.42576904,0.00176122
4650.35457642,0.00173616
4652.28338379,0.00172192
4654.21219116,0.00179810
4656.14099853,0.00183022
4658.06980591,0.00172994
4659.99861328,0.00175101
4661.92742065,0.00176531
4663.85622803,0.00174904
4665.78503540,0.00175920
4667.71384277,0.00169371
4669.64265015,0.00175981
4671.57145752,0.00172522
4673.50026489,0.00164630
4675.42907227,0.00172757
4677.35787964,0.00168227
4679.28668701,0.00174448
4681.21549438,0.00169344
4683.14430176,0.00162877
4685.07310913,0.00173547
4687.00191650,0.00168990
4688.93072388,0.00169992
4690.85953125,0.00156978
4692.78833862,0.00155516
4694.71714600,0.00164519
4696.64595337,0.00164483
4698.57476074,0.00174821
4700.50356812,0.00165212
4702.43237549,0.00164253
4704.36118286,0.00165272
4706.28999023,0.00164609
4708.21879761,0.00162215
4710.14760498,0.00158555
4712.07641235,0.00174090
4714.00521973,0.00160498
4715.93402710,0.00156982
4717.86283447,0.00167726
4719.79164185,0.00166696
4721.72044922,0.00164690
4723.64925659,0.00158247
4725.57806396,0.00171930
4727.50687134,0.00165109
4729.43567871,0.00153894
4731.36448608,0.00165584
4733.29329346,0.00164297
4735.22210083,0.00156282
4737.15090820,0.00162362
4739.07971558,0.00166548
4741.00852295,0.00154196
4742.93733032,0.00158859
4744.86613770,0.00155856
4746.79494507,0.00152276
4748.72375244,0.00162455
4750.65255981,0.00159866
4752.58136719,0.00162110
4754.51017456,0.00160423
4756.43898193,0.00163482
4758.36778931,0.00158654
4760.29659668,0.00155040
4762.22540405,0.00160570
4764.15421143,0.00153353
4766.08301880,0.00155826
4768.01182617,0.00151843
4769.94063354,0.00156019
4771.86944092,0.00152590
4773.79824829,0.00146699
4775.72705566,0.00159222
4777.65586304,0.00148960
4779.58467041,0.00157217
4781.51347778,0.00154143
4783.44228516,0.00140696
4785.37109253,0.00156389
4787.29989990,0.00148857
4789.22870728,0.00151329
4791.15751465,0.00155701
4793.08632202,0.00144476
4795.01512939,0.00146596
4796.94393677,0.00145424
4798.87274414,0.00153102
4800.80155151,0.00155923
4802.73035889,0.00146932
4804.65916626,0.00145488
4806.58797363,0.00144144
4808.51678101,0.00143545
4810.44558838,0.00143305
4812.37439575,0.00147119
4814.30320312,0.00145925
4816.23201050,0.00138863
4818.16081787,0.00138175
4820.08962524,0.00138546
4822.01843262,0.00140731
4823.94723999,0.00140762
4825.87604736,0.00144633
4827.80485474,0.00150874
4829.73366211,0.00147650
4831.66246948,0.00139622
4833.59127686,0.00134644
4835.52008423,0.00140008
4837.44889160,0.00141259
4839.37769897,0.00139574
4841.30650635,0.00142935
4843.23531372,0.00141975
4845.16412109,0.00139199
4847.09292847,0.00135699
4849.02173584,0.00135438
4850.95054321,0.00139360
4852.87935059,0.00137125
4854.80815796,0.00130122
4856.73696533,0.00137233
4858.66577270,0.00137417
4860.59458008,0.00128829
4862.52338745,0.00138228
4864.45219482,0.00132262
4866.38100220,0.00127346
4868.30980957,0.00135688
4870.23861694,0.00130373
4872.16742432,0.00128960
4874.09623169,0.00129635
4876.02503906,0.00131299
4877.95384644,0.00132085
4879.88265381,0.00129184
4881.81146118,0.00132755
4883.74026855,0.00137735
4885.66907593,0.00131915
4887.59788330,0.00124700
4889.52669067,0.00131295
4891.45549805,0.00133941
4893.38430542,0.00132146
4895.31311279,0.00129685
4897.24192017,0.00127436
4899.17072754,0.00131658
4901.09953491,0.00133459
4903.02834228,0.00127207
4904.95714966,0.00120370
4906.88595703,0.00130076
4908.81476440,0.00137151
4910.74357178,0.00132440
4912.67237915,0.00127554
4914.60118652,0.00122747
4916.52999390,0.00124631
4918.45880127,0.00128851
4920.38760864,0.00128487
4922.31641602,0.00125993
4924.24522339,0.00130751
4926.17403076,0.00124582
4928.10283813,0.00116442
4930.03164551,0.00121245
4931.96045288,0.00120653
4933.88926025,0.00120300
4935.81806763,0.00122138
4937.74687500,0.00126681
4939.67568237,0.00117685
4941.60448975,0.00119785
4943.53329712,0.00128760
4945.46210449,0.00120582
4947.39091187,0.00125894
4949.31971924,0.00114302
4951.24852661,0.00120673
4953.17733398,0.00130707
4955.10614136,0.00112215
4957.03494873,0.00123177
4958.96375610,0.00119968
4960.89256348,0.00117166
4962.82137085,0.00124008
4964.75017822,0.00114329
4966.67898560,0.00118478
4968.60779297,0.00121083
4970.53660034,0.00121174
4972.46540771,0.00123872
4974.39421509,0.00122617
4976.32302246,0.00118974
4978.25182983,0.00125383
4980.18063721,0.00120610
4982.10944458,0.00109845
4984.03825195,0.00121151
4985.96705933,0.00114267
4987.89586670,0.00112459
4989.82467407,0.00119753
4991.75348145,0.00110986
4993.68228882,0.00110353
4995.61109619,0.00114394
4997.53990356,0.00119545
4999.46871094,0.00109627
5001.39751831,0.00105791
5003.32632568,0.00119269
5005.25513306,0.00115959
5007.18394043,0.00108154
5009.11274780,0.00106692
5011.04155518,0.00112549
5012.97036255,0.00114517
5014.89916992,0.00108907
5016.82797729,0.00109933
5018.75678467,0.00111805
5020.68559204,0.00116640
5022.61439941,0.00114628
5024.54320679,0.00107374
5026.47201416,0.00109924
5028.40082153,0.00108094
5030.32962891,0.00107886
5032.25843628,0.00109726
5034.18724365,0.00106837
5036.11605103,0.00109624
5038.04485840,0.00108794
5039.97366577,0.00105467
5041.90247314,0.00102669
5043.83128052,0.00103849
5045.76008789,0.00115479
5047.68889526,0.00113912
5049.61770264,0.00101885
5051.54651001,0.00106495
5053.47531738,0.00110623
5055.40412476,0.00106773
5057.33293213,0.00107788
5059.26173950,0.00099749
5061.19054687,0.00102112
5063.11935425,0.00109096
5065.04816162,0.00102715
5066.97696899,0.00106378
5068.90577637,0.00098120
5070.83458374,0.00094594
5072.76339111,0.00106513
5074.69219849,0.00104523
5076.62100586,0.00102353
5078.54981323,0.00104358
5080.47862061,0.00103014
5082.40742798,0.00094268
5084.33623535,0.00096245
5086.26504272,0.00097177
5088.19385010,0.00096548
5090.12265747,0.00103962
5092.05146484,0.00096146
5093.98027222,0.00095121
5095.90907959,0.00095878
5097.83788696,0.00102405
5099.76669434,0.00105408
5101.69550171,0.00093788
5103.62430908,0.00102957
5105.55311645,0.00105253
5107.48192383,0.00099097
5109.41073120,0.00099674
5111.33953857,0.00103960
5113.26834595,0.00102511
5115.19715332,0.00095461
5117.12596069,0.00099633
5119.05476807,0.00097371
5120.98357544,0.00095247
5122.91238281,0.00092619
5124.84119019,0.00097091
5126.76999756,0.00099591
5128.69880493,0.00089871
5130.62761230,0.00099135
5132.55641968,0.00101479
5134.48522705,0.00095810
5136.41403442,0.00096822
5138.34284180,0.00096371
5140.27164917,0.00093270
5142.20045654,0.00090823
5144.12926392,0.00091575
5146.05807129,0.00089373
5147.98687866,0.00093912
5149.91568603,0.00091684
5151.84449341,0.00090454
5153.77330078,0.00092315
5155.70210815,0.00092711
5157.63091553,0.00099851
5159.55972290,0.00094143
5161.48853027,0.00094532
5163.41733765,0.00095801
5165.34614502,0.00093871
5167.27495239,0.00096886
5169.20375977,0.00091627
5171.13256714,0.00090239
5173.06137451,0.00085978
5174.99018188,0.00086789
5176.91898926,0.00095076
5178.84779663,0.00094590
5180.77660400,0.00092946
5182.70541138,0.00092640
5184.63421875,0.00085685
5186.56302612,0.00083656
5188.49183350,0.00092923
5190.42064087,0.00089581
5192.34944824,0.00085505
5194.27825562,0.00090792
5196.20706299,0.00089986
5198.13587036,0.00082551
5200.06467773,0.00082476
5201.99348511,0.00089192
5203.92229248,0.00084380
5205.85109985,0.00086146
5207.77990723,0.00087632
5209.70871460,0.00081930
5211.63752197,0.00085781
5213.56632935,0.00087118
5215.49513672,0.00088489
5217.42394409,0.00090361
5219.35275146,0.00085508
5221.28155884,0.00080456
5223.21036621,0.00085315
5225.13917358,0.00083157
5227.06798096,0.00077916
5228.99678833,0.00085779
5230.92559570,0.00088114
5232.85440308,0.00089299
5234.78321045,0.00085059
5236.71201782,0.00084170
5238.64082520,0.00083955
5240.56963257,0.00079611
5242.49843994,0.00087284
5244.42724731,0.00080764
5246.35605469,0.00082162
5248.28486206,0.00087068
5250.21366943,0.00077892
5252.14247681,0.00081691
5254.07128418,0.00077334
5256.00009155,0.00068766
5257.92889893,0.00072039
5259.85770630,0.00079778
5261.78651367,0.00077138
5263.71532104,0.00073700
5265.64412842,0.00080305
5267.57293579,0.00080614
5269.50174316,0.00081698
5271.43055054,0.00077201
5273.35935791,0.00077447
5275.28816528,0.00078573
5277.21697266,0.00073610
5279.14578003,0.00079971
5281.07458740,0.00077712
5283.00339478,0.00079495
5284.93220215,0.00077170
5286.86100952,0.00070439
5288.78981689,0.00082752
5290.71862427,0.00077574
5292.64743164,0.00072942
5294.57623901,0.00086676
5296.50504639,0.00084568
5298.43385376,0.00076176
5300.36266113,0.00079673
5302.29146851,0.00082762
5304.22027588,0.00081484
5306.14908325,0.00077152
5308.07789062,0.00069338
5310.00669800,0.00075050
5311.93550537,0.00077712
5313.86431274,0.00073826
5315.79312012,0.00079770
5317.72192749,0.00076097
5319.65073486,0.00074280
5321.57954224,0.00078465
5323.50834961,0.00074790
5325.43715698,0.00071346
5327.36596436,0.00071747
5329.29477173,0.00073492
5331.22357910,0.00073674
5333.15238647,0.00070313
5335.08119385,0.00065911
5337.01000122,0.00071587
5338.93880859,0.00069837
5340.86761597,0.00069230
5342.79642334,0.00079425
5344.72523071,0.00069437
5346.65403809,0.00068067
5348.58284546,0.00070685
5350.51165283,0.00066173
5352.44046020,0.00069628
5354.36926758,0.00058663
5356.29807495,0.00064577
5358.22688232,0.00075845
5360.15568970,0.00066056
5362.08449707,0.00069703
5364.01330444,0.00068463
5365.94211182,0.00061675
5367.87091919,0.00068667
5369.79972656,0.00066723
5371.72853394,0.00062123
5373.65734131,0.00064458
5375.58614868,0.00063108
5377.51495605,0.00064484
5379.44376343,0.00064241
5381.37257080,0.00069434
5383.30137817,0.00074520
5385.23018555,0.00063846
5387.15899292,0.00063110
5389.08780029,0.00063050
5391.01660767,0.00062509
5392.94541504,0.00065570
5394.87422241,0.00062488
5396.80302978,0.00069115
5398.73183716,0.00062392
5400.66064453,0.00057517
5402.58945190,0.00067271
5404.51825928,0.00065179
5406.44706665,0.00064645
5408.37587402,0.00060406
5410.30468140,0.00060546
5412.23348877,0.00065504
5414.16229614,0.00060540
5416.09110352,0.00062867
5418.01991089,0.00064767
5419.94871826,0.00063472
5421.87752563,0.00065156
5423.80633301,0.00062733
5425.73514038,0.00064767
5427.66394775,0.00063317
5429.59275513,0.00056529
5431.52156250,0.00063593
5433.45036987,0.00063439
5435.37917725,0.00058916
5437.30798462,0.00070317
5439.23679199,0.00064305
5441.16559936,0.00053909
5443.09440674,0.00062501
5445.02321411,0.00057301
5446.95202148,0.00052871
5448.88082886,0.00066016
5450.80963623,0.00065527
5452.73844360,0.00061785
5454.66725098,0.00064178
5456.59605835,0.00059336
5458.52486572,0.00058997
5460.45367310,0.00059773
5462.38248047,0.00059598
5464.31128784,0.00061330
5466.24009521,0.00062333
5468.16890259,0.00059225
5470.09770996,0.00058685
5472.02651733,0.00067132
5473.95532471,0.00058050
5475.88413208,0.00052133
5477.81293945,0.00057685
5479.74174683,0.00057563
5481.67055420,0.00061396
5483.59936157,0.00056144
5485.52816895,0.00061962
5487.45697632,0.00065502
5489.38578369,0.00057606
5491.31459106,0.00059932
5493.24339844,0.00053697
5495.17220581,0.00055593
5497.10101318,0.00059253
5499.02982056,0.00058184
5500.95862793,0.00060416
5502.88743530,0.00059533
5504.81624268,0.00057195
5506.74505005,0.00049307
5508.67385742,0.00057078
5510.60266479,0.00059120
5512.53147217,0.00050403
5514.46027954,0.00053860
5516.38908691,0.00052029
5518.31789429,0.00052625
5520.24670166,0.00052407
5522.17550903,0.00050157
5524.10431641,0.00052492
5526.03312378,0.00053263
5527.96193115,0.00052744
5529.89073853,0.00053154
5531.81954590,0.00055735
5533.74835327,0.00051697
5535.67716064,0.00050236
5537.60596802,0.00052913
5539.53477539,0.00049792
5541.46358276,0.00047586
5543.39239014,0.00051906
5545.32119751,0.00051555
5547.25000488,0.00050971
5549.17881226,0.00061100
5551.10761963,0.00053800
5553.03642700,0.00041921
5554.96523437,0.00047195
5556.89404175,0.00052335
5558.82284912,0.00053909
5560.75165649,0.00055017
5562.68046387,0.00052889
5564.60927124,0.00047928
5566.53807861,0.00056016
5568.46688599,0.00054708
5570.39569336,0.00047897
5572.32450073,0.00051513
5574.25330811,0.00045663
5576.18211548,0.00051807
5578.11092285,0.00053811
5580.03973022,0.00048580
5581.96853760,0.00046657
5583.89734497,0.00045839
5585.82615234,0.00055633
5587.75495972,0.00044506
5589.68376709,0.00042011
5591.61257446,0.00049692
5593.54138184,0.00042985
5595.47018921,0.00050256
5597.39899658,0.00050143
5599.32780395,0.00044174
5601.25661133,0.00047383
5603.18541870,0.00049651
5605.11422607,0.00052183
5607.04303345,0.00049366
5608.97184082,0.00043183
5610.90064819,0.00047117
5612.82945557,0.00050589
5614.75826294,0.00044824
5616.68707031,0.00044513
5618.61587769,0.00045214
5620.54468506,0.00045663
5622.47349243,0.00042354
5624.40229980,0.00041693
5626.33110718,0.00046659
5628.25991455,0.00045726
5630.18872192,0.00048312
5632.11752930,0.00046954
5634.04633667,0.00048270
5635.97514404,0.00048366
5637.90395142,0.00047423
5639.83275879,0.00050669
5641.76156616,0.00045766
5643.69037353,0.00048321
5645.61918091,0.00046391
5647.54798828,0.00045101
5649.47679565,0.00045477
5651.40560303,0.00043838
5653.33441040,0.00045020
5655.26321777,0.00041667
5657.19202515,0.00049585
5659.12083252,0.00044513
5661.04963989,0.00041546
5662.97844727,0.00042035
5664.90725464,0.00037433
5666.83606201,0.00045667
5668.76486938,0.00035627
5670.69367676,0.00037914
5672.62248413,0.00045215
5674.55129150,0.00044623
5676.48009888,0.00049145
5678.40890625,0.00038118
5680.33771362,0.00035605
5682.26652100,0.00040238
5684.19532837,0.00043249
5686.12413574,0.00037018
5688.05294311,0.00037221
5689.98175049,0.00042546
5691.91055786,0.00038359
5693.83936523,0.00042154
5695.76817261,0.00036652
5697.69697998,0.00045098
5699.62578735,0.00044053
5701.55459473,0.00031184
5703.48340210,0.00044524
5705.41220947,0.00042630
5707.34101685,0.00039432
5709.26982422,0.00041146
5711.19863159,0.00041176
5713.12743896,0.00038909
5715.05624634,0.00036479
5716.98505371,0.00043970
5718.91386108,0.00037226
5720.84266846,0.00035645
5722.77147583,0.00034062
5724.70028320,0.00031149
5726.62909058,0.00039011
5728.55789795,0.00037647
5730.48670532,0.00041403
5732.41551270,0.00041787
5734.34432007,0.00034164
5736.27312744,0.00035928
5738.20193481,0.00037925
5740.13074219,0.00034095
5742.05954956,0.00035977
5743.98835693,0.00040666
5745.91716431,0.00041094
5747.84597168,0.00037802
5749.77477905,0.00031104
5751.70358643,0.00039194
5753.63239380,0.00041953
5755.56120117,0.00039022
5757.49000854,0.00043679
5759.41881592,0.00030669
5761.34762329,0.00034920
5763.27643066,0.00042097
5765.20523804,0.00025865
5767.13404541,0.00032669
5769.06285278,0.00045107
5770.99166016,0.00040750
5772.92046753,0.00032856
5774.84927490,0.00036713
5776.77808228,0.00043410
5778.70688965,0.00036043
5780.63569702,0.00037522
5782.56450439,0.00039852
5784.49331177,0.00041476
5786.42211914,0.00043751
5788.35092651,0.00034827
5790.27973389,0.00033242
5792.20854126,0.00030580
5794.13734863,0.00035206
5796.06615601,0.00038630
5797.99496338,0.00029705
5799.92377075,0.00035426
5801.85257812,0.00033857
5803.78138550,0.00033523
5805.71019287,0.00039671
5807.63900024,0.00035624
5809.56780762,0.00035486
5811.49661499,0.00034595
5813.42542236,0.00035496
5815.35422974,0.00036249
5817.28303711,0.00042298
5819.21184448,0.00043076
5821.14065186,0.00032100
5823.06945923,0.00030564
5824.99826660,0.00030254
5826.92707397,0.00034883
5828.85588135,0.00032022
5830.78468872,0.00029793
5832.71349609,0.00037077
5834.64230347,0.00030416
5836.57111084,0.00029674
5838.49991821,0.00030233
5840.42872559,0.00031389
5842.35753296,0.00039718
5844.28634033,0.00032005
5846.21514770,0.00023097
5848.14395508,0.00033062
5850.07276245,0.00037222
5852.00156982,0.00032086
5853.93037720,0.00039267
5855.85918457,0.00036412
5857.78799194,0.00030666
5859.71679932,0.00031453
5861.64560669,0.00033374
5863.57441406,0.00041036
5865.50322144,0.00026492
5867.43202881,0.00024853
5869.36083618,0.00036551
5871.28964355,0.00028929
5873.21845093,0.00036305
5875.14725830,0.00036843
5877.07606567,0.00028176
5879.00487305,0.00034258
5880.93368042,0.00032151
5882.86248779,0.00031329
5884.79129517,0.00036788
5886.72010254,0.00033044
5888.64890991,0.00031605
5890.57771728,0.00032782
5892.50652466,0.00034174
5894.43533203,0.00035243
5896.36413940,0.00025703
5898.29294678,0.00025922
5900.22175415,0.00031474
5902.15056152,0.00029165
5904.07936890,0.00033234
5906.00817627,0.00027925
5907.93698364,0.00023568
5909.86579102,0.00032511
5911.79459839,0.00032499
5913.72340576,0.00029217
5915.65221313,0.00027079
5917.58102051,0.00024051
5919.50982788,0.00027409
5921.43863525,0.00028983
5923.36744263,0.00028089
5925.29625000,0.00032701
5927.22505737,0.00030492
5929.15386475,0.00024020
5931.08267212,0.00022858
5933.01147949,0.00025978
5934.94028686,0.00032009
5936.86909424,0.00026575
5938.79790161,0.00026526
5940.72670898,0.00032171
5942.65551636,0.00028158
5944.58432373,0.00030786
5946.51313110,0.00026074
5948.44193848,0.00023471
5950.37074585,0.00027720
5952.29955322,0.00026700
5954.22836060,0.00031736
5956.15716797,0.00027477
5958.08597534,0.00028478
5960.01478271,0.00033981
5961.94359009,0.00026904
5963.87239746,0.00026910
5965.80120483,0.00029787
5967.73001221,0.00027431
5969.65881958,0.00024505
5971.58762695,0.00028783
5973.51643433,0.00024946
5975.44524170,0.00019848
5977.37404907,0.00028486
5979.30285645,0.00030813
5981.23166382,0.00030041
5983.16047119,0.00022072
5985.08927856,0.00022508
5987.01808594,0.00026620
5988.94689331,0.00020599
5990.87570068,0.00026248
5992.80450806,0.00022865
5994.73331543,0.00023375
5996.66212280,0.00027337
5998.59093018,0.00025147
6000.51973755,0.00033241
