399.26312622,0.00029627
401.19193359,0.00037210
403.12074097,0.00051079
405.04954834,0.00077816
406.97835571,0.00022396
408.90716309,0.00010712
410.83597046,0.00038897
412.76477783,0.00009612
414.69358521,0.00022745
416.62239258,0.00059425
418.55119995,0.00097302
420.48000732,0.00071999
422.40881470,0.00055182
424.33762207,0.00057025
426.26642944,0.00030903
428.19523682,0.00056608
430.12404419,0.00050776
432.05285156,0.00050384
433.98165894,0.00052496
435.91046631,0.00000412
437.83927368,0.00035517
439.76808105,0.00064211
441.69688843,0.00031868
443.62569580,0.00066359
445.55450317,0.00064348
447.48331055,0.00037141
449.41211792,0.00063674
451.34092529,0.00056233
453.26973267,0.00013940
455.19854004,0.00020235
457.12734741,0.00029048
459.05615479,0.00012027
460.98496216,0.00022288
462.91376953,0.00012021
464.84257690,0.00036604
466.77138428,0.00035528
468.70019165,0.00000283
470.62899902,0.00027002
472.55780640,0.00008101
474.48661377,0.00030000
476.41542114,0.00024729
478.34422852,-0.00004797
480.27303589,0.00038870
482.20184326,-0.00024273
484.13065063,-0.00009831
486.05945801,0.00034570
487.98826538,0.00016059
489.91707275,0.00038229
491.84588013,0.00018738
493.77468750,0.00029377
495.70349487,0.00027885
497.63230225,0.00048140
499.56110962,0.00041239
501.48991699,0.00002496
503.41872437,-0.00010168
505.34753174,0.00005329
507.27633911,0.00034666
509.20514648,-0.00008662
511.13395386,0.00013960
513.06276123,0.00040534
514.99156860,0.00011765
516.92037598,0.00047406
518.84918335,0.00064656
520.77799072,-0.00000625
522.70679810,-0.00021786
524.63560547,0.00028154
526.56441284,0.00012882
528.49322021,0.00015568
530.42202759,-0.00010941
532.35083496,-0.00016883
534.27964233,0.00044669
536.20844971,0.00003874
538.13725708,0.00016717
540.06606445,0.00016363
541.99487183,-0.00004849
543.92367920,0.00034408
545.85248657,0.00014207
547.78129395,0.00009995
549.71010132,0.00015410
551.63890869,-0.00011230
553.56771606,-0.00008614
555.49652344,0.00008312
557.42533081,0.00037360
559.35413818,0.00050028
561.28294556,0.00013656
563.21175293,0.00000825
565.14056030,0.00026381
567.06936768,0.00012077
568.99817505,-0.00005856
570.92698242,0.00002148
572.85578979,0.00011008
574.78459717,0.00017334
576.71340454,-0.00007521
578.64221191,0.00022053
580.57101929,0.00043255
582.49982666,0.00004655
584.42863403,0.00008897
586.35744141,-0.00002125
588.28624878,0.00011583
590.21505615,0.00022959
592.14386353,0.00006852
594.07267090,0.00022746
596.00147827,0.00013771
597.93028564,0.00011106
599.85909302,-0.00006329
601.78790039,0.00015028
603.71670776,0.00039518
605.64551514,0.00005484
607.57432251,0.00009927
609.50312988,-0.00005151
611.43193726,0.00018107
613.36074463,0.00023825
615.28955200,0.00012176
617.21835938,0.00010740
619.14716675,-0.00019699
621.07597412,0.00025916
623.00478149,0.00010721
624.93358887,0.00003926
626.86239624,0.00031195
628.79120361,0.00003239
630.72001099,0.00001662
632.64881836,0.00020351
634.57762573,0.00058615
636.50643311,0.00065175
638.43524048,0.00000871
640.36404785,0.00023894
642.29285522,0.00046728
644.22166260,0.00030537
646.15046997,0.00068671
648.07927734,0.00048523
650.00808472,0.00070036
651.93689209,0.00078085
653.86569946,0.00048437
655.79450684,0.00082408
657.72331421,0.00079577
659.65212158,0.00094829
661.58092896,0.00116091
663.50973633,0.00121170
665.43854370,0.00093596
667.36735107,0.00075751
669.29615845,0.00118626
671.22496582,0.00097279
673.15377319,0.00110179
675.08258057,0.00127747
677.01138794,0.00115077
678.94019531,0.00136243
680.86900269,0.00109383
682.79781006,0.00100424
684.72661743,0.00106986
686.65542480,0.00109259
688.58423218,0.00105361
690.51303955,0.00112905
692.44184692,0.00146453
694.37065430,0.00134921
696.29946167,0.00152244
698.22826904,0.00182466
700.15707642,0.00183142
702.08588379,0.00182589
704.01469116,0.00176858
705.94349854,0.00169278
707.87230591,0.00140725
709.80111328,0.00113646
711.72992065,0.00079005
713.65872803,0.00056058
715.58753540,0.00042605
717.51634277,0.00027142
719.44515015,0.00043154
721.37395752,0.00022588
723.30276489,-0.00028528
725.23157227,-0.00013176
727.16037964,0.00011216
729.08918701,0.00011336
731.01799438,0.00029524
732.94680176,0.00004346
734.87560913,-0.00010838
736.80441650,0.00011924
738.73322388,0.00024799
740.66203125,0.00032436
742.59083862,0.00014519
744.51964600,-0.00012058
746.44845337,0.00021885
748.37726074,0.00029735
750.30606812,-0.00007160
752.23487549,0.00003160
754.16368286,0.00009398
756.09249023,-0.00000674
758.02129761,0.00006700
759.95010498,0.00016541
761.87891235,0.00012143
763.80771973,0.00026045
765.73652710,0.00039778
767.66533447,0.00014335
769.59414185,0.00013351
771.52294922,0.00038213
773.45175659,0.00024135
775.38056396,0.00013961
777.30937134,0.00031544
779.23817871,-0.00005473
781.16698608,-0.00021763
783.09579346,0.00004775
785.02460083,0.00055090
786.95340820,0.00055483
788.88221558,0.00004812
790.81102295,0.00038835
792.73983032,0.00030775
794.66863770,0.00019262
796.59744507,0.00027221
798.52625244,0.00031202
800.45505981,0.00049666
802.38386719,-0.00000564
804.31267456,0.00026335
806.24148193,0.00028520
808.17028931,-0.00009923
810.09909668,0.00019347
812.02790405,-0.00001574
813.95671143,0.00023820
815.88551880,0.00036408
817.81432617,0.00013703
819.74313354,0.00043038
821.67194092,0.00037494
823.60074829,0.00031175
825.52955566,0.00019258
827.45836304,0.00016058
829.38717041,0.00037917
831.31597778,0.00022194
833.24478516,0.00026767
835.17359253,0.00034173
837.10239990,0.00026634
839.03120728,0.00052359
840.96001465,0.00071089
842.88882202,0.00055417
844.81762939,0.00026052
846.74643677,0.00029626
848.67524414,0.00037152
850.60405151,0.00026795
852.53285889,0.00035224
854.46166626,0.00023354
856.39047363,0.00017086
858.31928101,0.00043975
860.24808838,0.00039715
862.17689575,0.00041310
864.10570313,0.00048398
866.03451050,0.00016054
867.96331787,0.00014988
869.89212524,0.00011459
871.82093262,0.00003750
873.74973999,0.00037083
875.67854736,0.00048631
877.60735474,0.00020297
879.53616211,0.00023261
881.46496948,0.00046127
883.39377686,0.00005408
885.32258423,0.00004762
887.25139160,0.00035663
889.18019897,0.00018930
891.10900635,0.00030051
893.03781372,0.00017991
894.96662109,0.00009340
896.89542847,0.00026607
898.82423584,0.00001027
900.75304321,0.00000106
902.68185059,0.00022041
904.61065796,0.00041316
906.53946533,0.00044902
908.46827271,0.00041969
910.39708008,0.00063745
912.32588745,0.00044964
914.25469482,0.00034117
916.18350220,0.00047536
918.11230957,0.00046916
920.04111694,0.00052745
921.96992432,0.00040938
923.89873169,0.00035255
925.82753906,0.00049049
927.75634644,0.00066739
929.68515381,0.00043139
931.61396118,0.00041964
933.54276855,0.00068993
935.47157593,0.00057314
937.40038330,0.00087769
939.32919067,0.00086315
941.25799805,0.00068974
943.18680542,0.00089571
945.11561279,0.00097121
947.04442017,0.00085949
948.97322754,0.00060193
950.90203491,0.00097231
952.83084229,0.00105427
954.75964966,0.00081774
956.68845703,0.00081632
958.61726440,0.00059101
960.54607178,0.00085061
962.47487915,0.00104559
964.40368652,0.00088842
966.33249390,0.00087149
968.26130127,0.00070331
970.19010864,0.00064333
972.11891602,0.00087819
974.04772339,0.00087462
975.97653076,0.00094226
977.90533813,0.00123019
979.83414551,0.00122685
981.76295288,0.00142421
983.69176025,0.00148891
985.62056763,0.00150977
987.54937500,0.00192205
989.47818237,0.00208363
991.40698975,0.00219136
993.33579712,0.00240862
995.26460449,0.00257498
997.19341187,0.00275140
999.12221924,0.00314845
1001.05102661,0.00345409
1002.97983398,0.00346024
1004.90864136,0.00358442
1006.83744873,0.00396725
1008.76625610,0.00425539
1010.69506348,0.00440633
1012.62387085,0.00480614
1014.55267822,0.00497873
1016.48148560,0.00530957
1018.41029297,0.00555536
1020.33910034,0.00562246
1022.26790771,0.00627435
1024.19671509,0.00643717
1026.12552246,0.00656675
1028.05432983,0.00673121
1029.98313721,0.00681685
1031.91194458,0.00721814
1033.84075195,0.00727961
1035.76955933,0.00745138
1037.69836670,0.00745953
1039.62717407,0.00762538
1041.55598145,0.00784308
1043.48478882,0.00765710
1045.41359619,0.00757123
1047.34240356,0.00716611
1049.27121094,0.00699216
1051.20001831,0.00709499
1053.12882568,0.00706649
1055.05763306,0.00683607
1056.98644043,0.00657816
1058.91524780,0.00657368
1060.84405518,0.00632743
1062.77286255,0.00613058
1064.70166992,0.00598099
1066.63047729,0.00574036
1068.55928467,0.00541173
1070.48809204,0.00511437
1072.41689941,0.00508715
1074.34570679,0.00485224
1076.27451416,0.00468637
1078.20332153,0.00461001
1080.13212891,0.00436526
1082.06093628,0.00416469
1083.98974365,0.00405995
1085.91855103,0.00392601
1087.84735840,0.00362297
1089.77616577,0.00352296
1091.70497314,0.00326231
1093.63378052,0.00304449
1095.56258789,0.00329536
1097.49139526,0.00306142
1099.42020264,0.00290388
1101.34901001,0.00295497
1103.27781738,0.00275441
1105.20662476,0.00278568
1107.13543213,0.00268449
1109.06423950,0.00277226
1110.99304687,0.00280019
1112.92185425,0.00269656
1114.85066162,0.00281112
1116.77946899,0.00269041
1118.70827637,0.00273062
1120.63708374,0.00254107
1122.56589111,0.00264149
1124.49469849,0.00274669
1126.42350586,0.00255068
1128.35231323,0.00299639
1130.28112061,0.00284506
1132.20992798,0.00278340
1134.13873535,0.00301864
1136.06754272,0.00308343
1137.99635010,0.00333567
1139.92515747,0.00340530
1141.85396484,0.00366546
1143.78277222,0.00373138
1145.71157959,0.00417790
1147.64038696,0.00444345
1149.56919434,0.00454864
1151.49800171,0.00507967
1153.42680908,0.00504756
1155.35561646,0.00541698
1157.28442383,0.00547482
1159.21323120,0.00561117
1161.14203857,0.00623492
1163.07084595,0.00618894
1164.99965332,0.00635112
1166.92846069,0.00652577
1168.85726807,0.00680477
1170.78607544,0.00710238
1172.71488281,0.00737917
1174.64369019,0.00775802
1176.57249756,0.00803281
1178.50130493,0.00848248
1180.43011230,0.00864484
1182.35891968,0.00904133
1184.28772705,0.00946380
1186.21653442,0.00981977
1188.14534180,0.01050376
1190.07414917,0.01073497
1192.00295654,0.01104367
1193.93176392,0.01180493
1195.86057129,0.01249962
1197.78937866,0.01302692
1199.71818604,0.01351348
1201.64699341,0.01404948
1203.57580078,0.01463600
1205.50460815,0.01528062
1207.43341553,0.01600196
1209.36222290,0.01662222
1211.29103027,0.01702624
1213.21983765,0.01745015
1215.14864502,0.01799832
1217.07745239,0.01830748
1219.00625977,0.01839931
1220.93506714,0.01896313
1222.86387451,0.01901682
1224.79268188,0.01880913
1226.72148926,0.01946448
1228.65029663,0.01964452
1230.57910400,0.01964628
1232.50791138,0.01971630
1234.43671875,0.01960662
1236.36552612,0.01980648
1238.29433350,0.01981841
1240.22314087,0.01967403
1242.15194824,0.01959816
1244.08075562,0.01968198
1246.00956299,0.01950634
1247.93837036,0.01921024
1249.86717773,0.01927707
1251.79598511,0.01929135
1253.72479248,0.01897392
1255.65359985,0.01859266
1257.58240723,0.01851652
1259.51121460,0.01813509
1261.44002197,0.01791676
1263.36882935,0.01791091
1265.29763672,0.01752486
1267.22644409,0.01751872
1269.15525146,0.01734336
1271.08405884,0.01685127
1273.01286621,0.01663360
1274.94167358,0.01635120
1276.87048096,0.01590212
1278.79928833,0.01575206
1280.72809570,0.01560808
1282.65690308,0.01509279
1284.58571045,0.01479274
1286.51451782,0.01462552
1288.44332520,0.01449082
1290.37213257,0.01426726
1292.30093994,0.01412957
1294.22974731,0.01397339
1296.15855469,0.01379139
1298.08736206,0.01421570
1300.01616943,0.01408894
1301.94497681,0.01405941
1303.87378418,0.01451578
1305.80259155,0.01420435
1307.73139893,0.01441492
1309.66020630,0.01478015
1311.58901367,0.01473546
1313.51782104,0.01532672
1315.44662842,0.01582851
1317.37543579,0.01623462
1319.30424316,0.01669873
1321.23305054,0.01690718
1323.16185791,0.01757570
1325.09066528,0.01806364
1327.01947266,0.01847202
1328.94828003,0.01926300
1330.87708740,0.01966227
1332.80589478,0.02015494
1334.73470215,0.02048829
1336.66350952,0.02060345
1338.59231689,0.02051446
1340.52112427,0.02073843
1342.44993164,0.02177915
1344.37873901,0.02181646
1346.30754639,0.02186574
1348.23635376,0.02200409
1350.16516113,0.02158261
1352.09396851,0.02170764
1354.02277588,0.02137626
1355.95158325,0.02126360
1357.88039062,0.02127073
1359.80919800,0.02067257
1361.73800537,0.01982791
1363.66681274,0.01970326
1365.59562012,0.02071505
1367.52442749,0.02013308
1369.45323486,0.01988231
1371.38204224,0.02040864
1373.31084961,0.01934412
1375.23965698,0.01941588
1377.16846436,0.01995128
1379.09727173,0.01982192
1381.02607910,0.01996030
1382.95488647,0.02004786
1384.88369385,0.01981055
1386.81250122,0.01896433
1388.74130859,0.01936761
1390.67011597,0.02092294
1392.59892334,0.02051542
1394.52773071,0.01922080
1396.45653809,0.02006412
1398.38534546,0.02002183
1400.31415283,0.01988318
1402.24296021,0.02150022
1404.17176758,0.02041043
1406.10057495,0.02050463
1408.02938232,0.02148972
1409.95818970,0.02081255
1411.88699707,0.02121571
1413.81580444,0.02042866
1415.74461182,0.02064412
1417.67341919,0.01896246
1419.60222656,0.01692171
1421.53103394,0.01937136
1423.45984131,0.01887296
1425.38864868,0.01809667
1427.31745605,0.01855482
1429.24626343,0.01699214
1431.17507080,0.01655501
1433.10387817,0.01709260
1435.03268555,0.01563457
1436.96149292,0.01345173
1438.89030029,0.01488917
1440.81910767,0.01511014
1442.74791504,0.01416470
1444.67672241,0.01506790
1446.60552979,0.01387930
1448.53433716,0.01384564
1450.46314453,0.01438749
1452.39195190,0.01473417
1454.32075928,0.01528214
1456.24956665,0.01265841
1458.17837402,0.01335202
1460.10718140,0.01764035
1462.03598877,0.01872072
1463.96479614,0.01873624
1465.89360352,0.01935676
1467.82241089,0.02202953
1469.75121826,0.02375520
1471.68002563,0.02123221
1473.60883301,0.02228682
1475.53764038,0.02527313
1477.46644775,0.02713605
1479.39525513,0.02970969
1481.32406250,0.03027812
1483.25286987,0.03238311
1485.18167725,0.03355841
1487.11048462,0.03285506
1489.03929199,0.03262822
1490.96809937,0.03293999
1492.89690674,0.03795040
1494.82571411,0.03719416
1496.75452148,0.03367535
1498.68332886,0.03779427
1500.61213623,0.03888664
1502.54094360,0.04172625
1504.46975098,0.03974192
1506.39855835,0.02926756
1508.32736572,0.03535105
1510.25617310,0.04138270
1512.18498047,0.04014011
1514.11378784,0.04354147
1516.04259521,0.03949703
1517.97140259,0.04108578
1519.90020996,0.03974393
1521.82901733,0.03464375
1523.75782471,0.04215048
1525.68663208,0.04139274
1527.61543945,0.04120601
1529.54424683,0.04550184
1531.47305420,0.04393896
1533.40186157,0.04055867
1535.33066895,0.04266173
1537.25947632,0.04555329
1539.18828369,0.03318434
1541.11709106,0.03443439
1543.04589844,0.04115199
1544.97470581,0.03955555
1546.90351318,0.04655172
1548.83232056,0.04371551
1550.76112793,0.04493136
1552.68993530,0.04479525
1554.61874268,0.04074185
1556.54755005,0.04346541
1558.47635742,0.03148580
1560.40516479,0.03364871
1562.33397217,0.04701673
1564.26277954,0.04479081
1566.19158691,0.04591297
1568.12039429,0.04553571
1570.04920166,0.04065274
1571.97800903,0.04644316
1573.90681641,0.04718003
1575.83562378,0.03791478
1577.76443115,0.04266603
1579.69323853,0.04823224
1581.62204590,0.04619229
1583.55085327,0.04719292
1585.47966064,0.04645190
1587.40846802,0.04677479
1589.33727539,0.04658183
1591.26608276,0.04654496
1593.19489014,0.04663495
1595.12369751,0.04621981
1597.05250488,0.04670737
1598.98131226,0.04650627
1600.91011963,0.04680501
1602.83892700,0.04595822
1604.76773437,0.04691414
1606.69654175,0.04611938
1608.62534912,0.04609588
1610.55415649,0.04628367
1612.48296387,0.04651845
1614.41177124,0.04729435
1616.34057861,0.03893504
1618.26938599,0.04197085
1620.19819336,0.04864717
1622.12700073,0.04340254
1624.05580811,0.04370279
1625.98461548,0.04560039
1627.91342285,0.04546419
1629.84223022,0.04536910
1631.77103760,0.04833786
1633.69984497,0.04472076
1635.62865234,0.03719955
1637.55745972,0.04312839
1639.48626709,0.04711048
1641.41507446,0.04614013
1643.34388184,0.04761510
1645.27268921,0.04300312
1647.20149658,0.03800445
1649.13030396,0.04684647
1651.05911133,0.04467683
1652.98791870,0.02928236
1654.91672607,0.03898542
1656.84553345,0.04872590
1658.77434082,0.04660137
1660.70314819,0.04808639
1662.63195557,0.04384331
1664.56076294,0.04597780
1666.48957031,0.04962164
1668.41837769,0.04352294
1670.34718506,0.04220286
1672.27599243,0.04778782
1674.20479980,0.04427464
1676.13360718,0.04238404
1678.06241455,0.04866756
1679.99122192,0.04695891
1681.92002930,0.04648449
1683.84883667,0.03837788
1685.77764404,0.03773616
1687.70645142,0.05105931
1689.63525879,0.04470514
1691.56406616,0.04890239
1693.49287354,0.04999115
1695.42168091,0.03693737
1697.35048828,0.04513571
1699.27929565,0.04013241
1701.20810303,0.03608237
1703.13691040,0.04859770
1705.06571777,0.04496767
1706.99452515,0.04501198
1708.92333252,0.04895104
1710.85213989,0.04739807
1712.78094727,0.04803813
1714.70975464,0.04476641
1716.63856201,0.04038513
1718.56736938,0.03961688
1720.49617676,0.04665513
1722.42498413,0.04857194
1724.35379150,0.04518301
1726.28259888,0.04893710
1728.21140625,0.04551981
1730.14021362,0.04579488
1732.06902100,0.04462793
1733.99782837,0.03432699
1735.92663574,0.04233245
1737.85544312,0.04686271
1739.78425049,0.04198157
1741.71305786,0.04565354
1743.64186523,0.04607198
1745.57067261,0.04615107
1747.49947998,0.04660582
1749.42828735,0.04464045
1751.35709473,0.04282153
1753.28590210,0.04725675
1755.21470947,0.04958504
1757.14351685,0.04517336
1759.07232422,0.04948598
1761.00113159,0.04684936
1762.92993896,0.04512396
1764.85874634,0.05145795
1766.78755371,0.04651722
1768.71636108,0.04708619
1770.64516846,0.04684335
1772.57397583,0.04213675
1774.50278320,0.04688834
1776.43159058,0.04936781
1778.36039795,0.04887522
1780.28920532,0.04845603
1782.21801270,0.04881638
1784.14682007,0.04878443
1786.07562744,0.04770857
1788.00443481,0.05028731
1789.93324219,0.04923600
1791.86204956,0.04451578
1793.79085693,0.04651891
1795.71966431,0.04989764
1797.64847168,0.04912891
1799.57727905,0.04847077
1801.50608643,0.04762587
1803.43489380,0.04917617
1805.36370117,0.05022938
1807.29250854,0.04946238
1809.22131592,0.04977456
1811.15012329,0.04844479
1813.07893066,0.04991190
1815.00773804,0.05032528
1816.93654541,0.04976804
1818.86535278,0.05011259
1820.79416016,0.04991950
1822.72296753,0.05084521
1824.65177490,0.04763839
1826.58058228,0.04907732
1828.50938965,0.04932128
1830.43819702,0.04660469
1832.36700439,0.05046432
1834.29581177,0.05012778
1836.22461914,0.05025827
1838.15342651,0.05000307
1840.08223389,0.05023091
1842.01104126,0.05044924
1843.93984863,0.04501234
1845.86865601,0.04784110
1847.79746338,0.05037990
1849.72627075,0.04937746
1851.65507812,0.05074586
1853.58388550,0.04978547
1855.51269287,0.05038658
1857.44150024,0.04999152
1859.37030762,0.04978194
1861.29911499,0.05026316
1863.22792236,0.04953910
1865.15672974,0.05019971
1867.08553711,0.04885638
1869.01434448,0.04664906
1870.94315186,0.04836326
1872.87195923,0.05034687
1874.80076660,0.04950683
1876.72957397,0.04985854
1878.65838135,0.04961468
1880.58718872,0.04932763
1882.51599609,0.04998897
1884.44480347,0.04915814
1886.37361084,0.04996819
1888.30241821,0.04888885
1890.23122559,0.04798554
1892.16003296,0.04980838
1894.08884033,0.04884806
1896.01764771,0.04870873
1897.94645508,0.04943485
1899.87526245,0.04922277
1901.80406982,0.04937441
1903.73287720,0.04912786
1905.66168457,0.04938251
1907.59049194,0.04893174
1909.51929932,0.04865912
1911.44810669,0.04883081
1913.37691406,0.04894246
1915.30572144,0.04940660
1917.23452881,0.04729250
1919.16333618,0.04754042
1921.09214355,0.04934406
1923.02095093,0.04774911
1924.94975830,0.04875413
1926.87856567,0.04932928
1928.80737305,0.04868532
1930.73618042,0.04936983
1932.66498779,0.04868217
1934.59379517,0.04910013
1936.52260254,0.04888301
1938.45140991,0.04889562
1940.38021729,0.04897298
1942.30902466,0.04745059
1944.23783203,0.04830261
1946.16663940,0.04892601
1948.09544678,0.04874275
1950.02425415,0.04893636
1951.95306152,0.04880059
1953.88186890,0.04896881
1955.81067627,0.04881202
1957.73948364,0.04891952
1959.66829102,0.04887669
1961.59709839,0.04872403
1963.52590576,0.04896779
1965.45471313,0.04874164
1967.38352051,0.04826695
1969.31232788,0.04868261
1971.24113525,0.04907385
1973.16994263,0.04884692
1975.09875000,0.04894790
1977.02755737,0.04873068
1978.95636475,0.04879933
1980.88517212,0.04870451
1982.81397949,0.04849591
1984.74278687,0.04877482
1986.67159424,0.04854662
1988.60040161,0.04869182
1990.52920898,0.04822688
1992.45801636,0.04778462
1994.38682373,0.04842328
1996.31563110,0.04841089
1998.24443848,0.04826286
2000.17324585,0.04828953
2002.10205322,0.04824726
2004.03086060,0.04824985
2005.95966797,0.04812681
2007.88847534,0.04801509
2009.81728271,0.04799727
2011.74609009,0.04791728
2013.67489746,0.04790548
2015.60370483,0.04764841
2017.53251221,0.04723962
2019.46131958,0.04757182
2021.39012695,0.04762252
2023.31893433,0.04742683
2025.24774170,0.04747188
2027.17654907,0.04722886
2029.10535645,0.04736005
2031.03416382,0.04747616
2032.96297119,0.04722884
2034.89177856,0.04711110
2036.82058594,0.04704328
2038.74939331,0.04697211
2040.67820068,0.04683735
2042.60700806,0.04662326
2044.53581543,0.04669843
2046.46462280,0.04677257
2048.39343018,0.04667521
2050.32223755,0.04678133
2052.25104492,0.04659545
2054.17985229,0.04647099
2056.10865967,0.04648328
2058.03746704,0.04629153
2059.96627441,0.04629566
2061.89508179,0.04629242
2063.82388916,0.04606593
2065.75269653,0.04576082
2067.68150391,0.04601488
2069.61031128,0.04620363
2071.53911865,0.04599588
2073.46792603,0.04592917
2075.39673340,0.04572983
2077.32554077,0.04576775
2079.25434814,0.04574005
2081.18315552,0.04565582
2083.11196289,0.04561310
2085.04077026,0.04552703
2086.96957764,0.04562474
2088.89838501,0.04537364
2090.82719238,0.04535548
2092.75599976,0.04544004
2094.68480713,0.04529706
2096.61361450,0.04535151
2098.54242187,0.04522615
2100.47122925,0.04517568
2102.40003662,0.04514211
2104.32884399,0.04505744
2106.25765137,0.04510063
2108.18645874,0.04501363
2110.11526611,0.04507577
2112.04407349,0.04492941
2113.97288086,0.04467470
2115.90168823,0.04487634
2117.83049561,0.04479109
2119.75930298,0.04473899
2121.68811035,0.04474387
2123.61691772,0.04452971
2125.54572510,0.04469538
2127.47453247,0.04449101
2129.40333984,0.04439759
2131.33214722,0.04464671
2133.26095459,0.04440996
2135.18976196,0.04432430
2137.11856934,0.04441385
2139.04737671,0.04440016
2140.97618408,0.04423032
2142.90499146,0.04423773
2144.83379883,0.04430721
2146.76260620,0.04416015
2148.69141357,0.04425387
2150.62022095,0.04421926
2152.54902832,0.04416535
2154.47783569,0.04420661
2156.40664307,0.04409850
2158.33545044,0.04410262
2160.26425781,0.04412889
2162.19306519,0.04404096
2164.12187256,0.04401472
2166.05067993,0.04410578
2167.97948730,0.04399820
2169.90829468,0.04381815
2171.83710205,0.04378599
2173.76590942,0.04384415
2175.69471680,0.04382722
2177.62352417,0.04378268
2179.55233154,0.04386872
2181.48113892,0.04382355
2183.40994629,0.04373893
2185.33875366,0.04364227
2187.26756104,0.04365198
2189.19636841,0.04372578
2191.12517578,0.04365680
2193.05398315,0.04364336
2194.98279053,0.04361327
2196.91159790,0.04357575
2198.84040527,0.04345988
2200.76921265,0.04353908
2202.69802002,0.04359870
2204.62682739,0.04340493
2206.55563477,0.04350416
2208.48444214,0.04344739
2210.41324951,0.04337384
2212.34205688,0.04343510
2214.27086426,0.04327187
2216.19967163,0.04332507
2218.12847900,0.04329723
2220.05728638,0.04308927
2221.98609375,0.04314975
2223.91490112,0.04314616
2225.84370850,0.04303485
2227.77251587,0.04307223
2229.70132324,0.04308935
2231.63013062,0.04303500
2233.55893799,0.04298467
2235.48774536,0.04296391
2237.41655273,0.04295802
2239.34536011,0.04291337
2241.27416748,0.04276909
2243.20297485,0.04275067
2245.13178223,0.04288503
2247.06058960,0.04271564
2248.98939697,0.04251355
2250.91820435,0.04255361
2252.84701172,0.04259332
2254.77581909,0.04246847
2256.70462646,0.04241366
2258.63343384,0.04248310
2260.56224121,0.04237235
2262.49104858,0.04240087
2264.41985596,0.04234079
2266.34866333,0.04230237
2268.27747070,0.04232398
2270.20627808,0.04213285
2272.13508545,0.04227011
2274.06389282,0.04221150
2275.99270020,0.04217311
2277.92150757,0.04225746
2279.85031494,0.04212027
2281.77912231,0.04224720
2283.70792969,0.04207401
2285.63673706,0.04194668
2287.56554443,0.04208286
2289.49435181,0.04185394
2291.42315918,0.04174850
2293.35196655,0.04175703
2295.28077393,0.04158917
2297.20958130,0.04158190
2299.13838867,0.04148147
2301.06719604,0.04119383
2302.99600342,0.04106621
2304.92481079,0.04093853
2306.85361816,0.04076386
2308.78242554,0.04039617
2310.71123291,0.04015855
2312.64004028,0.03984483
2314.56884766,0.03937402
2316.49765503,0.03916023
2318.42646240,0.03851671
2320.35526978,0.03809062
2322.28407715,0.03763003
2324.21288452,0.03704052
2326.14169189,0.03688108
2328.07049927,0.03633700
2329.99930664,0.03595382
2331.92811401,0.03565067
2333.85692139,0.03564391
2335.78572876,0.03566046
2337.71453613,0.03541236
2339.64334351,0.03554804
2341.57215088,0.03555513
2343.50095825,0.03606109
2345.42976562,0.03674652
2347.35857300,0.03819160
2349.28738037,0.03947634
2351.21618774,0.03811667
2353.14499512,0.03632563
2355.07380249,0.03503728
2357.00260986,0.03401883
2358.93141724,0.03349118
2360.86022461,0.03307360
2362.78903198,0.03303030
2364.71783936,0.03312780
2366.64664673,0.03362495
2368.57545410,0.03437356
2370.50426147,0.03515866
2372.43306885,0.03616724
2374.36187622,0.03712074
2376.29068359,0.03800143
2378.21949097,0.03891110
2380.14829834,0.03950357
2382.07710571,0.03977292
2384.00591309,0.04014813
2385.93472046,0.04036645
2387.86352783,0.04050964
2389.79233521,0.04049928
2391.72114258,0.04041240
2393.64994995,0.04047874
2395.57875732,0.04036057
2397.50756470,0.04036678
2399.43637207,0.04033630
2401.36517944,0.04025964
2403.29398682,0.04022090
2405.22279419,0.04019604
2407.15160156,0.04032489
2409.08040894,0.04020634
2411.00921631,0.04010739
2412.93802368,0.04010207
2414.86683105,0.04006027
2416.79563843,0.04006257
2418.72444580,0.04000726
2420.65325317,0.03998370
2422.58206055,0.03999040
2424.51086792,0.03998205
2426.43967529,0.03985171
2428.36848267,0.03979649
2430.29729004,0.03989568
2432.22609741,0.03980734
2434.15490479,0.03969651
2436.08371216,0.03979285
2438.01251953,0.03974754
2439.94132690,0.03970560
2441.87013428,0.03972076
2443.79894165,0.03951147
2445.72774902,0.03953651
2447.65655640,0.03956791
2449.58536377,0.03948043
2451.51417114,0.03955476
2453.44297852,0.03946286
2455.37178589,0.03933858
2457.30059326,0.03936091
2459.22940063,0.03935757
2461.15820801,0.03925714
2463.08701538,0.03926399
2465.01582275,0.03927729
2466.94463013,0.03922731
2468.87343750,0.03921139
2470.80224487,0.03922257
2472.73105225,0.03925401
2474.65985962,0.03908938
2476.58866699,0.03912299
2478.51747437,0.03918501
2480.44628174,0.03904068
2482.37508911,0.03902529
2484.30389648,0.03892237
2486.23270386,0.03889655
2488.16151123,0.03891493
2490.09031860,0.03885623
2492.01912598,0.03883901
2493.94793335,0.03884576
2495.87674072,0.03881762
2497.80554810,0.03871878
2499.73435547,0.03863444
2501.66316284,0.03861215
2503.59197021,0.03862340
2505.52077759,0.03853370
2507.44958496,0.03867238
2509.37839233,0.03866399
2511.30719971,0.03845515
2513.23600708,0.03856634
2515.16481445,0.03846712
2517.09362183,0.03841284
2519.02242920,0.03850552
2520.95123657,0.03845461
2522.88004395,0.03835679
2524.80885132,0.03838801
2526.73765869,0.03841431
2528.66646606,0.03820981
2530.59527344,0.03826666
2532.52408081,0.03816708
2534.45288818,0.03810890
2536.38169556,0.03821277
2538.31050293,0.03794814
2540.23931030,0.03798846
2542.16811768,0.03807593
2544.09692505,0.03797353
2546.02573242,0.03795708
2547.95453979,0.03799149
2549.88334717,0.03798915
2551.81215454,0.03798656
2553.74096191,0.03799885
2555.66976929,0.03776220
2557.59857666,0.03778032
2559.52738403,0.03788077
2561.45619141,0.03777292
2563.38499878,0.03775883
2565.31380615,0.03763468
2567.24261353,0.03762219
2569.17142090,0.03771100
2571.10022827,0.03760900
2573.02903564,0.03752241
2574.95784302,0.03753195
2576.88665039,0.03742412
2578.81545776,0.03743224
2580.74426514,0.03750784
2582.67307251,0.03735593
2584.60187988,0.03734750
2586.53068726,0.03732338
2588.45949463,0.03728425
2590.38830200,0.03742895
2592.31710937,0.03732526
2594.24591675,0.03713125
2596.17472412,0.03710657
2598.10353149,0.03706277
2600.03233887,0.03711943
2601.96114624,0.03717669
2603.88995361,0.03706410
2605.81876099,0.03704999
2607.74756836,0.03697519
2609.67637573,0.03694898
2611.60518311,0.03701748
2613.53399048,0.03687982
2615.46279785,0.03688235
2617.39160522,0.03692304
2619.32041260,0.03680188
2621.24921997,0.03673344
2623.17802734,0.03676503
2625.10683472,0.03668755
2627.03564209,0.03654440
2628.96444946,0.03660657
2630.89325684,0.03664894
2632.82206421,0.03664148
2634.75087158,0.03648918
2636.67967895,0.03633707
2638.60848633,0.03649230
2640.53729370,0.03646522
2642.46610107,0.03633912
2644.39490845,0.03637566
2646.32371582,0.03632160
2648.25252319,0.03633565
2650.18133057,0.03633009
2652.11013794,0.03619055
2654.03894531,0.03627682
2655.96775269,0.03621070
2657.89656006,0.03602247
2659.82536743,0.03613070
2661.75417480,0.03609750
2663.68298218,0.03599495
2665.61178955,0.03595620
2667.54059692,0.03592794
2669.46940430,0.03593441
2671.39821167,0.03589106
2673.32701904,0.03585577
2675.25582642,0.03584531
2677.18463379,0.03579046
2679.11344116,0.03564982
2681.04224854,0.03579678
2682.97105591,0.03581522
2684.89986328,0.03567623
2686.82867065,0.03581094
2688.75747803,0.03563981
2690.68628540,0.03559660
2692.61509277,0.03568790
2694.54390015,0.03556943
2696.47270752,0.03553984
2698.40151489,0.03544355
2700.33032227,0.03537696
2702.25912964,0.03532041
2704.18793701,0.03532727
2706.11674438,0.03527872
2708.04555176,0.03516778
2709.97435913,0.03519098
2711.90316650,0.03516296
2713.83197388,0.03518771
2715.76078125,0.03513286
2717.68958862,0.03506115
2719.61839600,0.03513250
2721.54720337,0.03507465
2723.47601074,0.03498613
2725.40481812,0.03497718
2727.33362549,0.03490338
2729.26243286,0.03492060
2731.19124023,0.03490027
2733.12004761,0.03474339
2735.04885498,0.03483951
2736.97766235,0.03478906
2738.90646973,0.03465040
2740.83527710,0.03468500
2742.76408447,0.03452472
2744.69289185,0.03444110
2746.62169922,0.03449091
2748.55050659,0.03452197
2750.47931396,0.03443462
2752.40812134,0.03441562
2754.33692871,0.03446212
2756.26573608,0.03437579
2758.19454346,0.03437693
2760.12335083,0.03423960
2762.05215820,0.03419335
2763.98096558,0.03419827
2765.90977295,0.03413067
2767.83858032,0.03419748
2769.76738770,0.03405714
2771.69619507,0.03400627
2773.62500244,0.03393471
2775.55380981,0.03383449
2777.48261719,0.03396933
2779.41142456,0.03386926
2781.34023193,0.03377019
2783.26903931,0.03386635
2785.19784668,0.03386087
2787.12665405,0.03369670
2789.05546143,0.03360644
2790.98426880,0.03363278
2792.91307617,0.03352790
2794.84188354,0.03341501
2796.77069092,0.03337820
2798.69949829,0.03341584
2800.62830566,0.03343617
2802.55711304,0.03332867
2804.48592041,0.03331065
2806.41472778,0.03330947
2808.34353516,0.03324412
2810.27234253,0.03315679
2812.20114990,0.03299780
2814.12995728,0.03306511
2816.05876465,0.03316730
2817.98757202,0.03297704
2819.91637939,0.03288270
2821.84518677,0.03288817
2823.77399414,0.03282503
2825.70280151,0.03278871
2827.63160889,0.03272271
2829.56041626,0.03261354
2831.48922363,0.03255192
2833.41803101,0.03254019
2835.34683838,0.03253703
2837.27564575,0.03250293
2839.20445312,0.03237060
2841.13326050,0.03227992
2843.06206787,0.03223735
2844.99087524,0.03210696
2846.91968262,0.03195383
2848.84848999,0.03183788
2850.77729736,0.03178222
2852.70610474,0.03175063
2854.63491211,0.03170849
2856.56371948,0.03162430
2858.49252686,0.03163049
2860.42133423,0.03169768
2862.35014160,0.03166737
2864.27894897,0.03161353
2866.20775635,0.03158116
2868.13656372,0.03159436
2870.06537109,0.03142372
2871.99417847,0.03130611
2873.92298584,0.03146766
2875.85179321,0.03145777
2877.78060059,0.03129470
2879.70940796,0.03124646
2881.63821533,0.03130017
2883.56702270,0.03129257
2885.49583008,0.03129693
2887.42463745,0.03109868
2889.35344482,0.03097647
2891.28225220,0.03118412
2893.21105957,0.03097738
2895.13986694,0.03089948
2897.06867432,0.03094721
2898.99748169,0.03080657
2900.92628906,0.03084738
2902.85509644,0.03068668
2904.78390381,0.03071485
2906.71271118,0.03067673
2908.64151855,0.03045268
2910.57032593,0.03046332
2912.49913330,0.03024373
2914.42794067,0.03007573
2916.35674805,0.02999406
2918.28555542,0.02995541
2920.21436279,0.02998918
2922.14317017,0.02987289
2924.07197754,0.02987279
2926.00078491,0.02983311
2927.92959229,0.02975210
2929.85839966,0.02979410
2931.78720703,0.02978279
2933.71601440,0.02975475
2935.64482178,0.02971966
2937.57362915,0.02972288
2939.50243652,0.02976251
2941.43124390,0.02968636
2943.36005127,0.02974593
2945.28885864,0.02983860
2947.21766602,0.02972345
2949.14647339,0.02971098
2951.07528076,0.02961536
2953.00408813,0.02951522
2954.93289551,0.02947692
2956.86170288,0.02937623
2958.79051025,0.02948655
2960.71931763,0.02937493
2962.64812500,0.02922447
2964.57693237,0.02923322
2966.50573975,0.02909913
2968.43454712,0.02921615
2970.36335449,0.02931925
2972.29216187,0.02922855
2974.22096924,0.02922814
2976.14977661,0.02927604
2978.07858398,0.02929186
2980.00739136,0.02927571
2981.93619873,0.02928905
2983.86500610,0.02926272
2985.79381348,0.02933718
2987.72262085,0.02931610
2989.65142822,0.02914252
2991.58023560,0.02910253
2993.50904297,0.02908723
2995.43785034,0.02917310
2997.36665771,0.02910998
2999.29546509,0.02905116
3001.22427246,0.02912743
3003.15307983,0.02897303
3005.08188721,0.02896113
3007.01069458,0.02891708
3008.93950195,0.02887560
3010.86830933,0.02882960
3012.79711670,0.02858889
3014.72592407,0.02872336
3016.65473145,0.02873831
3018.58353882,0.02859044
3020.51234619,0.02855480
3022.44115356,0.02849164
3024.36996094,0.02857902
3026.29876831,0.02850689
3028.22757568,0.02842974
3030.15638306,0.02828791
3032.08519043,0.02824957
3034.01399780,0.02834772
3035.94280518,0.02815633
3037.87161255,0.02821165
3039.80041992,0.02811712
3041.72922729,0.02794944
3043.65803467,0.02811103
3045.58684204,0.02798538
3047.51564941,0.02785600
3049.44445679,0.02791391
3051.37326416,0.02794449
3053.30207153,0.02782004
3055.23087891,0.02769209
3057.15968628,0.02775365
3059.08849365,0.02773295
3061.01730103,0.02759916
3062.94610840,0.02748380
3064.87491577,0.02748748
3066.80372314,0.02752074
3068.73253052,0.02745535
3070.66133789,0.02743014
3072.59014526,0.02749339
3074.51895264,0.02744908
3076.44776001,0.02735478
3078.37656738,0.02723485
3080.30537476,0.02712769
3082.23418213,0.02726183
3084.16298950,0.02719687
3086.09179687,0.02709335
3088.02060425,0.02713928
3089.94941162,0.02701265
3091.87821899,0.02700815
3093.80702637,0.02694197
3095.73583374,0.02688619
3097.66464111,0.02684057
3099.59344849,0.02667858
3101.52225586,0.02678398
3103.45106323,0.02677199
3105.37987061,0.02667623
3107.30867798,0.02665833
3109.23748535,0.02650573
3111.16629272,0.02651752
3113.09510010,0.02647187
3115.02390747,0.02627708
3116.95271484,0.02624885
3118.88152222,0.02619568
3120.81032959,0.02619288
3122.73913696,0.02617908
3124.66794434,0.02608115
3126.59675171,0.02613615
3128.52555908,0.02605674
3130.45436645,0.02596477
3132.38317383,0.02592013
3134.31198120,0.02579869
3136.24078857,0.02587258
3138.16959595,0.02589846
3140.09840332,0.02575888
3142.02721069,0.02568069
3143.95601807,0.02568780
3145.88482544,0.02562254
3147.81363281,0.02557509
3149.74244019,0.02550294
3151.67124756,0.02542349
3153.60005493,0.02547138
3155.52886230,0.02528353
3157.45766968,0.02519527
3159.38647705,0.02515640
3161.31528442,0.02499667
3163.24409180,0.02500431
3165.17289917,0.02495213
3167.10170654,0.02490997
3169.03051392,0.02478282
3170.95932129,0.02484536
3172.88812866,0.02488836
3174.81693604,0.02465284
3176.74574341,0.02468894
3178.67455078,0.02462347
3180.60335815,0.02450982
3182.53216553,0.02451052
3184.46097290,0.02447197
3186.38978027,0.02442519
3188.31858765,0.02434432
3190.24739502,0.02430367
3192.17620239,0.02421661
3194.10500977,0.02418573
3196.03381714,0.02413221
3197.96262451,0.02406335
3199.89143188,0.02404702
3201.82023926,0.02406656
3203.74904663,0.02401837
3205.67785400,0.02385906
3207.60666138,0.02386005
3209.53546875,0.02385857
3211.46427612,0.02380070
3213.39308350,0.02371199
3215.32189087,0.02374407
3217.25069824,0.02376701
3219.17950562,0.02364664
3221.10831299,0.02365452
3223.03712036,0.02354887
3224.96592773,0.02353911
3226.89473511,0.02355672
3228.82354248,0.02341664
3230.75234985,0.02334953
3232.68115723,0.02337074
3234.60996460,0.02340339
3236.53877197,0.02334692
3238.46757935,0.02338210
3240.39638672,0.02323806
3242.32519409,0.02313003
3244.25400146,0.02320720
3246.18280884,0.02324513
3248.11161621,0.02323184
3250.04042358,0.02302209
3251.96923096,0.02313066
3253.89803833,0.02316127
3255.82684570,0.02307960
3257.75565308,0.02317092
3259.68446045,0.02298960
3261.61326782,0.02302997
3263.54207520,0.02307919
3265.47088257,0.02296700
3267.39968994,0.02302523
3269.32849731,0.02296406
3271.25730469,0.02286420
3273.18611206,0.02287293
3275.11491943,0.02288416
3277.04372681,0.02292896
3278.97253418,0.02287272
3280.90134155,0.02282688
3282.83014893,0.02292189
3284.75895630,0.02280010
3286.68776367,0.02277840
3288.61657104,0.02277111
3290.54537842,0.02269562
3292.47418579,0.02276072
3294.40299316,0.02270707
3296.33180054,0.02280188
3298.26060791,0.02267075
3300.18941528,0.02254073
3302.11822266,0.02266238
3304.04703003,0.02255819
3305.97583740,0.02252316
3307.90464478,0.02250273
3309.83345215,0.02250531
3311.76225952,0.02249524
3313.69106689,0.02254045
3315.61987427,0.02257908
3317.54868164,0.02245573
3319.47748901,0.02241620
3321.40629639,0.02237292
3323.33510376,0.02226888
3325.26391113,0.02216646
3327.19271851,0.02232787
3329.12152588,0.02238171
3331.05033325,0.02224816
3332.97914062,0.02218527
3334.90794800,0.02213134
3336.83675537,0.02218434
3338.76556274,0.02210627
3340.69437012,0.02210933
3342.62317749,0.02208300
3344.55198486,0.02208366
3346.48079224,0.02206338
3348.40959961,0.02197531
3350.33840698,0.02205900
3352.26721436,0.02188240
3354.19602173,0.02189578
3356.12482910,0.02188436
3358.05363647,0.02179045
3359.98244385,0.02179210
3361.91125122,0.02166870
3363.84005859,0.02168989
3365.76886597,0.02159743
3367.69767334,0.02168922
3369.62648071,0.02164565
3371.55528809,0.02154948
3373.48409546,0.02165287
3375.41290283,0.02158110
3377.34171020,0.02161807
3379.27051758,0.02155230
3381.19932495,0.02146050
3383.12813232,0.02133940
3385.05693970,0.02132271
3386.98574707,0.02133128
3388.91455444,0.02135489
3390.84336182,0.02129777
3392.77216919,0.02104610
3394.70097656,0.02125122
3396.62978394,0.02112791
3398.55859131,0.02103937
3400.48739868,0.02116093
3402.41620605,0.02097342
3404.34501343,0.02104823
3406.27382080,0.02101295
3408.20262817,0.02096183
3410.13143555,0.02097077
3412.06024292,0.02106584
3413.98905029,0.02093241
3415.91785767,0.02078321
3417.84666504,0.02094981
3419.77547241,0.02077466
3421.70427979,0.02072490
3423.63308716,0.02071575
3425.56189453,0.02072715
3427.49070190,0.02072459
3429.41950928,0.02062226
3431.34831665,0.02063908
3433.27712402,0.02051583
3435.20593140,0.02050872
3437.13473877,0.02050126
3439.06354614,0.02052524
3440.99235352,0.02040544
3442.92116089,0.02033844
3444.84996826,0.02038714
3446.77877563,0.02015159
3448.70758301,0.02022608
3450.63639038,0.02035283
3452.56519775,0.02033028
3454.49400513,0.02039205
3456.42281250,0.02038565
3458.35161987,0.02023476
3460.28042725,0.02015872
3462.20923462,0.02013489
3464.13804199,0.02013227
3466.06684937,0.02015053
3467.99565674,0.01998422
3469.92446411,0.02009431
3471.85327148,0.02012340
3473.78207886,0.02008433
3475.71088623,0.02002396
3477.63969360,0.01997841
3479.56850098,0.02011349
3481.49730835,0.01977243
3483.42611572,0.01986933
3485.35492310,0.02003469
3487.28373047,0.01991397
3489.21253784,0.01994592
3491.14134521,0.01985550
3493.07015259,0.01995898
3494.99895996,0.01985464
3496.92776733,0.01983408
3498.85657471,0.01993994
3500.78538208,0.01994405
3502.71418945,0.01960634
3504.64299683,0.01956523
3506.57180420,0.02005707
3508.50061157,0.01969966
3510.42941895,0.01968651
3512.35822632,0.01994133
3514.28703369,0.01985951
3516.21584106,0.01988217
3518.14464844,0.01976454
3520.07345581,0.01985936
3522.00226318,0.01969303
3523.93107056,0.01949881
3525.85987793,0.01950181
3527.78868530,0.01957188
3529.71749268,0.01959431
3531.64630005,0.01963885
3533.57510742,0.01988762
3535.50391479,0.01967791
3537.43272217,0.01962907
3539.36152954,0.01989292
3541.29033691,0.01981524
3543.21914429,0.01957151
3545.14795166,0.01927380
3547.07675903,0.01905861
3549.00556641,0.01952519
3550.93437378,0.01975591
3552.86318115,0.01931170
3554.79198853,0.01961510
3556.72079590,0.01980010
3558.64960327,0.01960870
3560.57841064,0.01937010
3562.50721802,0.01936424
3564.43602539,0.01953274
3566.36483276,0.01832340
3568.29364014,0.01793247
3570.22244751,0.01933603
3572.15125488,0.01980541
3574.08006226,0.01950560
3576.00886963,0.01964313
3577.93767700,0.01950886
3579.86648437,0.01944826
3581.79529175,0.01962806
3583.72409912,0.01965855
3585.65290649,0.01920851
3587.58171387,0.01766643
3589.51052124,0.01819516
3591.43932861,0.01971062
3593.36813599,0.01922003
3595.29694336,0.01894796
3597.22575073,0.01919128
3599.15455811,0.01937530
3601.08336548,0.01914791
3603.01217285,0.01931344
3604.94098022,0.01963010
3606.86978760,0.01896845
3608.79859497,0.01800175
3610.72740234,0.01831354
3612.65620972,0.01874373
3614.58501709,0.01822793
3616.51382446,0.01949757
3618.44263184,0.01814483
3620.37143921,0.01748015
3622.30024658,0.01965645
3624.22905395,0.01912024
3626.15786133,0.01992374
3628.08666870,0.01705057
3630.01547607,0.01564316
3631.94428345,0.01946103
3633.87309082,0.01893684
3635.80189819,0.01928572
3637.73070557,0.01963995
3639.65951294,0.01934505
3641.58832031,0.01957003
3643.51712769,0.01927306
3645.44593506,0.01947197
3647.37474243,0.01752446
3649.30354980,0.01612673
3651.23235718,0.01644793
3653.16116455,0.01935898
3655.08997192,0.01909136
3657.01877930,0.01713960
3658.94758667,0.01959797
3660.87639404,0.01918460
3662.80520142,0.01943430
3664.73400879,0.01948771
3666.66281616,0.01921729
3668.59162354,0.01871406
3670.52043091,0.01549903
3672.44923828,0.01853099
3674.37804565,0.01777296
3676.30685303,0.01476286
3678.23566040,0.01841032
3680.16446777,0.01887026
3682.09327515,0.01878722
3684.02208252,0.01941556
3685.95088989,0.01904861
3687.87969727,0.01727336
3689.80850464,0.01596297
3691.73731201,0.01795668
3693.66611938,0.01851801
3695.59492676,0.01896479
3697.52373413,0.01891019
3699.45254150,0.01875176
3701.38134888,0.01832373
3703.31015625,0.01763343
3705.23896362,0.01930482
3707.16777100,0.01840032
3709.09657837,0.01806300
3711.02538574,0.01708744
3712.95419312,0.01594999
3714.88300049,0.01856117
3716.81180786,0.01830091
3718.74061523,0.01852870
3720.66942261,0.01816067
3722.59822998,0.01749926
3724.52703735,0.01816087
3726.45584473,0.01681112
3728.38465210,0.01820786
3730.31345947,0.01813889
3732.24226685,0.01676357
3734.17107422,0.01630737
3736.09988159,0.01548420
3738.02868896,0.01637798
3739.95749634,0.01762050
3741.88630371,0.01842444
3743.81511108,0.01441077
3745.74391846,0.01366049
3747.67272583,0.01762906
3749.60153320,0.01521057
3751.53034058,0.01411397
3753.45914795,0.01618631
3755.38795532,0.01731315
3757.31676270,0.01792507
3759.24557007,0.01674530
3761.17437744,0.01728427
3763.10318481,0.01821060
3765.03199219,0.01709434
3766.96079956,0.01742786
3768.88960693,0.01730499
3770.81841431,0.01648630
3772.74722168,0.01778593
3774.67602905,0.01790808
3776.60483643,0.01774680
3778.53364380,0.01737386
3780.46245117,0.01679055
3782.39125854,0.01777981
3784.32006592,0.01737140
3786.24887329,0.01725908
3788.17768066,0.01777264
3790.10648804,0.01758552
3792.03529541,0.01741673
3793.96410278,0.01780492
3795.89291016,0.01674733
3797.82171753,0.01654251
3799.75052490,0.01734379
3801.67933228,0.01388576
3803.60813965,0.01618787
3805.53694702,0.01757751
3807.46575439,0.01446607
3809.39456177,0.01728135
3811.32336914,0.01702708
3813.25217651,0.01750756
3815.18098389,0.01590437
3817.10979126,0.01405829
3819.03859863,0.01744318
3820.96740601,0.01436411
3822.89621338,0.01507105
3824.82502075,0.01748574
3826.75382812,0.01593819
3828.68263550,0.01701503
3830.61144287,0.01639237
3832.54025024,0.01583845
3834.46905762,0.01620977
3836.39786499,0.01542259
3838.32667236,0.01398678
3840.25547974,0.01512316
3842.18428711,0.01615000
3844.11309448,0.01550936
3846.04190186,0.01674645
3847.97070923,0.01648891
3849.89951660,0.01657756
3851.82832397,0.01497142
3853.75713135,0.01142812
3855.68593872,0.01337458
3857.61474609,0.01660721
3859.54355347,0.01621072
3861.47236084,0.01597439
3863.40116821,0.01569769
3865.32997559,0.01458327
3867.25878296,0.01616455
3869.18759033,0.01488612
3871.11639770,0.01376187
3873.04520508,0.01620450
3874.97401245,0.01497073
3876.90281982,0.01607942
3878.83162720,0.01642966
3880.76043457,0.01416217
3882.68924194,0.01612797
3884.61804932,0.01519268
3886.54685669,0.01398308
3888.47566406,0.01621002
3890.40447144,0.01543383
3892.33327881,0.01442958
3894.26208618,0.01573009
3896.19089355,0.01614119
3898.11970093,0.01541668
3900.04850830,0.01461710
3901.97731567,0.01444541
3903.90612305,0.01423068
3905.83493042,0.01446341
3907.76373779,0.01574260
3909.69254517,0.01574666
3911.62135254,0.01567272
3913.55015991,0.01587585
3915.47896728,0.01536059
3917.40777466,0.01497772
3919.33658203,0.01481311
3921.26538940,0.01539395
3923.19419678,0.01534851
3925.12300415,0.01505651
3927.05181152,0.01536681
3928.98061890,0.01540875
3930.90942627,0.01508333
3932.83823364,0.01468299
3934.76704102,0.01528137
3936.69584839,0.01546505
3938.62465576,0.01525149
3940.55346313,0.01537551
3942.48227051,0.01488583
3944.41107788,0.01492571
3946.33988525,0.01517899
3948.26869263,0.01487087
3950.19750000,0.01491554
3952.12630737,0.01513950
3954.05511475,0.01509385
3955.98392212,0.01506174
3957.91272949,0.01497464
3959.84153687,0.01498697
3961.77034424,0.01492315
3963.69915161,0.01489661
3965.62795898,0.01506572
3967.55676636,0.01485497
3969.48557373,0.01486132
3971.41438110,0.01488388
3973.34318848,0.01484999
3975.27199585,0.01476571
3977.20080322,0.01469230
3979.12961060,0.01492317
3981.05841797,0.01465514
3982.98722534,0.01469386
3984.91603271,0.01475639
3986.84484009,0.01463295
3988.77364746,0.01469586
3990.70245483,0.01452364
3992.63126221,0.01460698
3994.56006958,0.01450902
3996.48887695,0.01447604
3998.41768433,0.01454683
4000.34649170,0.01451278
4002.27529907,0.01450505
4004.20410645,0.01444086
4006.13291382,0.01447238
4008.06172119,0.01431266
4009.99052856,0.01435830
4011.91933594,0.01434489
4013.84814331,0.01423511
4015.77695068,0.01425818
4017.70575806,0.01424243
4019.63456543,0.01425069
4021.56337280,0.01418139
4023.49218018,0.01418725
4025.42098755,0.01407934
4027.34979492,0.01415115
4029.27860229,0.01419081
4031.20740967,0.01413435
4033.13621704,0.01409755
4035.06502441,0.01398329
4036.99383179,0.01403976
4038.92263916,0.01385662
4040.85144653,0.01391609
4042.78025391,0.01390584
4044.70906128,0.01378441
4046.63786865,0.01389601
4048.56667603,0.01378469
4050.49548340,0.01381806
4052.42429077,0.01381133
4054.35309814,0.01381291
4056.28190552,0.01373638
4058.21071289,0.01369465
4060.13952026,0.01372286
4062.06832764,0.01361565
4063.99713501,0.01365388
4065.92594238,0.01360035
4067.85474976,0.01358388
4069.78355713,0.01349483
4071.71236450,0.01351748
4073.64117187,0.01349455
4075.56997925,0.01338824
4077.49878662,0.01348208
4079.42759399,0.01336918
4081.35640137,0.01338378
4083.28520874,0.01338925
4085.21401611,0.01339095
4087.14282349,0.01333844
4089.07163086,0.01320075
4091.00043823,0.01323264
4092.92924561,0.01326684
4094.85805298,0.01326638
4096.78686035,0.01313242
4098.71566772,0.01319728
4100.64447510,0.01311315
4102.57328247,0.01307264
4104.50208984,0.01311500
4106.43089722,0.01298653
4108.35970459,0.01310324
4110.28851196,0.01299090
4112.21731934,0.01300273
4114.14612671,0.01298030
4116.07493408,0.01289201
4118.00374145,0.01300906
4119.93254883,0.01290796
4121.86135620,0.01285227
4123.79016357,0.01279603
4125.71897095,0.01284489
4127.64777832,0.01282587
4129.57658569,0.01281036
4131.50539307,0.01276432
4133.43420044,0.01265616
4135.36300781,0.01276760
4137.29181519,0.01268529
4139.22062256,0.01265754
4141.14942993,0.01260365
4143.07823730,0.01253875
4145.00704468,0.01254889
4146.93585205,0.01253719
4148.86465942,0.01253655
4150.79346680,0.01242942
4152.72227417,0.01248992
4154.65108154,0.01242327
4156.57988892,0.01243265
4158.50869629,0.01251062
4160.43750366,0.01243350
4162.36631103,0.01239262
4164.29511841,0.01224832
4166.22392578,0.01224387
4168.15273315,0.01224642
4170.08154053,0.01223527
4172.01034790,0.01221761
4173.93915527,0.01220657
4175.86796265,0.01219263
4177.79677002,0.01206972
4179.72557739,0.01213493
4181.65438477,0.01214569
4183.58319214,0.01202366
4185.51199951,0.01199014
4187.44080688,0.01202941
4189.36961426,0.01199945
4191.29842163,0.01202569
4193.22722900,0.01203218
4195.15603638,0.01190515
4197.08484375,0.01190414
4199.01365112,0.01187270
4200.94245850,0.01182548
4202.87126587,0.01172989
4204.80007324,0.01180110
4206.72888062,0.01189196
4208.65768799,0.01175173
4210.58649536,0.01171958
4212.51530273,0.01167014
4214.44411011,0.01170940
4216.37291748,0.01166763
4218.30172485,0.01165151
4220.23053223,0.01162202
4222.15933960,0.01149610
4224.08814697,0.01165890
4226.01695435,0.01163012
4227.94576172,0.01148444
4229.87456909,0.01144964
4231.80337646,0.01153124
4233.73218384,0.01148921
4235.66099121,0.01135846
4237.58979858,0.01147903
4239.51860596,0.01144909
4241.44741333,0.01142263
4243.37622070,0.01139720
4245.30502808,0.01136182
4247.23383545,0.01137628
4249.16264282,0.01133046
4251.09145020,0.01128795
4253.02025757,0.01126263
4254.94906494,0.01127875
4256.87787231,0.01111005
4258.80667969,0.01119837
4260.73548706,0.01125648
4262.66429443,0.01109603
4264.59310181,0.01120217
4266.52190918,0.01118253
4268.45071655,0.01116167
4270.37952393,0.01105948
4272.30833130,0.01092859
4274.23713867,0.01097039
4276.16594604,0.01094794
4278.09475342,0.01096986
4280.02356079,0.01099133
4281.95236816,0.01095621
4283.88117554,0.01089270
4285.80998291,0.01089035
4287.73879028,0.01088490
4289.66759766,0.01087943
4291.59640503,0.01084868
4293.52521240,0.01077572
4295.45401978,0.01072812
4297.38282715,0.01063047
4299.31163452,0.01068405
4301.24044189,0.01070123
4303.16924927,0.01064789
4305.09805664,0.01063852
4307.02686401,0.01060501
4308.95567139,0.01062345
4310.88447876,0.01054470
4312.81328613,0.01055903
4314.74209351,0.01060161
4316.67090088,0.01049137
4318.59970825,0.01050497
4320.52851562,0.01051320
4322.45732300,0.01042808
4324.38613037,0.01045128
4326.31493774,0.01040410
4328.24374512,0.01031915
4330.17255249,0.01034004
4332.10135986,0.01030755
4334.03016724,0.01032741
4335.95897461,0.01034916
4337.88778198,0.01035894
4339.81658936,0.01032919
4341.74539673,0.01027683
4343.67420410,0.01023713
4345.60301147,0.01010207
4347.53181885,0.01015459
4349.46062622,0.01014442
4351.38943359,0.01010014
4353.31824097,0.01016041
4355.24704834,0.01010402
4357.17585571,0.01009242
4359.10466309,0.01004148
4361.03347046,0.01001137
4362.96227783,0.00999237
4364.89108520,0.01002523
4366.81989258,0.00997735
4368.74869995,0.00995054
4370.67750732,0.01001586
4372.60631470,0.00979799
4374.53512207,0.00985060
4376.46392944,0.00989645
4378.39273682,0.00980126
4380.32154419,0.00988593
4382.25035156,0.00985634
4384.17915894,0.00990217
4386.10796631,0.00979674
4388.03677368,0.00974839
4389.96558105,0.00979619
4391.89438843,0.00969960
4393.82319580,0.00972087
4395.75200317,0.00968881
4397.68081055,0.00965916
4399.60961792,0.00957298
4401.53842529,0.00955061
4403.46723267,0.00966618
4405.39604004,0.00957458
4407.32484741,0.00955173
4409.25365478,0.00960994
4411.18246216,0.00950353
4413.11126953,0.00945576
4415.04007690,0.00944351
4416.96888428,0.00944940
4418.89769165,0.00948921
4420.82649902,0.00938569
4422.75530640,0.00937268
4424.68411377,0.00931884
4426.61292114,0.00923232
4428.54172852,0.00934826
4430.47053589,0.00929068
4432.39934326,0.00923003
4434.32815063,0.00929519
4436.25695801,0.00923790
4438.18576538,0.00917004
4440.11457275,0.00927246
4442.04338013,0.00924737
4443.97218750,0.00908063
4445.90099487,0.00920530
4447.82980225,0.00919137
4449.75860962,0.00906066
4451.68741699,0.00909801
4453.61622437,0.00907793
4455.54503174,0.00907064
4457.47383911,0.00902211
4459.40264648,0.00898848
4461.33145386,0.00899004
4463.26026123,0.00898597
4465.18906860,0.00898564
4467.11787598,0.00894282
4469.04668335,0.00886550
4470.97549072,0.00883596
4472.90429810,0.00890006
4474.83310547,0.00883722
4476.76191284,0.00881995
4478.69072021,0.00886301
4480.61952759,0.00881420
4482.54833496,0.00886291
4484.47714233,0.00883236
4486.40594971,0.00876842
4488.33475708,0.00883460
4490.26356445,0.00882229
4492.19237183,0.00873539
4494.12117920,0.00867281
4496.04998657,0.00865200
4497.97879395,0.00864684
4499.90760132,0.00857949
4501.83640869,0.00858108
4503.76521606,0.00856214
4505.69402344,0.00849677
4507.62283081,0.00855667
4509.55163818,0.00850253
4511.48044556,0.00849344
4513.40925293,0.00850511
4515.33806030,0.00842305
4517.26686768,0.00847914
4519.19567505,0.00842498
4521.12448242,0.00838691
4523.05328979,0.00842121
4524.98209717,0.00837641
4526.91090454,0.00836605
4528.83971191,0.00834258
4530.76851929,0.00828408
4532.69732666,0.00826103
4534.62613403,0.00835382
4536.55494141,0.00832611
4538.48374878,0.00826492
4540.41255615,0.00824092
4542.34136353,0.00813787
4544.27017090,0.00821604
4546.19897827,0.00822530
4548.12778564,0.00813219
4550.05659302,0.00811481
4551.98540039,0.00813221
4553.91420776,0.00819532
4555.84301514,0.00808515
4557.77182251,0.00805515
4559.70062988,0.00807929
4561.62943726,0.00794562
4563.55824463,0.00801694
4565.48705200,0.00805565
4567.41585937,0.00798421
4569.34466675,0.00800611
4571.27347412,0.00792622
4573.20228149,0.00795141
4575.13108887,0.00799899
4577.05989624,0.00787259
4578.98870361,0.00785874
4580.91751099,0.00789657
4582.84631836,0.00783391
4584.77512573,0.00777936
4586.70393311,0.00778536
4588.63274048,0.00776269
4590.56154785,0.00774573
4592.49035522,0.00772889
4594.41916260,0.00772969
4596.34796997,0.00777270
4598.27677734,0.00767662
4600.20558472,0.00762392
4602.13439209,0.00767158
4604.06319946,0.00772037
4605.99200684,0.00772433
4607.92081421,0.00760162
4609.84962158,0.00761407
4611.77842895,0.00763324
4613.70723633,0.00754788
4615.63604370,0.00754903
4617.56485107,0.00750534
4619.49365845,0.00749941
4621.42246582,0.00754034
4623.35127319,0.00744419
4625.28008057,0.00748669
4627.20888794,0.00753826
4629.13769531,0.00739311
4631.06650269,0.00742409
4632.99531006,0.00737472
4634.92411743,0.00730706
4636.85292480,0.00739385
4638.78173218,0.00734430
4640.71053955,0.00737082
4642.63934692,0.00728556
4644.56815430,0.00719844
4646.49696167,0.00725253
4648.42576904,0.00722011
4650.35457642,0.00728850
4652.28338379,0.00724712
4654.21219116,0.00715789
4656.14099853,0.00722455
4658.06980591,0.00722577
4659.99861328,0.00712465
4661.92742065,0.00713310
4663.85622803,0.00721599
4665.78503540,0.00712579
4667.71384277,0.00709238
4669.64265015,0.00715684
4671.57145752,0.00711603
4673.50026489,0.00706784
4675.42907227,0.00710000
4677.35787964,0.00710400
4679.28668701,0.00704188
4681.21549438,0.00700029
4683.14430176,0.00694374
4685.07310913,0.00692164
4687.00191650,0.00694999
4688.93072388,0.00699120
4690.85953125,0.00695826
4692.78833862,0.00689839
4694.71714600,0.00691786
4696.64595337,0.00692988
4698.57476074,0.00687223
4700.50356812,0.00676646
4702.43237549,0.00681617
4704.36118286,0.00680586
4706.28999023,0.00677538
4708.21879761,0.00685204
4710.14760498,0.00676430
4712.07641235,0.00675820
4714.00521973,0.00671242
4715.93402710,0.00666585
4717.86283447,0.00672234
4719.79164185,0.00671237
4721.72044922,0.00672837
4723.64925659,0.00664039
4725.57806396,0.00662708
4727.50687134,0.00659767
4729.43567871,0.00658727
4731.36448608,0.00667703
4733.29329346,0.00659130
4735.22210083,0.00658202
4737.15090820,0.00656752
4739.07971558,0.00655316
4741.00852295,0.00652566
4742.93733032,0.00644591
4744.86613770,0.00658204
4746.79494507,0.00657376
4748.72375244,0.00646864
4750.65255981,0.00653961
4752.58136719,0.00653755
4754.51017456,0.00644117
4756.43898193,0.00641346
4758.36778931,0.00644115
4760.29659668,0.00639780
4762.22540405,0.00636264
4764.15421143,0.00638895
4766.08301880,0.00636403
4768.01182617,0.00631184
4769.94063354,0.00630909
4771.86944092,0.00635080
4773.79824829,0.00635734
4775.72705566,0.00628688
4777.65586304,0.00627857
4779.58467041,0.00629488
4781.51347778,0.00618817
4783.44228516,0.00619637
4785.37109253,0.00623948
4787.29989990,0.00615412
4789.22870728,0.00623592
4791.15751465,0.00624634
4793.08632202,0.00611045
4795.01512939,0.00612061
4796.94393677,0.00609917
4798.87274414,0.00610645
4800.80155151,0.00609376
4802.73035889,0.00600075
4804.65916626,0.00603377
4806.58797363,0.00604290
4808.51678101,0.00603318
4810.44558838,0.00606604
4812.37439575,0.00605322
4814.30320312,0.00598081
4816.23201050,0.00597958
4818.16081787,0.00600778
4820.08962524,0.00592839
4822.01843262,0.00594397
4823.94723999,0.00593012
4825.87604736,0.00589179
4827.80485474,0.00591595
4829.73366211,0.00587726
4831.66246948,0.00589012
4833.59127686,0.00587337
4835.52008423,0.00583752
4837.44889160,0.00579370
4839.37769897,0.00577806
4841.30650635,0.00578712
4843.23531372,0.00577237
4845.16412109,0.00580117
4847.09292847,0.00576243
4849.02173584,0.00579845
4850.95054321,0.00576889
4852.87935059,0.00570264
4854.80815796,0.00573895
4856.73696533,0.00566711
4858.66577270,0.00570050
4860.59458008,0.00573950
4862.52338745,0.00573026
4864.45219482,0.00568960
4866.38100220,0.00560692
4868.30980957,0.00566095
4870.23861694,0.00559471
4872.16742432,0.00555462
4874.09623169,0.00567836
4876.02503906,0.00563894
4877.95384644,0.00552465
4879.88265381,0.00548464
4881.81146118,0.00547677
4883.74026855,0.00553460
4885.66907593,0.00550883
4887.59788330,0.00548581
4889.52669067,0.00557764
4891.45549805,0.00547899
4893.38430542,0.00544958
4895.31311279,0.00546847
4897.24192017,0.00541194
4899.17072754,0.00549366
4901.09953491,0.00540930
4903.02834228,0.00538594
4904.95714966,0.00543942
4906.88595703,0.00536184
4908.81476440,0.00535191
4910.74357178,0.00531865
4912.67237915,0.00533035
4914.60118652,0.00529604
4916.52999390,0.00529264
4918.45880127,0.00530671
4920.38760864,0.00516761
4922.31641602,0.00518867
4924.24522339,0.00520021
4926.17403076,0.00523422
4928.10283813,0.00529574
4930.03164551,0.00515443
4931.96045288,0.00518792
4933.88926025,0.00520239
4935.81806763,0.00512308
4937.74687500,0.00518332
4939.67568237,0.00515032
4941.60448975,0.00510670
4943.53329712,0.00510656
4945.46210449,0.00510133
4947.39091187,0.00506698
4949.31971924,0.00503380
4951.24852661,0.00504890
4953.17733398,0.00503515
4955.10614136,0.00509775
4957.03494873,0.00511296
4958.96375610,0.00503523
4960.89256348,0.00501918
4962.82137085,0.00501169
4964.75017822,0.00498015
4966.67898560,0.00495183
4968.60779297,0.00494144
4970.53660034,0.00499669
4972.46540771,0.00503733
4974.39421509,0.00488311
4976.32302246,0.00490293
4978.25182983,0.00498000
4980.18063721,0.00484176
4982.10944458,0.00490768
4984.03825195,0.00493417
4985.96705933,0.00488189
4987.89586670,0.00486087
4989.82467407,0.00481184
4991.75348145,0.00486775
4993.68228882,0.00481141
4995.61109619,0.00476606
4997.53990356,0.00481071
4999.46871094,0.00475416
5001.39751831,0.00471195
5003.32632568,0.00479074
5005.25513306,0.00474732
5007.18394043,0.00470033
5009.11274780,0.00477701
5011.04155518,0.00472949
5012.97036255,0.00477471
5014.89916992,0.00474100
5016.82797729,0.00467820
5018.75678467,0.00475043
5020.68559204,0.00470650
5022.61439941,0.00469182
5024.54320679,0.00464656
5026.47201416,0.00463399
5028.40082153,0.00463147
5030.32962891,0.00459142
5032.25843628,0.00455789
5034.18724365,0.00451266
5036.11605103,0.00456134
5038.04485840,0.00459094
5039.97366577,0.00455319
5041.90247314,0.00449946
5043.83128052,0.00459293
5045.76008789,0.00456065
5047.68889526,0.00451859
5049.61770264,0.00456698
5051.54651001,0.00442829
5053.47531738,0.00450260
5055.40412476,0.00449180
5057.33293213,0.00443222
5059.26173950,0.00447607
5061.19054687,0.00444396
5063.11935425,0.00445414
5065.04816162,0.00439010
5066.97696899,0.00441475
5068.90577637,0.00441247
5070.83458374,0.00442638
5072.76339111,0.00433584
5074.69219849,0.00433768
5076.62100586,0.00441855
5078.54981323,0.00419427
5080.47862061,0.00428272
5082.40742798,0.00433865
5084.33623535,0.00437168
5086.26504272,0.00436331
5088.19385010,0.00420453
5090.12265747,0.00429796
5092.05146484,0.00421125
5093.98027222,0.00427568
5095.90907959,0.00425746
5097.83788696,0.00421381
5099.76669434,0.00432211
5101.69550171,0.00416302
5103.62430908,0.00424875
5105.55311645,0.00421876
5107.48192383,0.00410845
5109.41073120,0.00420912
5111.33953857,0.00415887
5113.26834595,0.00414209
5115.19715332,0.00422219
5117.12596069,0.00412422
5119.05476807,0.00403026
5120.98357544,0.00416899
5122.91238281,0.00411079
5124.84119019,0.00408812
5126.76999756,0.00412409
5128.69880493,0.00400882
5130.62761230,0.00404321
5132.55641968,0.00403806
5134.48522705,0.00400745
5136.41403442,0.00402357
5138.34284180,0.00406275
5140.27164917,0.00401248
5142.20045654,0.00395097
5144.12926392,0.00399088
5146.05807129,0.00397520
5147.98687866,0.00401222
5149.91568603,0.00399982
5151.84449341,0.00397608
5153.77330078,0.00398231
5155.70210815,0.00395996
5157.63091553,0.00391019
5159.55972290,0.00387193
5161.48853027,0.00391812
5163.41733765,0.00389238
5165.34614502,0.00387875
5167.27495239,0.00386971
5169.20375977,0.00388468
5171.13256714,0.00390905
5173.06137451,0.00385504
5174.99018188,0.00381356
5176.91898926,0.00379926
5178.84779663,0.00380713
5180.77660400,0.00378308
5182.70541138,0.00385799
5184.63421875,0.00380537
5186.56302612,0.00373877
5188.49183350,0.00387601
5190.42064087,0.00379801
5192.34944824,0.00371880
5194.27825562,0.00373448
5196.20706299,0.00373286
5198.13587036,0.00375968
5200.06467773,0.00374796
5201.99348511,0.00375762
5203.92229248,0.00372180
5205.85109985,0.00361042
5207.77990723,0.00356012
5209.70871460,0.00362778
5211.63752197,0.00366993
5213.56632935,0.00362727
5215.49513672,0.00357586
5217.42394409,0.00361756
5219.35275146,0.00358212
5221.28155884,0.00352285
5223.21036621,0.00361941
5225.13917358,0.00356831
5227.06798096,0.00355057
5228.99678833,0.00360387
5230.92559570,0.00360300
5232.85440308,0.00360504
5234.78321045,0.00353439
5236.71201782,0.00350549
5238.64082520,0.00347390
5240.56963257,0.00355836
5242.49843994,0.00358427
5244.42724731,0.00350107
5246.35605469,0.00354602
5248.28486206,0.00344817
5250.21366943,0.00339047
5252.14247681,0.00348734
5254.07128418,0.00342546
5256.00009155,0.00335511
5257.92889893,0.00342982
5259.85770630,0.00344761
5261.78651367,0.00348726
5263.71532104,0.00345079
5265.64412842,0.00331119
5267.57293579,0.00338802
5269.50174316,0.00341405
5271.43055054,0.00340254
5273.35935791,0.00341278
5275.28816528,0.00339004
5277.21697266,0.00341686
5279.14578003,0.00337117
5281.07458740,0.00341572
5283.00339478,0.00337558
5284.93220215,0.00328607
5286.86100952,0.00339575
5288.78981689,0.00338549
5290.71862427,0.00328982
5292.64743164,0.00328548
5294.57623901,0.00326291
5296.50504639,0.00332405
5298.43385376,0.00335375
5300.36266113,0.00323427
5302.29146851,0.00330245
5304.22027588,0.00332213
5306.14908325,0.00320418
5308.07789062,0.00318269
5310.00669800,0.00319765
5311.93550537,0.00323128
5313.86431274,0.00320056
5315.79312012,0.00322397
5317.72192749,0.00322663
5319.65073486,0.00324904
5321.57954224,0.00321340
5323.50834961,0.00314350
5325.43715698,0.00318398
5327.36596436,0.00306027
5329.29477173,0.00312168
5331.22357910,0.00312894
5333.15238647,0.00308900
5335.08119385,0.00320956
5337.01000122,0.00304304
5338.93880859,0.00302355
5340.86761597,0.00316156
5342.79642334,0.00310222
5344.72523071,0.00295335
5346.65403809,0.00305368
5348.58284546,0.00310570
5350.51165283,0.00299414
5352.44046020,0.00306774
5354.36926758,0.00291617
5356.29807495,0.00293936
5358.22688232,0.00307600
5360.15568970,0.00302778
5362.08449707,0.00304271
5364.01330444,0.00299723
5365.94211182,0.00306108
5367.87091919,0.00301687
5369.79972656,0.00300472
5371.72853394,0.00302457
5373.65734131,0.00294583
5375.58614868,0.00293844
5377.51495605,0.00290353
5379.44376343,0.00296178
5381.37257080,0.00290145
5383.30137817,0.00289781
5385.23018555,0.00291966
5387.15899292,0.00284123
5389.08780029,0.00292693
5391.01660767,0.00294722
5392.94541504,0.00291172
5394.87422241,0.00281175
5396.80302978,0.00280058
5398.73183716,0.00286188
5400.66064453,0.00283042
5402.58945190,0.00289967
5404.51825928,0.00292716
5406.44706665,0.00289419
5408.37587402,0.00288900
5410.30468140,0.00287215
5412.23348877,0.00280603
5414.16229614,0.00275701
5416.09110352,0.00279247
5418.01991089,0.00285154
5419.94871826,0.00285825
5421.87752563,0.00275544
5423.80633301,0.00270972
5425.73514038,0.00278306
5427.66394775,0.00277418
5429.59275513,0.00267426
5431.52156250,0.00272000
5433.45036987,0.00274771
5435.37917725,0.00267272
5437.30798462,0.00274308
5439.23679199,0.00274863
5441.16559936,0.00266344
5443.09440674,0.00268594
5445.02321411,0.00267274
5446.95202148,0.00265079
5448.88082886,0.00275270
5450.80963623,0.00271418
5452.73844360,0.00263188
5454.66725098,0.00269025
5456.59605835,0.00271630
5458.52486572,0.00274639
5460.45367310,0.00263042
5462.38248047,0.00262105
5464.31128784,0.00267788
5466.24009521,0.00258055
5468.16890259,0.00261879
5470.09770996,0.00253133
5472.02651733,0.00256569
5473.95532471,0.00263604
5475.88413208,0.00249333
5477.81293945,0.00255892
5479.74174683,0.00262693
5481.67055420,0.00262304
5483.59936157,0.00250591
5485.52816895,0.00246412
5487.45697632,0.00258931
5489.38578369,0.00254480
5491.31459106,0.00255630
5493.24339844,0.00252707
5495.17220581,0.00246066
5497.10101318,0.00256772
5499.02982056,0.00256871
5500.95862793,0.00256576
5502.88743530,0.00258639
5504.81624268,0.00251086
5506.74505005,0.00253047
5508.67385742,0.00246362
5510.60266479,0.00237322
5512.53147217,0.00244411
5514.46027954,0.00245022
5516.38908691,0.00244239
5518.31789429,0.00245712
5520.24670166,0.00245647
5522.17550903,0.00240543
5524.10431641,0.00241722
5526.03312378,0.00245315
5527.96193115,0.00239834
5529.89073853,0.00245161
5531.81954590,0.00243329
5533.74835327,0.00242987
5535.67716064,0.00241469
5537.60596802,0.00234130
5539.53477539,0.00239790
5541.46358276,0.00237221
5543.39239014,0.00241412
5545.32119751,0.00237141
5547.25000488,0.00230401
5549.17881226,0.00236279
5551.10761963,0.00234442
5553.03642700,0.00238199
5554.96523437,0.00233792
5556.89404175,0.00236485
5558.82284912,0.00235927
5560.75165649,0.00228723
5562.68046387,0.00236459
5564.60927124,0.00233849
5566.53807861,0.00231124
5568.46688599,0.00226765
5570.39569336,0.00229637
5572.32450073,0.00226052
5574.25330811,0.00214955
5576.18211548,0.00227374
5578.11092285,0.00227204
5580.03973022,0.00226220
5581.96853760,0.00227079
5583.89734497,0.00228584
5585.82615234,0.00235128
5587.75495972,0.00220927
5589.68376709,0.00226013
5591.61257446,0.00227551
5593.54138184,0.00214720
5595.47018921,0.00224657
5597.39899658,0.00225082
5599.32780395,0.00223125
5601.25661133,0.00225073
5603.18541870,0.00220625
5605.11422607,0.00215657
5607.04303345,0.00218467
5608.97184082,0.00225216
5610.90064819,0.00213900
5612.82945557,0.00213315
5614.75826294,0.00215950
5616.68707031,0.00210004
5618.61587769,0.00215355
5620.54468506,0.00216637
5622.47349243,0.00217760
5624.40229980,0.00209522
5626.33110718,0.00208423
5628.25991455,0.00216393
5630.18872192,0.00209554
5632.11752930,0.00206007
5634.04633667,0.00200927
5635.97514404,0.00208812
5637.90395142,0.00219214
5639.83275879,0.00213888
5641.76156616,0.00209330
5643.69037353,0.00209242
5645.61918091,0.00214554
5647.54798828,0.00205842
5649.47679565,0.00203836
5651.40560303,0.00210794
5653.33441040,0.00206606
5655.26321777,0.00207602
5657.19202515,0.00205182
5659.12083252,0.00197336
5661.04963989,0.00197326
5662.97844727,0.00209103
5664.90725464,0.00208928
5666.83606201,0.00203728
5668.76486938,0.00207662
5670.69367676,0.00201730
5672.62248413,0.00203808
5674.55129150,0.00201658
5676.48009888,0.00194042
5678.40890625,0.00200480
5680.33771362,0.00198736
5682.26652100,0.00195792
5684.19532837,0.00196950
5686.12413574,0.00197646
5688.05294311,0.00198644
5689.98175049,0.00193718
5691.91055786,0.00192817
5693.83936523,0.00191670
5695.76817261,0.00191329
5697.69697998,0.00197052
5699.62578735,0.00195312
5701.55459473,0.00194004
5703.48340210,0.00190669
5705.41220947,0.00190014
5707.34101685,0.00194018
5709.26982422,0.00184871
5711.19863159,0.00185575
5713.12743896,0.00191287
5715.05624634,0.00189793
5716.98505371,0.00189562
5718.91386108,0.00188132
5720.84266846,0.00186150
5722.77147583,0.00182272
5724.70028320,0.00188859
5726.62909058,0.00188746
5728.55789795,0.00183336
5730.48670532,0.00185637
5732.41551270,0.00185277
5734.34432007,0.00183501
5736.27312744,0.00179168
5738.20193481,0.00187491
5740.13074219,0.00183099
5742.05954956,0.00175205
5743.98835693,0.00183698
5745.91716431,0.00181947
5747.84597168,0.00183738
5749.77477905,0.00178688
5751.70358643,0.00178188
5753.63239380,0.00181483
5755.56120117,0.00175680
5757.49000854,0.00178144
5759.41881592,0.00174684
5761.34762329,0.00172914
5763.27643066,0.00171910
5765.20523804,0.00172964
5767.13404541,0.00170593
5769.06285278,0.00167663
5770.99166016,0.00178294
5772.92046753,0.00172585
5774.84927490,0.00168044
5776.77808228,0.00173794
5778.70688965,0.00171591
5780.63569702,0.00173930
5782.56450439,0.00173066
5784.49331177,0.00162734
5786.42211914,0.00165162
5788.35092651,0.00173709
5790.27973389,0.00170277
5792.20854126,0.00169204
5794.13734863,0.00166815
5796.06615601,0.00166666
5797.99496338,0.00169489
5799.92377075,0.00167769
5801.85257812,0.00167460
5803.78138550,0.00162512
5805.71019287,0.00159958
5807.63900024,0.00161952
5809.56780762,0.00168676
5811.49661499,0.00165210
5813.42542236,0.00156151
5815.35422974,0.00163080
5817.28303711,0.00163771
5819.21184448,0.00157971
5821.14065186,0.00158206
5823.06945923,0.00165167
5824.99826660,0.00164269
5826.92707397,0.00156942
5828.85588135,0.00157505
5830.78468872,0.00158789
5832.71349609,0.00162670
5834.64230347,0.00156875
5836.57111084,0.00156558
5838.49991821,0.00163050
5840.42872559,0.00152628
5842.35753296,0.00153303
5844.28634033,0.00161765
5846.21514770,0.00154106
5848.14395508,0.00153402
5850.07276245,0.00161502
5852.00156982,0.00151125
5853.93037720,0.00149202
5855.85918457,0.00156626
5857.78799194,0.00149362
5859.71679932,0.00151540
5861.64560669,0.00151088
5863.57441406,0.00147502
5865.50322144,0.00151545
5867.43202881,0.00150241
5869.36083618,0.00152886
5871.28964355,0.00152773
5873.21845093,0.00146047
5875.14725830,0.00147194
5877.07606567,0.00148416
5879.00487305,0.00146311
5880.93368042,0.00148102
5882.86248779,0.00141942
5884.79129517,0.00145714
5886.72010254,0.00154251
5888.64890991,0.00140988
5890.57771728,0.00141481
5892.50652466,0.00145761
5894.43533203,0.00141940
5896.36413940,0.00145091
5898.29294678,0.00141027
5900.22175415,0.00145074
5902.15056152,0.00145673
5904.07936890,0.00138636
5906.00817627,0.00143580
5907.93698364,0.00140878
5909.86579102,0.00135538
5911.79459839,0.00139929
5913.72340576,0.00148311
5915.65221313,0.00149160
5917.58102051,0.00141166
5919.50982788,0.00140126
5921.43863525,0.00137402
5923.36744263,0.00135343
5925.29625000,0.00134237
5927.22505737,0.00133535
5929.15386475,0.00141570
5931.08267212,0.00136129
5933.01147949,0.00134779
5934.94028686,0.00139998
5936.86909424,0.00136708
5938.79790161,0.00138547
5940.72670898,0.00136430
5942.65551636,0.00141142
5944.58432373,0.00136146
5946.51313110,0.00124738
5948.44193848,0.00128478
5950.37074585,0.00129066
5952.29955322,0.00135406
5954.22836060,0.00131808
5956.15716797,0.00129492
5958.08597534,0.00135962
5960.01478271,0.00132886
5961.94359009,0.00131387
5963.87239746,0.00123427
5965.80120483,0.00130921
5967.73001221,0.00137864
5969.65881958,0.00128951
5971.58762695,0.00135222
5973.51643433,0.00132243
5975.44524170,0.00123651
5977.37404907,0.00129964
5979.30285645,0.00128744
5981.23166382,0.00123448
5983.16047119,0.00129213
5985.08927856,0.00126793
5987.01808594,0.00123692
5988.94689331,0.00125122
5990.87570068,0.00120519
5992.80450806,0.00126132
5994.73331543,0.00123560
5996.66212280,0.00121743
5998.59093018,0.00126235
6000.51973755,0.00115372
