399.26312622,0.00057623
401.19193359,0.00079927
403.12074097,0.00084268
405.04954834,0.00092272
406.97835571,0.00124984
408.90716309,0.00112117
410.83597046,0.00062631
412.76477783,0.00083283
414.69358521,0.00103801
416.62239258,0.00076317
418.55119995,0.00110769
420.48000732,0.00109473
422.40881470,0.00065064
424.33762207,0.00079866
426.26642944,0.00099305
428.19523682,0.00084240
430.12404419,0.00073866
432.05285156,0.00087872
433.98165894,0.00068757
435.91046631,0.00092851
437.83927368,0.00109993
439.76808105,0.00068045
441.69688843,0.00068215
443.62569580,0.00079265
445.55450317,0.00090157
447.48331055,0.00057512
449.41211792,0.00056452
451.34092529,0.00102943
453.26973267,0.00114701
455.19854004,0.00087368
457.12734741,0.00038296
459.05615479,0.00086381
460.98496216,0.00087187
462.91376953,0.00053703
464.84257690,0.00087021
466.77138428,0.00063172
468.70019165,0.00080169
470.62899902,0.00073451
472.55780640,0.00006432
474.48661377,0.00037018
476.41542114,0.00079977
478.34422852,0.00054319
480.27303589,0.00045833
482.20184326,0.00030132
484.13065063,0.00015927
486.05945801,0.00040486
487.98826538,0.00030358
489.91707275,0.00052103
491.84588013,0.00037737
493.77468750,0.00016695
495.70349487,0.00060963
497.63230225,0.00036432
499.56110962,0.00035111
501.48991699,0.00040716
503.41872437,0.00014771
505.34753174,0.00016060
507.27633911,0.00027452
509.20514648,0.00033302
511.13395386,0.00025264
513.06276123,0.00020881
514.99156860,0.00020787
516.92037598,0.00016939
518.84918335,-0.00006332
520.77799072,0.00022994
522.70679810,0.00033594
524.63560547,0.00014750
526.56441284,0.00025323
528.49322021,-0.00011618
530.42202759,-0.00028039
532.35083496,0.00017342
534.27964233,0.00074301
536.20844971,0.00029533
538.13725708,-0.00009095
540.06606445,0.00010455
541.99487183,0.00019885
543.92367920,0.00028470
545.85248657,-0.00024497
547.78129395,-0.00025728
549.71010132,0.00001234
551.63890869,0.00004612
553.56771606,0.00024752
555.49652344,-0.00002874
557.42533081,0.00016475
559.35413818,0.00025366
561.28294556,0.00010721
563.21175293,0.00033486
565.14056030,0.00032904
567.06936768,0.00036479
568.99817505,0.00013343
570.92698242,-0.00007962
572.85578979,-0.00012892
574.78459717,-0.00005696
576.71340454,0.00009933
578.64221191,0.00025764
580.57101929,0.00049442
582.49982666,0.00028495
584.42863403,-0.00006001
586.35744141,-0.00015043
588.28624878,-0.00021702
590.21505615,0.00006927
592.14386353,0.00027067
594.07267090,-0.00009637
596.00147827,-0.00030668
597.93028564,0.00006692
599.85909302,0.00063286
601.78790039,0.00032793
603.71670776,0.00003761
605.64551514,0.00027930
607.57432251,0.00024632
609.50312988,0.00031090
611.43193726,0.00021681
613.36074463,0.00032971
615.28955200,0.00021601
617.21835938,-0.00008211
619.14716675,0.00007206
621.07597412,0.00048787
623.00478149,0.00009233
624.93358887,-0.00035212
626.86239624,0.00008628
628.79120361,0.00015498
630.72001099,0.00032349
632.64881836,0.00060959
634.57762573,0.00063472
636.50643311,0.00084798
638.43524048,0.00089422
640.36404785,0.00093825
642.29285522,0.00092221
644.22166260,0.00082706
646.15046997,0.00115457
648.07927734,0.00148512
650.00808472,0.00157587
651.93689209,0.00146995
653.86569946,0.00137309
655.79450684,0.00143385
657.72331421,0.00151747
659.65212158,0.00165616
661.58092896,0.00155180
663.50973633,0.00142366
665.43854370,0.00158765
667.36735107,0.00159795
669.29615845,0.00155741
671.22496582,0.00203014
673.15377319,0.00222895
675.08258057,0.00212088
677.01138794,0.00232503
678.94019531,0.00211191
680.86900269,0.00223064
682.79781006,0.00229301
684.72661743,0.00205345
686.65542480,0.00241120
688.58423218,0.00218038
690.51303955,0.00221549
692.44184692,0.00254473
694.37065430,0.00243138
696.29946167,0.00281269
698.22826904,0.00322707
700.15707642,0.00353129
702.08588379,0.00364513
704.01469116,0.00344954
705.94349854,0.00287190
707.87230591,0.00236545
709.80111328,0.00229971
711.72992065,0.00140798
713.65872803,0.00050549
715.58753540,0.00069499
717.51634277,0.00058852
719.44515015,0.00031517
721.37395752,0.00038381
723.30276489,0.00028562
725.23157227,0.00031748
727.16037964,0.00007625
729.08918701,0.00001175
731.01799438,0.00030069
732.94680176,0.00020095
734.87560913,0.00005885
736.80441650,0.00010925
738.73322388,0.00039770
740.66203125,0.00018900
742.59083862,0.00007523
744.51964600,0.00014766
746.44845337,0.00049481
748.37726074,0.00047051
750.30606812,0.00014869
752.23487549,0.00034820
754.16368286,0.00010467
756.09249023,0.00035216
758.02129761,0.00031763
759.95010498,0.00023882
761.87891235,0.00036428
763.80771973,0.00013155
765.73652710,0.00053543
767.66533447,0.00032017
769.59414185,0.00023711
771.52294922,0.00029759
773.45175659,0.00010669
775.38056396,0.00048036
777.30937134,0.00036511
779.23817871,0.00026023
781.16698608,0.00015265
783.09579346,0.00032315
785.02460083,0.00050573
786.95340820,0.00017136
788.88221558,0.00034427
790.81102295,0.00032984
792.73983032,0.00040935
794.66863770,0.00037176
796.59744507,0.00030439
798.52625244,0.00074374
800.45505981,0.00047505
802.38386719,0.00043895
804.31267456,0.00062208
806.24148193,0.00039900
808.17028931,0.00043536
810.09909668,0.00051649
812.02790405,0.00045367
813.95671143,0.00010735
815.88551880,0.00007033
817.81432617,0.00050917
819.74313354,0.00050365
821.67194092,0.00017706
823.60074829,0.00029298
825.52955566,0.00063412
827.45836304,0.00057013
829.38717041,0.00043972
831.31597778,0.00066403
833.24478516,0.00064444
835.17359253,0.00049057
837.10239990,0.00084864
839.03120728,0.00093360
840.96001465,0.00067135
842.88882202,0.00063106
844.81762939,0.00068279
846.74643677,0.00060602
848.67524414,0.00040968
850.60405151,0.00056443
852.53285889,0.00052120
854.46166626,0.00046109
856.39047363,0.00061839
858.31928101,0.00048837
860.24808838,0.00049326
862.17689575,0.00029482
864.10570313,0.00028261
866.03451050,0.00057077
867.96331787,0.00053290
869.89212524,0.00052557
871.82093262,0.00055486
873.74973999,0.00058061
875.67854736,0.00046627
877.60735474,0.00048927
879.53616211,0.00067231
881.46496948,0.00040351
883.39377686,0.00030953
885.32258423,0.00046941
887.25139160,0.00037973
889.18019897,0.00057784
891.10900635,0.00064656
893.03781372,0.00040399
894.96662109,0.00050110
896.89542847,0.00053145
898.82423584,0.00069752
900.75304321,0.00079279
902.68185059,0.00046442
904.61065796,0.00046238
906.53946533,0.00064612
908.46827271,0.00063509
910.39708008,0.00041989
912.32588745,0.00056717
914.25469482,0.00087413
916.18350220,0.00077259
918.11230957,0.00077963
920.04111694,0.00075573
921.96992432,0.00085389
923.89873169,0.00097397
925.82753906,0.00091379
927.75634644,0.00099203
929.68515381,0.00105180
931.61396118,0.00131165
933.54276855,0.00142442
935.47157593,0.00130223
937.40038330,0.00121165
939.32919067,0.00114746
941.25799805,0.00130160
943.18680542,0.00143465
945.11561279,0.00157418
947.04442017,0.00150449
948.97322754,0.00133907
950.90203491,0.00137596
952.83084229,0.00131828
954.75964966,0.00123844
956.68845703,0.00121464
958.61726440,0.00142274
960.54607178,0.00139431
962.47487915,0.00116438
964.40368652,0.00135097
966.33249390,0.00132465
968.26130127,0.00138824
970.19010864,0.00176967
972.11891602,0.00175783
974.04772339,0.00172162
975.97653076,0.00177576
977.90533813,0.00183154
979.83414551,0.00202856
981.76295288,0.00214600
983.69176025,0.00237362
985.62056763,0.00269134
987.54937500,0.00292460
989.47818237,0.00322954
991.40698975,0.00345445
993.33579712,0.00355514
995.26460449,0.00375242
997.19341187,0.00415310
999.12221924,0.00447498
1001.05102661,0.00480772
1002.97983398,0.00532749
1004.90864136,0.00552857
1006.83744873,0.00586637
1008.76625610,0.00638709
1010.69506348,0.00657657
1012.62387085,0.00685812
1014.55267822,0.00709876
1016.48148560,0.00757399
1018.41029297,0.00805323
1020.33910034,0.00811630
1022.26790771,0.00864644
1024.19671509,0.00915340
1026.12552246,0.00926386
1028.05432983,0.00935630
1029.98313721,0.00961879
1031.91194458,0.01022755
1033.84075195,0.01042975
1035.76955933,0.01034983
1037.69836670,0.01044739
1039.62717407,0.01065714
1041.55598145,0.01067915
1043.48478882,0.01029803
1045.41359619,0.01035176
1047.34240356,0.01033344
1049.27121094,0.00994802
1051.20001831,0.00998291
1053.12882568,0.00992208
1055.05763306,0.00957064
1056.98644043,0.00915972
1058.91524780,0.00889441
1060.84405518,0.00874929
1062.77286255,0.00867251
1064.70166992,0.00847462
1066.63047729,0.00793680
1068.55928467,0.00785069
1070.48809204,0.00763157
1072.41689941,0.00700027
1074.34570679,0.00682626
1076.27451416,0.00654106
1078.20332153,0.00618299
1080.13212891,0.00600133
1082.06093628,0.00561988
1083.98974365,0.00531486
1085.91855103,0.00532548
1087.84735840,0.00507646
1089.77616577,0.00466785
1091.70497314,0.00469848
1093.63378052,0.00444206
1095.56258789,0.00416236
1097.49139526,0.00426417
1099.42020264,0.00403728
1101.34901001,0.00397061
1103.27781738,0.00398861
1105.20662476,0.00376550
1107.13543213,0.00372408
1109.06423950,0.00361128
1110.99304687,0.00358248
1112.92185425,0.00372604
1114.85066162,0.00369481
1116.77946899,0.00367756
1118.70827637,0.00371233
1120.63708374,0.00369210
1122.56589111,0.00359486
1124.49469849,0.00377256
1126.42350586,0.00405368
1128.35231323,0.00378420
1130.28112061,0.00373094
1132.20992798,0.00413330
1134.13873535,0.00435471
1136.06754272,0.00437231
1137.99635010,0.00450750
1139.92515747,0.00487656
1141.85396484,0.00511585
1143.78277222,0.00536375
1145.71157959,0.00558641
1147.64038696,0.00595822
1149.56919434,0.00635973
1151.49800171,0.00658894
1153.42680908,0.00706290
1155.35561646,0.00701300
1157.28442383,0.00720829
1159.21323120,0.00802987
1161.14203857,0.00820181
1163.07084595,0.00824727
1164.99965332,0.00865074
1166.92846069,0.00911173
1168.85726807,0.00907545
1170.78607544,0.00925037
1172.71488281,0.00982086
1174.64369019,0.00989649
1176.57249756,0.01028549
1178.50130493,0.01095807
1180.43011230,0.01144359
1182.35891968,0.01176780
1184.28772705,0.01210563
1186.21653442,0.01259817
1188.14534180,0.01312967
1190.07414917,0.01393739
1192.00295654,0.01456433
1193.93176392,0.01526259
1195.86057129,0.01600892
1197.78937866,0.01648449
1199.71818604,0.01727656
1201.64699341,0.01797106
1203.57580078,0.01861234
1205.50460815,0.01932384
1207.43341553,0.01975241
1209.36222290,0.02031843
1211.29103027,0.02116449
1213.21983765,0.02177088
1215.14864502,0.02224187
1217.07745239,0.02284401
1219.00625977,0.02308200
1220.93506714,0.02330858
1222.86387451,0.02365711
1224.79268188,0.02374808
1226.72148926,0.02385298
1228.65029663,0.02405463
1230.57910400,0.02418463
1232.50791138,0.02408102
1234.43671875,0.02421663
1236.36552612,0.02427647
1238.29433350,0.02396418
1240.22314087,0.02393475
1242.15194824,0.02387055
1244.08075562,0.02373001
1246.00956299,0.02364461
1247.93837036,0.02359262
1249.86717773,0.02353659
1251.79598511,0.02325748
1253.72479248,0.02297602
1255.65359985,0.02266511
1257.58240723,0.02240125
1259.51121460,0.02199538
1261.44002197,0.02151109
1263.36882935,0.02147461
1265.29763672,0.02131984
1267.22644409,0.02090770
1269.15525146,0.02060967
1271.08405884,0.02026604
1273.01286621,0.02000596
1274.94167358,0.01975921
1276.87048096,0.01937223
1278.79928833,0.01902583
1280.72809570,0.01862969
1282.65690308,0.01822680
1284.58571045,0.01786166
1286.51451782,0.01763730
1288.44332520,0.01744590
1290.37213257,0.01707770
1292.30093994,0.01696839
1294.22974731,0.01670044
1296.15855469,0.01657100
1298.08736206,0.01689763
1300.01616943,0.01676171
1301.94497681,0.01677596
1303.87378418,0.01684042
1305.80259155,0.01692588
1307.73139893,0.01746783
1309.66020630,0.01764616
1311.58901367,0.01769248
1313.51782104,0.01798283
1315.44662842,0.01861057
1317.37543579,0.01895153
1319.30424316,0.01905811
1321.23305054,0.01989613
1323.16185791,0.02056977
1325.09066528,0.02100504
1327.01947266,0.02164548
1328.94828003,0.02215972
1330.87708740,0.02266104
1332.80589478,0.02324071
1334.73470215,0.02370244
1336.66350952,0.02367456
1338.59231689,0.02326578
1340.52112427,0.02346798
1342.44993164,0.02454221
1344.37873901,0.02490950
1346.30754639,0.02483423
1348.23635376,0.02483128
1350.16516113,0.02447763
1352.09396851,0.02448571
1354.02277588,0.02422922
1355.95158325,0.02393400
1357.88039062,0.02378312
1359.80919800,0.02329869
1361.73800537,0.02220191
1363.66681274,0.02187202
1365.59562012,0.02328154
1367.52442749,0.02272279
1369.45323486,0.02235249
1371.38204224,0.02282114
1373.31084961,0.02136950
1375.23965698,0.02161571
1377.16846436,0.02237553
1379.09727173,0.02229390
1381.02607910,0.02235643
1382.95488647,0.02238111
1384.88369385,0.02219613
1386.81250122,0.02091612
1388.74130859,0.02135707
1390.67011597,0.02336195
1392.59892334,0.02261651
1394.52773071,0.02083644
1396.45653809,0.02206537
1398.38534546,0.02197311
1400.31415283,0.02185904
1402.24296021,0.02385709
1404.17176758,0.02237017
1406.10057495,0.02274807
1408.02938232,0.02342543
1409.95818970,0.02253492
1411.88699707,0.02319053
1413.81580444,0.02212391
1415.74461182,0.02269722
1417.67341919,0.02007050
1419.60222656,0.01792137
1421.53103394,0.02109547
1423.45984131,0.02031633
1425.38864868,0.01990230
1427.31745605,0.02019268
1429.24626343,0.01863474
1431.17507080,0.01820080
1433.10387817,0.01852322
1435.03268555,0.01666046
1436.96149292,0.01406149
1438.89030029,0.01637523
1440.81910767,0.01673162
1442.74791504,0.01553035
1444.67672241,0.01637537
1446.60552979,0.01502392
1448.53433716,0.01530199
1450.46314453,0.01577392
1452.39195190,0.01598877
1454.32075928,0.01644375
1456.24956665,0.01329130
1458.17837402,0.01394891
1460.10718140,0.01883282
1462.03598877,0.01977537
1463.96479614,0.01953435
1465.89360352,0.02033233
1467.82241089,0.02341034
1469.75121826,0.02504858
1471.68002563,0.02164284
1473.60883301,0.02293055
1475.53764038,0.02606933
1477.46644775,0.02808725
1479.39525513,0.03112710
1481.32406250,0.03130929
1483.25286987,0.03340038
1485.18167725,0.03421758
1487.11048462,0.03336049
1489.03929199,0.03284245
1490.96809937,0.03302905
1492.89690674,0.03919793
1494.82571411,0.03780542
1496.75452148,0.03354136
1498.68332886,0.03820461
1500.61213623,0.03941838
1502.54094360,0.04277479
1504.46975098,0.03935168
1506.39855835,0.02713130
1508.32736572,0.03485230
1510.25617310,0.04130111
1512.18498047,0.03993946
1514.11378784,0.04372697
1516.04259521,0.03848609
1517.97140259,0.04053538
1519.90020996,0.03861266
1521.82901733,0.03296574
1523.75782471,0.04176598
1525.68663208,0.04051924
1527.61543945,0.04073151
1529.54424683,0.04557402
1531.47305420,0.04334387
1533.40186157,0.03905694
1535.33066895,0.04197701
1537.25947632,0.04518984
1539.18828369,0.03059042
1541.11709106,0.03293072
1543.04589844,0.03991722
1544.97470581,0.03797162
1546.90351318,0.04630211
1548.83232056,0.04253205
1550.76112793,0.04422697
1552.68993530,0.04370432
1554.61874268,0.03926637
1556.54755005,0.04208131
1558.47635742,0.02774270
1560.40516479,0.03125167
1562.33397217,0.04637224
1564.26277954,0.04332953
1566.19158691,0.04520342
1568.12039429,0.04430074
1570.04920166,0.03852096
1571.97800903,0.04581501
1573.90681641,0.04581998
1575.83562378,0.03511382
1577.76443115,0.04101045
1579.69323853,0.04646700
1581.62204590,0.04432542
1583.55085327,0.04587389
1585.47966064,0.04494824
1587.40846802,0.04538330
1589.33727539,0.04489872
1591.26608276,0.04492823
1593.19489014,0.04497831
1595.12369751,0.04421657
1597.05250488,0.04485717
1598.98131226,0.04460097
1600.91011963,0.04474374
1602.83892700,0.04383411
1604.76773437,0.04470067
1606.69654175,0.04383954
1608.62534912,0.04383083
1610.55415649,0.04373402
1612.48296387,0.04418153
1614.41177124,0.04465681
1616.34057861,0.03538431
1618.26938599,0.03928727
1620.19819336,0.04632096
1622.12700073,0.04019458
1624.05580811,0.04059924
1625.98461548,0.04294389
1627.91342285,0.04242913
1629.84223022,0.04240669
1631.77103760,0.04573232
1633.69984497,0.04107763
1635.62865234,0.03307987
1637.55745972,0.03967094
1639.48626709,0.04415374
1641.41507446,0.04298365
1643.34388184,0.04416313
1645.27268921,0.03900722
1647.20149658,0.03363850
1649.13030396,0.04365990
1651.05911133,0.04045904
1652.98791870,0.02409169
1654.91672607,0.03524190
1656.84553345,0.04516173
1658.77434082,0.04331972
1660.70314819,0.04439519
1662.63195557,0.03967210
1664.56076294,0.04242322
1666.48957031,0.04570532
1668.41837769,0.03897865
1670.34718506,0.03780771
1672.27599243,0.04373656
1674.20479980,0.03950055
1676.13360718,0.03793147
1678.06241455,0.04467056
1679.99122192,0.04255541
1681.92002930,0.04182445
1683.84883667,0.03256360
1685.77764404,0.03312214
1687.70645142,0.04695248
1689.63525879,0.03958022
1691.56406616,0.04497316
1693.49287354,0.04508401
1695.42168091,0.03155053
1697.35048828,0.04050852
1699.27929565,0.03421579
1701.20810303,0.03083700
1703.13691040,0.04383692
1705.06571777,0.03925452
1706.99452515,0.04000915
1708.92333252,0.04403778
1710.85213989,0.04204778
1712.78094727,0.04277169
1714.70975464,0.03908485
1716.63856201,0.03444951
1718.56736938,0.03402734
1720.49617676,0.04163868
1722.42498413,0.04319069
1724.35379150,0.03975683
1726.28259888,0.04388741
1728.21140625,0.03993053
1730.14021362,0.04037564
1732.06902100,0.03887938
1733.99782837,0.02845966
1735.92663574,0.03720025
1737.85544312,0.04118804
1739.78425049,0.03613354
1741.71305786,0.03986994
1743.64186523,0.04007304
1745.57067261,0.04012222
1747.49947998,0.04048003
1749.42828735,0.03835826
1751.35709473,0.03647273
1753.28590210,0.04116700
1755.21470947,0.04297516
1757.14351685,0.03874125
1759.07232422,0.04332577
1761.00113159,0.03986892
1762.92993896,0.03861947
1764.85874634,0.04509378
1766.78755371,0.03977856
1768.71636108,0.04027326
1770.64516846,0.03953560
1772.57397583,0.03514237
1774.50278320,0.04019439
1776.43159058,0.04266484
1778.36039795,0.04199049
1780.28920532,0.04115517
1782.21801270,0.04169336
1784.14682007,0.04156540
1786.07562744,0.04056823
1788.00443481,0.04318268
1789.93324219,0.04152796
1791.86204956,0.03694215
1793.79085693,0.03897849
1795.71966431,0.04225200
1797.64847168,0.04157728
1799.57727905,0.04059890
1801.50608643,0.03983362
1803.43489380,0.04141102
1805.36370117,0.04246275
1807.29250854,0.04179968
1809.22131592,0.04188211
1811.15012329,0.04060008
1813.07893066,0.04201776
1815.00773804,0.04220946
1816.93654541,0.04160958
1818.86535278,0.04208392
1820.79416016,0.04184521
1822.72296753,0.04234567
1824.65177490,0.03914135
1826.58058228,0.04076478
1828.50938965,0.04071039
1830.43819702,0.03768538
1832.36700439,0.04181114
1834.29581177,0.04167037
1836.22461914,0.04136612
1838.15342651,0.04111394
1840.08223389,0.04157122
1842.01104126,0.04139943
1843.93984863,0.03596350
1845.86865601,0.03903818
1847.79746338,0.04146979
1849.72627075,0.04057875
1851.65507812,0.04181703
1853.58388550,0.04071241
1855.51269287,0.04138390
1857.44150024,0.04081877
1859.37030762,0.04058237
1861.29911499,0.04104954
1863.22792236,0.04046449
1865.15672974,0.04089133
1867.08553711,0.03907742
1869.01434448,0.03724435
1870.94315186,0.03911129
1872.87195923,0.04092313
1874.80076660,0.04007203
1876.72957397,0.04022130
1878.65838135,0.03997551
1880.58718872,0.03983288
1882.51599609,0.04032220
1884.44480347,0.03934268
1886.37361084,0.04024154
1888.30241821,0.03904522
1890.23122559,0.03798595
1892.16003296,0.03982203
1894.08884033,0.03900632
1896.01764771,0.03891463
1897.94645508,0.03944756
1899.87526245,0.03910382
1901.80406982,0.03911751
1903.73287720,0.03885927
1905.66168457,0.03913678
1907.59049194,0.03865127
1909.51929932,0.03835794
1911.44810669,0.03850670
1913.37691406,0.03866035
1915.30572144,0.03904514
1917.23452881,0.03698194
1919.16333618,0.03703744
1921.09214355,0.03857578
1923.02095093,0.03715380
1924.94975830,0.03801510
1926.87856567,0.03860142
1928.80737305,0.03813832
1930.73618042,0.03851987
1932.66498779,0.03773712
1934.59379517,0.03815463
1936.52260254,0.03784251
1938.45140991,0.03796344
1940.38021729,0.03794585
1942.30902466,0.03632648
1944.23783203,0.03719421
1946.16663940,0.03770000
1948.09544678,0.03749766
1950.02425415,0.03765163
1951.95306152,0.03742151
1953.88186890,0.03741214
1955.81067627,0.03728008
1957.73948364,0.03767339
1959.66829102,0.03761227
1961.59709839,0.03733658
1963.52590576,0.03744096
1965.45471313,0.03709347
1967.38352051,0.03657725
1969.31232788,0.03692662
1971.24113525,0.03728597
1973.16994263,0.03703208
1975.09875000,0.03704846
1977.02755737,0.03675361
1978.95636475,0.03690700
1980.88517212,0.03674229
1982.81397949,0.03654205
1984.74278687,0.03677000
1986.67159424,0.03628490
1988.60040161,0.03653239
1990.52920898,0.03600688
1992.45801636,0.03553873
1994.38682373,0.03624782
1996.31563110,0.03617296
1998.24443848,0.03609864
2000.17324585,0.03598464
2002.10205322,0.03582300
2004.03086060,0.03581932
2005.95966797,0.03566584
2007.88847534,0.03553746
2009.81728271,0.03548855
2011.74609009,0.03527252
2013.67489746,0.03524852
2015.60370483,0.03521600
2017.53251221,0.03476585
2019.46131958,0.03503278
2021.39012695,0.03496058
2023.31893433,0.03467317
2025.24774170,0.03482809
2027.17654907,0.03460225
2029.10535645,0.03459777
2031.03416382,0.03445121
2032.96297119,0.03426899
2034.89177856,0.03411797
2036.82058594,0.03411266
2038.74939331,0.03417788
2040.67820068,0.03384456
2042.60700806,0.03385734
2044.53581543,0.03377432
2046.46462280,0.03362267
2048.39343018,0.03364102
2050.32223755,0.03361710
2052.25104492,0.03361454
2054.17985229,0.03333820
2056.10865967,0.03323522
2058.03746704,0.03335364
2059.96627441,0.03322393
2061.89508179,0.03308222
2063.82388916,0.03293369
2065.75269653,0.03275275
2067.68150391,0.03285642
2069.61031128,0.03275417
2071.53911865,0.03263118
2073.46792603,0.03263823
2075.39673340,0.03242261
2077.32554077,0.03238370
2079.25434814,0.03228138
2081.18315552,0.03224221
2083.11196289,0.03215073
2085.04077026,0.03202074
2086.96957764,0.03197920
2088.89838501,0.03177558
2090.82719238,0.03195787
2092.75599976,0.03185076
2094.68480713,0.03149717
2096.61361450,0.03154127
2098.54242187,0.03148387
2100.47122925,0.03141961
2102.40003662,0.03146631
2104.32884399,0.03137609
2106.25765137,0.03122811
2108.18645874,0.03128203
2110.11526611,0.03127165
2112.04407349,0.03116210
2113.97288086,0.03104061
2115.90168823,0.03097440
2117.83049561,0.03093403
2119.75930298,0.03079662
2121.68811035,0.03081469
2123.61691772,0.03068295
2125.54572510,0.03059935
2127.47453247,0.03071476
2129.40333984,0.03057076
2131.33214722,0.03038960
2133.26095459,0.03036676
2135.18976196,0.03027196
2137.11856934,0.03023954
2139.04737671,0.03024482
2140.97618408,0.03008225
2142.90499146,0.03019866
2144.83379883,0.03009980
2146.76260620,0.02991508
2148.69141357,0.03006752
2150.62022095,0.02993294
2152.54902832,0.02978519
2154.47783569,0.02977854
2156.40664307,0.02985598
2158.33545044,0.02973418
2160.26425781,0.02965847
2162.19306519,0.02955116
2164.12187256,0.02935280
2166.05067993,0.02951149
2167.97948730,0.02940427
2169.90829468,0.02955131
2171.83710205,0.02945109
2173.76590942,0.02916478
2175.69471680,0.02940984
2177.62352417,0.02912328
2179.55233154,0.02899285
2181.48113892,0.02909768
2183.40994629,0.02895513
2185.33875366,0.02891925
2187.26756104,0.02899271
2189.19636841,0.02900313
2191.12517578,0.02887439
2193.05398315,0.02876035
2194.98279053,0.02868082
2196.91159790,0.02865661
2198.84040527,0.02852793
2200.76921265,0.02859353
2202.69802002,0.02847126
2204.62682739,0.02838418
2206.55563477,0.02845485
2208.48444214,0.02823499
2210.41324951,0.02841171
2212.34205688,0.02832567
2214.27086426,0.02819536
2216.19967163,0.02808416
2218.12847900,0.02793471
2220.05728638,0.02800491
2221.98609375,0.02784138
2223.91490112,0.02805353
2225.84370850,0.02785744
2227.77251587,0.02777715
2229.70132324,0.02790763
2231.63013062,0.02762748
2233.55893799,0.02768645
2235.48774536,0.02747917
2237.41655273,0.02741320
2239.34536011,0.02744105
2241.27416748,0.02741442
2243.20297485,0.02733544
2245.13178223,0.02715530
2247.06058960,0.02719178
2248.98939697,0.02709355
2250.91820435,0.02715988
2252.84701172,0.02701505
2254.77581909,0.02694282
2256.70462646,0.02692128
2258.63343384,0.02685608
2260.56224121,0.02694999
2262.49104858,0.02668243
2264.41985596,0.02668276
2266.34866333,0.02663248
2268.27747070,0.02658102
2270.20627808,0.02657164
2272.13508545,0.02657640
2274.06389282,0.02671351
2275.99270020,0.02635659
2277.92150757,0.02632609
2279.85031494,0.02636405
2281.77912231,0.02622668
2283.70792969,0.02625196
2285.63673706,0.02613066
2287.56554443,0.02602464
2289.49435181,0.02597776
2291.42315918,0.02598438
2293.35196655,0.02589447
2295.28077393,0.02587607
2297.20958130,0.02579843
2299.13838867,0.02565986
2301.06719604,0.02553828
2302.99600342,0.02532988
2304.92481079,0.02517543
2306.85361816,0.02498708
2308.78242554,0.02490260
2310.71123291,0.02468204
2312.64004028,0.02449965
2314.56884766,0.02424609
2316.49765503,0.02379256
2318.42646240,0.02361495
2320.35526978,0.02333405
2322.28407715,0.02299860
2324.21288452,0.02273276
2326.14169189,0.02242779
2328.07049927,0.02215345
2329.99930664,0.02195055
2331.92811401,0.02174428
2333.85692139,0.02162182
2335.78572876,0.02159510
2337.71453613,0.02152585
2339.64334351,0.02162369
2341.57215088,0.02169578
2343.50095825,0.02185490
2345.42976562,0.02210636
2347.35857300,0.02301735
2349.28738037,0.02385097
2351.21618774,0.02293001
2353.14499512,0.02183696
2355.07380249,0.02108102
2357.00260986,0.02047767
2358.93141724,0.02020694
2360.86022461,0.01983248
2362.78903198,0.01980820
2364.71783936,0.01992514
2366.64664673,0.02029854
2368.57545410,0.02058530
2370.50426147,0.02093980
2372.43306885,0.02170243
2374.36187622,0.02213170
2376.29068359,0.02260589
2378.21949097,0.02288255
2380.14829834,0.02312172
2382.07710571,0.02357597
2384.00591309,0.02362170
2385.93472046,0.02360260
2387.86352783,0.02362253
2389.79233521,0.02362467
2391.72114258,0.02365377
2393.64994995,0.02355236
2395.57875732,0.02348508
2397.50756470,0.02352797
2399.43637207,0.02345885
2401.36517944,0.02333367
2403.29398682,0.02330119
2405.22279419,0.02332439
2407.15160156,0.02332178
2409.08040894,0.02333671
2411.00921631,0.02325740
2412.93802368,0.02296213
2414.86683105,0.02297911
2416.79563843,0.02306226
2418.72444580,0.02297276
2420.65325317,0.02299840
2422.58206055,0.02292028
2424.51086792,0.02290728
2426.43967529,0.02283780
2428.36848267,0.02267241
2430.29729004,0.02260006
2432.22609741,0.02265519
2434.15490479,0.02271051
2436.08371216,0.02253732
2438.01251953,0.02254334
2439.94132690,0.02258288
2441.87013428,0.02250386
2443.79894165,0.02235177
2445.72774902,0.02223246
2447.65655640,0.02236856
2449.58536377,0.02226482
2451.51417114,0.02218711
2453.44297852,0.02219742
2455.37178589,0.02208928
2457.30059326,0.02216749
2459.22940063,0.02211483
2461.15820801,0.02211709
2463.08701538,0.02210659
2465.01582275,0.02186847
2466.94463013,0.02183912
2468.87343750,0.02178511
2470.80224487,0.02172186
2472.73105225,0.02172719
2474.65985962,0.02171799
2476.58866699,0.02169521
2478.51747437,0.02149444
2480.44628174,0.02155758
2482.37508911,0.02162052
2484.30389648,0.02149030
2486.23270386,0.02155271
2488.16151123,0.02148807
2490.09031860,0.02133938
2492.01912598,0.02129399
2493.94793335,0.02131397
2495.87674072,0.02120053
2497.80554810,0.02130381
2499.73435547,0.02144638
2501.66316284,0.02112106
2503.59197021,0.02110288
2505.52077759,0.02105506
2507.44958496,0.02104300
2509.37839233,0.02120471
2511.30719971,0.02102151
2513.23600708,0.02102166
2515.16481445,0.02086332
2517.09362183,0.02076878
2519.02242920,0.02083495
2520.95123657,0.02065865
2522.88004395,0.02072257
2524.80885132,0.02075486
2526.73765869,0.02056877
2528.66646606,0.02049774
2530.59527344,0.02064162
2532.52408081,0.02055273
2534.45288818,0.02045370
2536.38169556,0.02056326
2538.31050293,0.02041447
2540.23931030,0.02040577
2542.16811768,0.02038505
2544.09692505,0.02023449
2546.02573242,0.02021970
2547.95453979,0.02023566
2549.88334717,0.02028301
2551.81215454,0.02017219
2553.74096191,0.02012574
2555.66976929,0.02010055
2557.59857666,0.01998282
2559.52738403,0.02001700
2561.45619141,0.02000109
2563.38499878,0.01990167
2565.31380615,0.01982612
2567.24261353,0.01977314
2569.17142090,0.01976025
2571.10022827,0.01977530
2573.02903564,0.01973095
2574.95784302,0.01966087
2576.88665039,0.01968469
2578.81545776,0.01962034
2580.74426514,0.01960126
2582.67307251,0.01955662
2584.60187988,0.01937372
2586.53068726,0.01953198
2588.45949463,0.01954086
2590.38830200,0.01936747
2592.31710937,0.01932235
2594.24591675,0.01916591
2596.17472412,0.01932870
2598.10353149,0.01921985
2600.03233887,0.01903092
2601.96114624,0.01919881
2603.88995361,0.01908340
2605.81876099,0.01918192
2607.74756836,0.01908185
2609.67637573,0.01887053
2611.60518311,0.01901944
2613.53399048,0.01894158
2615.46279785,0.01886880
2617.39160522,0.01883090
2619.32041260,0.01882254
2621.24921997,0.01880464
2623.17802734,0.01878937
2625.10683472,0.01879349
2627.03564209,0.01872710
2628.96444946,0.01871178
2630.89325684,0.01857487
2632.82206421,0.01855911
2634.75087158,0.01853191
2636.67967895,0.01848462
2638.60848633,0.01850700
2640.53729370,0.01838711
2642.46610107,0.01838871
2644.39490845,0.01832667
2646.32371582,0.01829860
2648.25252319,0.01833169
2650.18133057,0.01825021
2652.11013794,0.01822691
2654.03894531,0.01816032
2655.96775269,0.01808510
2657.89656006,0.01806307
2659.82536743,0.01803316
2661.75417480,0.01797681
2663.68298218,0.01799934
2665.61178955,0.01796049
2667.54059692,0.01788006
2669.46940430,0.01789997
2671.39821167,0.01787344
2673.32701904,0.01784695
2675.25582642,0.01773132
2677.18463379,0.01777398
2679.11344116,0.01781567
2681.04224854,0.01755296
2682.97105591,0.01758460
2684.89986328,0.01762786
2686.82867065,0.01747757
2688.75747803,0.01754741
2690.68628540,0.01744150
2692.61509277,0.01729662
2694.54390015,0.01739902
2696.47270752,0.01736387
2698.40151489,0.01737938
2700.33032227,0.01736634
2702.25912964,0.01726178
2704.18793701,0.01730952
2706.11674438,0.01724406
2708.04555176,0.01721275
2709.97435913,0.01715716
2711.90316650,0.01705148
2713.83197388,0.01705156
2715.76078125,0.01700680
2717.68958862,0.01702261
2719.61839600,0.01694709
2721.54720337,0.01689697
2723.47601074,0.01692580
2725.40481812,0.01683853
2727.33362549,0.01677903
2729.26243286,0.01676491
2731.19124023,0.01674259
2733.12004761,0.01666152
2735.04885498,0.01667983
2736.97766235,0.01667491
2738.90646973,0.01659299
2740.83527710,0.01663806
2742.76408447,0.01653733
2744.69289185,0.01636603
2746.62169922,0.01640647
2748.55050659,0.01644612
2750.47931396,0.01633136
2752.40812134,0.01630284
2754.33692871,0.01631372
2756.26573608,0.01622928
2758.19454346,0.01619584
2760.12335083,0.01612466
2762.05215820,0.01610159
2763.98096558,0.01612558
2765.90977295,0.01606809
2767.83858032,0.01607409
2769.76738770,0.01601179
2771.69619507,0.01595112
2773.62500244,0.01599584
2775.55380981,0.01589685
2777.48261719,0.01581704
2779.41142456,0.01581801
2781.34023193,0.01580318
2783.26903931,0.01581603
2785.19784668,0.01570698
2787.12665405,0.01560880
2789.05546143,0.01567154
2790.98426880,0.01569955
2792.91307617,0.01560063
2794.84188354,0.01560304
2796.77069092,0.01562680
2798.69949829,0.01551300
2800.62830566,0.01547050
2802.55711304,0.01537701
2804.48592041,0.01534473
2806.41472778,0.01530846
2808.34353516,0.01515934
2810.27234253,0.01515625
2812.20114990,0.01514510
2814.12995728,0.01517682
2816.05876465,0.01511169
2817.98757202,0.01502833
2819.91637939,0.01508294
2821.84518677,0.01502078
2823.77399414,0.01493715
2825.70280151,0.01492579
2827.63160889,0.01497329
2829.56041626,0.01489739
2831.48922363,0.01489641
2833.41803101,0.01489841
2835.34683838,0.01474815
2837.27564575,0.01463799
2839.20445312,0.01454525
2841.13326050,0.01462446
2843.06206787,0.01453767
2844.99087524,0.01450998
2846.91968262,0.01450667
2848.84848999,0.01431501
2850.77729736,0.01436036
2852.70610474,0.01421424
2854.63491211,0.01420060
2856.56371948,0.01429609
2858.49252686,0.01415638
2860.42133423,0.01417515
2862.35014160,0.01419459
2864.27894897,0.01410650
2866.20775635,0.01403050
2868.13656372,0.01410418
2870.06537109,0.01396859
2871.99417847,0.01385324
2873.92298584,0.01394476
2875.85179321,0.01383189
2877.78060059,0.01388203
2879.70940796,0.01394601
2881.63821533,0.01386620
2883.56702270,0.01383779
2885.49583008,0.01381378
2887.42463745,0.01381416
2889.35344482,0.01379104
2891.28225220,0.01366612
2893.21105957,0.01360423
2895.13986694,0.01365794
2897.06867432,0.01358202
2898.99748169,0.01360473
2900.92628906,0.01357093
2902.85509644,0.01348020
2904.78390381,0.01349741
2906.71271118,0.01337828
2908.64151855,0.01337060
2910.57032593,0.01330779
2912.49913330,0.01326273
2914.42794067,0.01332845
2916.35674805,0.01324506
2918.28555542,0.01316309
2920.21436279,0.01309751
2922.14317017,0.01306347
2924.07197754,0.01308075
2926.00078491,0.01313407
2927.92959229,0.01302197
2929.85839966,0.01303559
2931.78720703,0.01317259
2933.71601440,0.01294012
2935.64482178,0.01293563
2937.57362915,0.01307178
2939.50243652,0.01291977
2941.43124390,0.01291510
2943.36005127,0.01296391
2945.28885864,0.01292798
2947.21766602,0.01287431
2949.14647339,0.01273392
2951.07528076,0.01274444
2953.00408813,0.01276101
2954.93289551,0.01275156
2956.86170288,0.01279123
2958.79051025,0.01261639
2960.71931763,0.01269243
2962.64812500,0.01267723
2964.57693237,0.01242708
2966.50573975,0.01250102
2968.43454712,0.01250043
2970.36335449,0.01251222
2972.29216187,0.01246808
2974.22096924,0.01240488
2976.14977661,0.01242117
2978.07858398,0.01237168
2980.00739136,0.01243203
2981.93619873,0.01237072
2983.86500610,0.01244304
2985.79381348,0.01249276
2987.72262085,0.01230629
2989.65142822,0.01232442
2991.58023560,0.01236057
2993.50904297,0.01224293
2995.43785034,0.01222071
2997.36665771,0.01227836
2999.29546509,0.01220695
3001.22427246,0.01218966
3003.15307983,0.01216021
3005.08188721,0.01212047
3007.01069458,0.01206081
3008.93950195,0.01198439
3010.86830933,0.01200387
3012.79711670,0.01194642
3014.72592407,0.01204045
3016.65473145,0.01193371
3018.58353882,0.01179740
3020.51234619,0.01187732
3022.44115356,0.01185933
3024.36996094,0.01189978
3026.29876831,0.01178090
3028.22757568,0.01181439
3030.15638306,0.01169016
3032.08519043,0.01151382
3034.01399780,0.01168679
3035.94280518,0.01156786
3037.87161255,0.01156779
3039.80041992,0.01158518
3041.72922729,0.01148161
3043.65803467,0.01153194
3045.58684204,0.01156458
3047.51564941,0.01146581
3049.44445679,0.01133459
3051.37326416,0.01141428
3053.30207153,0.01133066
3055.23087891,0.01121047
3057.15968628,0.01121711
3059.08849365,0.01124533
3061.01730103,0.01123722
3062.94610840,0.01114633
3064.87491577,0.01115477
3066.80372314,0.01109039
3068.73253052,0.01109053
3070.66133789,0.01101525
3072.59014526,0.01095509
3074.51895264,0.01101067
3076.44776001,0.01093889
3078.37656738,0.01091623
3080.30537476,0.01082186
3082.23418213,0.01093422
3084.16298950,0.01095940
3086.09179687,0.01085019
3088.02060425,0.01094487
3089.94941162,0.01077073
3091.87821899,0.01071287
3093.80702637,0.01069423
3095.73583374,0.01062446
3097.66464111,0.01076098
3099.59344849,0.01067947
3101.52225586,0.01060227
3103.45106323,0.01059679
3105.37987061,0.01056684
3107.30867798,0.01056531
3109.23748535,0.01043862
3111.16629272,0.01040415
3113.09510010,0.01042275
3115.02390747,0.01042720
3116.95271484,0.01040659
3118.88152222,0.01031508
3120.81032959,0.01034116
3122.73913696,0.01029854
3124.66794434,0.01029253
3126.59675171,0.01026971
3128.52555908,0.01019458
3130.45436645,0.01023200
3132.38317383,0.01008883
3134.31198120,0.01012427
3136.24078857,0.01012542
3138.16959595,0.01004505
3140.09840332,0.01009652
3142.02721069,0.00995681
3143.95601807,0.00998489
3145.88482544,0.00986975
3147.81363281,0.00980909
3149.74244019,0.00990080
3151.67124756,0.00978368
3153.60005493,0.00985428
3155.52886230,0.00983548
3157.45766968,0.00969682
3159.38647705,0.00957397
3161.31528442,0.00967323
3163.24409180,0.00971043
3165.17289917,0.00951044
3167.10170654,0.00956810
3169.03051392,0.00951123
3170.95932129,0.00951594
3172.88812866,0.00958746
3174.81693604,0.00949240
3176.74574341,0.00942285
3178.67455078,0.00934937
3180.60335815,0.00936906
3182.53216553,0.00938353
3184.46097290,0.00935385
3186.38978027,0.00930304
3188.31858765,0.00929032
3190.24739502,0.00920961
3192.17620239,0.00921418
3194.10500977,0.00922997
3196.03381714,0.00911597
3197.96262451,0.00914552
3199.89143188,0.00903380
3201.82023926,0.00905400
3203.74904663,0.00908965
3205.67785400,0.00902707
3207.60666138,0.00905395
3209.53546875,0.00893210
3211.46427612,0.00900075
3213.39308350,0.00897300
3215.32189087,0.00886433
3217.25069824,0.00889760
3219.17950562,0.00891846
3221.10831299,0.00887225
3223.03712036,0.00877960
3224.96592773,0.00888138
3226.89473511,0.00886934
3228.82354248,0.00881498
3230.75234985,0.00876186
3232.68115723,0.00874019
3234.60996460,0.00870400
3236.53877197,0.00854915
3238.46757935,0.00863298
3240.39638672,0.00863774
3242.32519409,0.00861533
3244.25400146,0.00861288
3246.18280884,0.00860295
3248.11161621,0.00855851
3250.04042358,0.00850693
3251.96923096,0.00865809
3253.89803833,0.00840531
3255.82684570,0.00830020
3257.75565308,0.00857093
3259.68446045,0.00852093
3261.61326782,0.00854895
3263.54207520,0.00863727
3265.47088257,0.00842658
3267.39968994,0.00828880
3269.32849731,0.00843812
3271.25730469,0.00847589
3273.18611206,0.00839160
3275.11491943,0.00832544
3277.04372681,0.00839929
3278.97253418,0.00841120
3280.90134155,0.00830116
3282.83014893,0.00836607
3284.75895630,0.00828179
3286.68776367,0.00831339
3288.61657104,0.00837890
3290.54537842,0.00824823
3292.47418579,0.00820757
3294.40299316,0.00822270
3296.33180054,0.00824768
3298.26060791,0.00812127
3300.18941528,0.00814726
3302.11822266,0.00813763
3304.04703003,0.00811158
3305.97583740,0.00818227
3307.90464478,0.00802322
3309.83345215,0.00799995
3311.76225952,0.00805613
3313.69106689,0.00810700
3315.61987427,0.00803381
3317.54868164,0.00804743
3319.47748901,0.00808097
3321.40629639,0.00800821
3323.33510376,0.00812586
3325.26391113,0.00792362
3327.19271851,0.00792381
3329.12152588,0.00798536
3331.05033325,0.00782374
3332.97914062,0.00793019
3334.90794800,0.00783843
3336.83675537,0.00783401
3338.76556274,0.00789391
3340.69437012,0.00779425
3342.62317749,0.00776818
3344.55198486,0.00779480
3346.48079224,0.00782703
3348.40959961,0.00780962
3350.33840698,0.00773984
3352.26721436,0.00769745
3354.19602173,0.00775149
3356.12482910,0.00761093
3358.05363647,0.00765891
3359.98244385,0.00773756
3361.91125122,0.00762688
3363.84005859,0.00764367
3365.76886597,0.00744439
3367.69767334,0.00747945
3369.62648071,0.00754949
3371.55528809,0.00753933
3373.48409546,0.00767833
3375.41290283,0.00758397
3377.34171020,0.00751324
3379.27051758,0.00737190
3381.19932495,0.00730499
3383.12813232,0.00745169
3385.05693970,0.00750679
3386.98574707,0.00734627
3388.91455444,0.00737476
3390.84336182,0.00748808
3392.77216919,0.00720090
3394.70097656,0.00726747
3396.62978394,0.00736161
3398.55859131,0.00725535
3400.48739868,0.00735709
3402.41620605,0.00733802
3404.34501343,0.00729739
3406.27382080,0.00718399
3408.20262817,0.00714690
3410.13143555,0.00711819
3412.06024292,0.00706632
3413.98905029,0.00711249
3415.91785767,0.00715095
3417.84666504,0.00719121
3419.77547241,0.00699560
3421.70427979,0.00698719
3423.63308716,0.00711067
3425.56189453,0.00705399
3427.49070190,0.00706567
3429.41950928,0.00703420
3431.34831665,0.00704685
3433.27712402,0.00703926
3435.20593140,0.00695686
3437.13473877,0.00700062
3439.06354614,0.00699889
3440.99235352,0.00685476
3442.92116089,0.00685820
3444.84996826,0.00688532
3446.77877563,0.00680220
3448.70758301,0.00680019
3450.63639038,0.00681770
3452.56519775,0.00686413
3454.49400513,0.00680139
3456.42281250,0.00676732
3458.35161987,0.00681074
3460.28042725,0.00672327
3462.20923462,0.00674320
3464.13804199,0.00679085
3466.06684937,0.00678419
3467.99565674,0.00678158
3469.92446411,0.00673476
3471.85327148,0.00668181
3473.78207886,0.00670772
3475.71088623,0.00668313
3477.63969360,0.00665985
3479.56850098,0.00668554
3481.49730835,0.00648052
3483.42611572,0.00654260
3485.35492310,0.00670345
3487.28373047,0.00653795
3489.21253784,0.00651214
3491.14134521,0.00659916
3493.07015259,0.00664449
3494.99895996,0.00652260
3496.92776733,0.00648830
3498.85657471,0.00657410
3500.78538208,0.00651714
3502.71418945,0.00648420
3504.64299683,0.00646395
3506.57180420,0.00651928
3508.50061157,0.00650479
3510.42941895,0.00645859
3512.35822632,0.00650730
3514.28703369,0.00650797
3516.21584106,0.00653128
3518.14464844,0.00651285
3520.07345581,0.00650069
3522.00226318,0.00645240
3523.93107056,0.00635968
3525.85987793,0.00639738
3527.78868530,0.00634624
3529.71749268,0.00627517
3531.64630005,0.00645336
3533.57510742,0.00648594
3535.50391479,0.00631096
3537.43272217,0.00637031
3539.36152954,0.00646491
3541.29033691,0.00640562
3543.21914429,0.00639349
3545.14795166,0.00619927
3547.07675903,0.00600872
3549.00556641,0.00634058
3550.93437378,0.00631598
3552.86318115,0.00607403
3554.79198853,0.00633223
3556.72079590,0.00631878
3558.64960327,0.00631177
3560.57841064,0.00625787
3562.50721802,0.00623444
3564.43602539,0.00631645
3566.36483276,0.00568544
3568.29364014,0.00558997
3570.22244751,0.00618038
3572.15125488,0.00636410
3574.08006226,0.00627157
3576.00886963,0.00618005
3577.93767700,0.00620808
3579.86648437,0.00613531
3581.79529175,0.00615693
3583.72409912,0.00626042
3585.65290649,0.00596301
3587.58171387,0.00547651
3589.51052124,0.00572494
3591.43932861,0.00622929
3593.36813599,0.00606661
3595.29694336,0.00584009
3597.22575073,0.00589617
3599.15455811,0.00611167
3601.08336548,0.00600251
3603.01217285,0.00595809
3604.94098022,0.00624904
3606.86978760,0.00594478
3608.79859497,0.00548512
3610.72740234,0.00571961
3612.65620972,0.00579333
3614.58501709,0.00565167
3616.51382446,0.00607859
3618.44263184,0.00547322
3620.37143921,0.00534183
3622.30024658,0.00612884
3624.22905395,0.00588670
3626.15786133,0.00620818
3628.08666870,0.00510979
3630.01547607,0.00454988
3631.94428345,0.00604049
3633.87309082,0.00583188
3635.80189819,0.00591658
3637.73070557,0.00605361
3639.65951294,0.00589165
3641.58832031,0.00601186
3643.51712769,0.00592971
3645.44593506,0.00599969
3647.37474243,0.00525510
3649.30354980,0.00475818
3651.23235718,0.00488353
3653.16116455,0.00586387
3655.08997192,0.00574702
3657.01877930,0.00514054
3658.94758667,0.00607341
3660.87639404,0.00579171
3662.80520142,0.00594586
3664.73400879,0.00595542
3666.66281616,0.00581569
3668.59162354,0.00563237
3670.52043091,0.00447269
3672.44923828,0.00571808
3674.37804565,0.00524062
3676.30685303,0.00420021
3678.23566040,0.00554604
3680.16446777,0.00559366
3682.09327515,0.00574367
3684.02208252,0.00581924
3685.95088989,0.00579790
3687.87969727,0.00517885
3689.80850464,0.00451677
3691.73731201,0.00532860
3693.66611938,0.00549389
3695.59492676,0.00574059
3697.52373413,0.00568087
3699.45254150,0.00549647
3701.38134888,0.00540385
3703.31015625,0.00520178
3705.23896362,0.00578121
3707.16777100,0.00548055
3709.09657837,0.00533701
3711.02538574,0.00485439
3712.95419312,0.00458214
3714.88300049,0.00558887
3716.81180786,0.00540750
3718.74061523,0.00552252
3720.66942261,0.00538999
3722.59822998,0.00505964
3724.52703735,0.00534939
3726.45584473,0.00499019
3728.38465210,0.00541744
3730.31345947,0.00542509
3732.24226685,0.00484107
3734.17107422,0.00459941
3736.09988159,0.00439157
3738.02868896,0.00472708
3739.95749634,0.00521738
3741.88630371,0.00535394
3743.81511108,0.00400796
3745.74391846,0.00389121
3747.67272583,0.00522042
3749.60153320,0.00435133
3751.53034058,0.00393977
3753.45914795,0.00466014
3755.38795532,0.00495456
3757.31676270,0.00517751
3759.24557007,0.00480358
3761.17437744,0.00498724
3763.10318481,0.00532637
3765.03199219,0.00491997
3766.96079956,0.00504000
3768.88960693,0.00493688
3770.81841431,0.00474320
3772.74722168,0.00519280
3774.67602905,0.00520685
3776.60483643,0.00519557
3778.53364380,0.00493120
3780.46245117,0.00471752
3782.39125854,0.00512801
3784.32006592,0.00503456
3786.24887329,0.00494652
3788.17768066,0.00509308
3790.10648804,0.00509457
3792.03529541,0.00502518
3793.96410278,0.00515761
3795.89291016,0.00479948
3797.82171753,0.00473451
3799.75052490,0.00499756
3801.67933228,0.00385872
3803.60813965,0.00462796
3805.53694702,0.00505637
3807.46575439,0.00408242
3809.39456177,0.00499531
3811.32336914,0.00488831
3813.25217651,0.00510537
3815.18098389,0.00449810
3817.10979126,0.00391410
3819.03859863,0.00502450
3820.96740601,0.00390328
3822.89621338,0.00425613
3824.82502075,0.00490478
3826.75382812,0.00438296
3828.68263550,0.00493068
3830.61144287,0.00457743
3832.54025024,0.00449830
3834.46905762,0.00458572
3836.39786499,0.00424165
3838.32667236,0.00389144
3840.25547974,0.00417367
3842.18428711,0.00450176
3844.11309448,0.00430153
3846.04190186,0.00477687
3847.97070923,0.00462332
3849.89951660,0.00453967
3851.82832397,0.00408146
3853.75713135,0.00292899
3855.68593872,0.00358570
3857.61474609,0.00460512
3859.54355347,0.00453510
3861.47236084,0.00440923
3863.40116821,0.00428897
3865.32997559,0.00405200
3867.25878296,0.00449239
3869.18759033,0.00405244
3871.11639770,0.00373952
3873.04520508,0.00457632
3874.97401245,0.00414239
3876.90281982,0.00452751
3878.83162720,0.00458109
3880.76043457,0.00374151
3882.68924194,0.00446874
3884.61804932,0.00408863
3886.54685669,0.00376757
3888.47566406,0.00454057
3890.40447144,0.00419800
3892.33327881,0.00398771
3894.26208618,0.00443393
3896.19089355,0.00447423
3898.11970093,0.00416617
3900.04850830,0.00391284
3901.97731567,0.00382583
3903.90612305,0.00378152
3905.83493042,0.00386985
3907.76373779,0.00421071
3909.69254517,0.00432414
3911.62135254,0.00437598
3913.55015991,0.00436459
3915.47896728,0.00414488
3917.40777466,0.00407542
3919.33658203,0.00398821
3921.26538940,0.00417092
3923.19419678,0.00420945
3925.12300415,0.00405734
3927.05181152,0.00423587
3928.98061890,0.00423515
3930.90942627,0.00409697
3932.83823364,0.00399058
3934.76704102,0.00410167
3936.69584839,0.00420394
3938.62465576,0.00417287
3940.55346313,0.00416955
3942.48227051,0.00397505
3944.41107788,0.00400888
3946.33988525,0.00410633
3948.26869263,0.00399176
3950.19750000,0.00398703
3952.12630737,0.00405260
3954.05511475,0.00407670
3955.98392212,0.00404717
3957.91272949,0.00403571
3959.84153687,0.00400676
3961.77034424,0.00397114
3963.69915161,0.00395761
3965.62795898,0.00396826
3967.55676636,0.00405921
3969.48557373,0.00400047
3971.41438110,0.00393397
3973.34318848,0.00398363
3975.27199585,0.00382520
3977.20080322,0.00392898
3979.12961060,0.00404390
3981.05841797,0.00387197
3982.98722534,0.00398831
3984.91603271,0.00390692
3986.84484009,0.00382750
3988.77364746,0.00385515
3990.70245483,0.00380322
3992.63126221,0.00390704
3994.56006958,0.00382525
3996.48887695,0.00382711
3998.41768433,0.00375570
4000.34649170,0.00374598
4002.27529907,0.00390942
4004.20410645,0.00384005
4006.13291382,0.00379538
4008.06172119,0.00373946
4009.99052856,0.00378944
4011.91933594,0.00375813
4013.84814331,0.00370970
4015.77695068,0.00372422
4017.70575806,0.00368821
4019.63456543,0.00375008
4021.56337280,0.00369507
4023.49218018,0.00370484
4025.42098755,0.00368628
4027.34979492,0.00372801
4029.27860229,0.00367408
4031.20740967,0.00361580
4033.13621704,0.00377377
4035.06502441,0.00361456
4036.99383179,0.00363975
4038.92263916,0.00361721
4040.85144653,0.00354852
4042.78025391,0.00365381
4044.70906128,0.00352125
4046.63786865,0.00365598
4048.56667603,0.00370079
4050.49548340,0.00351280
4052.42429077,0.00351431
4054.35309814,0.00353685
4056.28190552,0.00355092
4058.21071289,0.00363721
4060.13952026,0.00358406
4062.06832764,0.00349491
4063.99713501,0.00352837
4065.92594238,0.00337365
4067.85474976,0.00344771
4069.78355713,0.00353939
4071.71236450,0.00346235
4073.64117187,0.00355998
4075.56997925,0.00351195
4077.49878662,0.00350880
4079.42759399,0.00348010
4081.35640137,0.00342405
4083.28520874,0.00344724
4085.21401611,0.00338564
4087.14282349,0.00338328
4089.07163086,0.00342595
4091.00043823,0.00342192
4092.92924561,0.00333242
4094.85805298,0.00332737
4096.78686035,0.00341558
4098.71566772,0.00344668
4100.64447510,0.00331302
4102.57328247,0.00333183
4104.50208984,0.00340217
4106.43089722,0.00320361
4108.35970459,0.00327751
4110.28851196,0.00326037
4112.21731934,0.00315820
4114.14612671,0.00332064
4116.07493408,0.00328663
4118.00374145,0.00325248
4119.93254883,0.00329142
4121.86135620,0.00323729
4123.79016357,0.00317402
4125.71897095,0.00320619
4127.64777832,0.00323747
4129.57658569,0.00324759
4131.50539307,0.00324434
4133.43420044,0.00314913
4135.36300781,0.00312052
4137.29181519,0.00316425
4139.22062256,0.00320519
4141.14942993,0.00308753
4143.07823730,0.00308700
4145.00704468,0.00316998
4146.93585205,0.00305096
4148.86465942,0.00314444
4150.79346680,0.00320729
4152.72227417,0.00306810
4154.65108154,0.00304847
4156.57988892,0.00312612
4158.50869629,0.00318769
4160.43750366,0.00314166
4162.36631103,0.00304315
4164.29511841,0.00306088
4166.22392578,0.00305987
4168.15273315,0.00292735
4170.08154053,0.00298659
4172.01034790,0.00304678
4173.93915527,0.00302765
4175.86796265,0.00305170
4177.79677002,0.00301559
4179.72557739,0.00304784
4181.65438477,0.00301413
4183.58319214,0.00296315
4185.51199951,0.00296443
4187.44080688,0.00297541
4189.36961426,0.00290850
4191.29842163,0.00287633
4193.22722900,0.00294747
4195.15603638,0.00285820
4197.08484375,0.00289906
4199.01365112,0.00287499
4200.94245850,0.00280930
4202.87126587,0.00288651
4204.80007324,0.00281721
4206.72888062,0.00283601
4208.65768799,0.00280861
4210.58649536,0.00277243
4212.51530273,0.00283570
4214.44411011,0.00283633
4216.37291748,0.00281007
4218.30172485,0.00284530
4220.23053223,0.00289162
4222.15933960,0.00278583
4224.08814697,0.00281119
4226.01695435,0.00279211
4227.94576172,0.00270206
4229.87456909,0.00278381
4231.80337646,0.00279805
4233.73218384,0.00275631
4235.66099121,0.00267698
4237.58979858,0.00270748
4239.51860596,0.00274666
4241.44741333,0.00268948
4243.37622070,0.00271792
4245.30502808,0.00271974
4247.23383545,0.00267127
4249.16264282,0.00265728
4251.09145020,0.00271948
4253.02025757,0.00270604
4254.94906494,0.00266085
4256.87787231,0.00267110
4258.80667969,0.00263854
4260.73548706,0.00267524
4262.66429443,0.00269698
4264.59310181,0.00264432
4266.52190918,0.00263356
4268.45071655,0.00260228
4270.37952393,0.00252909
4272.30833130,0.00257517
4274.23713867,0.00261888
4276.16594604,0.00251780
4278.09475342,0.00252229
4280.02356079,0.00252475
4281.95236816,0.00248363
4283.88117554,0.00258562
4285.80998291,0.00256195
4287.73879028,0.00249723
4289.66759766,0.00254888
4291.59640503,0.00252994
4293.52521240,0.00254135
4295.45401978,0.00255507
4297.38282715,0.00258570
4299.31163452,0.00260727
4301.24044189,0.00250177
4303.16924927,0.00246619
4305.09805664,0.00249478
4307.02686401,0.00251752
4308.95567139,0.00246177
4310.88447876,0.00246004
4312.81328613,0.00252923
4314.74209351,0.00246562
4316.67090088,0.00240421
4318.59970825,0.00239168
4320.52851562,0.00247800
4322.45732300,0.00243353
4324.38613037,0.00234646
4326.31493774,0.00242744
4328.24374512,0.00244141
4330.17255249,0.00245348
4332.10135986,0.00235821
4334.03016724,0.00233775
4335.95897461,0.00240208
4337.88778198,0.00236262
4339.81658936,0.00233436
4341.74539673,0.00227855
4343.67420410,0.00233917
4345.60301147,0.00237829
4347.53181885,0.00231407
4349.46062622,0.00228644
4351.38943359,0.00237053
4353.31824097,0.00230971
4355.24704834,0.00227657
4357.17585571,0.00247180
4359.10466309,0.00230677
4361.03347046,0.00226139
4362.96227783,0.00233236
4364.89108520,0.00230356
4366.81989258,0.00234701
4368.74869995,0.00217607
4370.67750732,0.00222948
4372.60631470,0.00225061
4374.53512207,0.00221086
4376.46392944,0.00229111
4378.39273682,0.00227339
4380.32154419,0.00228820
4382.25035156,0.00218659
4384.17915894,0.00218442
4386.10796631,0.00217934
4388.03677368,0.00221035
4389.96558105,0.00221476
4391.89438843,0.00209001
4393.82319580,0.00220601
4395.75200317,0.00219054
4397.68081055,0.00218047
4399.60961792,0.00219966
4401.53842529,0.00208871
4403.46723267,0.00209940
4405.39604004,0.00210071
4407.32484741,0.00214958
4409.25365478,0.00216956
4411.18246216,0.00210189
4413.11126953,0.00211411
4415.04007690,0.00218665
4416.96888428,0.00213879
4418.89769165,0.00206501
4420.82649902,0.00211064
4422.75530640,0.00211463
4424.68411377,0.00207774
4426.61292114,0.00201852
4428.54172852,0.00206562
4430.47053589,0.00216428
4432.39934326,0.00214005
4434.32815063,0.00210158
4436.25695801,0.00209242
4438.18576538,0.00206404
4440.11457275,0.00199731
4442.04338013,0.00204790
4443.97218750,0.00207650
4445.90099487,0.00200733
4447.82980225,0.00207550
4449.75860962,0.00208966
4451.68741699,0.00195220
4453.61622437,0.00190362
4455.54503174,0.00198162
4457.47383911,0.00199471
4459.40264648,0.00190714
4461.33145386,0.00190203
4463.26026123,0.00194432
4465.18906860,0.00192516
4467.11787598,0.00196461
4469.04668335,0.00197610
4470.97549072,0.00195934
4472.90429810,0.00201482
4474.83310547,0.00194384
4476.76191284,0.00186514
4478.69072021,0.00187701
4480.61952759,0.00191538
4482.54833496,0.00192901
4484.47714233,0.00187267
4486.40594971,0.00187513
4488.33475708,0.00185022
4490.26356445,0.00188074
4492.19237183,0.00196827
4494.12117920,0.00190727
4496.04998657,0.00184797
4497.97879395,0.00190230
4499.90760132,0.00190609
4501.83640869,0.00179354
4503.76521606,0.00185595
4505.69402344,0.00197474
4507.62283081,0.00185636
4509.55163818,0.00174812
4511.48044556,0.00177353
4513.40925293,0.00178841
4515.33806030,0.00177217
4517.26686768,0.00179901
4519.19567505,0.00182735
4521.12448242,0.00178451
4523.05328979,0.00175370
4524.98209717,0.00181438
4526.91090454,0.00179534
4528.83971191,0.00172863
4530.76851929,0.00174736
4532.69732666,0.00175397
4534.62613403,0.00180192
4536.55494141,0.00181996
4538.48374878,0.00181129
4540.41255615,0.00179352
4542.34136353,0.00173051
4544.27017090,0.00173547
4546.19897827,0.00172459
4548.12778564,0.00175302
4550.05659302,0.00176398
4551.98540039,0.00170375
4553.91420776,0.00174957
4555.84301514,0.00176437
4557.77182251,0.00170980
4559.70062988,0.00172511
4561.62943726,0.00165986
4563.55824463,0.00161333
4565.48705200,0.00168783
4567.41585937,0.00160876
4569.34466675,0.00162333
4571.27347412,0.00165588
4573.20228149,0.00160692
4575.13108887,0.00169580
4577.05989624,0.00160938
4578.98870361,0.00161016
4580.91751099,0.00165719
4582.84631836,0.00157160
4584.77512573,0.00166219
4586.70393311,0.00168141
4588.63274048,0.00154969
4590.56154785,0.00150918
4592.49035522,0.00163359
4594.41916260,0.00162438
4596.34796997,0.00158834
4598.27677734,0.00167528
4600.20558472,0.00159684
4602.13439209,0.00150678
4604.06319946,0.00154587
4605.99200684,0.00162243
4607.92081421,0.00153663
4609.84962158,0.00152535
4611.77842895,0.00160299
4613.70723633,0.00155065
4615.63604370,0.00158357
4617.56485107,0.00155007
4619.49365845,0.00158155
4621.42246582,0.00157835
4623.35127319,0.00148902
4625.28008057,0.00154826
4627.20888794,0.00154054
4629.13769531,0.00155775
4631.06650269,0.00149961
4632.99531006,0.00149605
4634.92411743,0.00160043
4636.85292480,0.00154175
4638.78173218,0.00152719
4640.71053955,0.00154497
4642.63934692,0.00152076
4644.56815430,0.00148177
4646.49696167,0.00148662
4648.42576904,0.00146920
4650.35457642,0.00143880
4652.28338379,0.00149261
4654.21219116,0.00147558
4656.14099853,0.00146039
4658.06980591,0.00145125
4659.99861328,0.00142908
4661.92742065,0.00141972
4663.85622803,0.00141174
4665.78503540,0.00144538
4667.71384277,0.00146926
4669.64265015,0.00148865
4671.57145752,0.00140885
4673.50026489,0.00140266
4675.42907227,0.00148052
4677.35787964,0.00140397
4679.28668701,0.00138302
4681.21549438,0.00139073
4683.14430176,0.00140837
4685.07310913,0.00144451
4687.00191650,0.00136178
4688.93072388,0.00133219
4690.85953125,0.00138080
4692.78833862,0.00140594
4694.71714600,0.00140175
4696.64595337,0.00144143
4698.57476074,0.00140364
4700.50356812,0.00131728
4702.43237549,0.00135536
4704.36118286,0.00129550
4706.28999023,0.00131976
4708.21879761,0.00136256
4710.14760498,0.00134109
4712.07641235,0.00143946
4714.00521973,0.00135726
4715.93402710,0.00137020
4717.86283447,0.00136957
4719.79164185,0.00126753
4721.72044922,0.00136481
4723.64925659,0.00131073
4725.57806396,0.00130536
4727.50687134,0.00132520
4729.43567871,0.00125770
4731.36448608,0.00128360
4733.29329346,0.00125349
4735.22210083,0.00123881
4737.15090820,0.00123975
4739.07971558,0.00128749
4741.00852295,0.00131048
4742.93733032,0.00126046
4744.86613770,0.00124985
4746.79494507,0.00126956
4748.72375244,0.00126699
4750.65255981,0.00123740
4752.58136719,0.00133041
4754.51017456,0.00132864
4756.43898193,0.00122966
4758.36778931,0.00122374
4760.29659668,0.00123804
4762.22540405,0.00130346
4764.15421143,0.00128758
4766.08301880,0.00121262
4768.01182617,0.00121819
4769.94063354,0.00125834
4771.86944092,0.00121094
4773.79824829,0.00116598
4775.72705566,0.00127025
4777.65586304,0.00129457
4779.58467041,0.00121099
4781.51347778,0.00122517
4783.44228516,0.00121139
4785.37109253,0.00117695
4787.29989990,0.00121404
4789.22870728,0.00107501
4791.15751465,0.00111610
4793.08632202,0.00127819
4795.01512939,0.00116900
4796.94393677,0.00122596
4798.87274414,0.00118498
4800.80155151,0.00112735
4802.73035889,0.00124537
4804.65916626,0.00117226
4806.58797363,0.00116561
4808.51678101,0.00117187
4810.44558838,0.00116501
4812.37439575,0.00117482
4814.30320312,0.00111782
4816.23201050,0.00111862
4818.16081787,0.00111164
4820.08962524,0.00109676
4822.01843262,0.00114379
4823.94723999,0.00117441
4825.87604736,0.00113195
4827.80485474,0.00113532
4829.73366211,0.00111452
4831.66246948,0.00110846
4833.59127686,0.00111041
4835.52008423,0.00111331
4837.44889160,0.00116064
4839.37769897,0.00105722
4841.30650635,0.00106039
4843.23531372,0.00110138
4845.16412109,0.00111675
4847.09292847,0.00112599
4849.02173584,0.00103779
4850.95054321,0.00110565
4852.87935059,0.00111778
4854.80815796,0.00110168
4856.73696533,0.00107297
4858.66577270,0.00106846
4860.59458008,0.00109518
4862.52338745,0.00101867
4864.45219482,0.00110732
4866.38100220,0.00108169
4868.30980957,0.00098166
4870.23861694,0.00102316
4872.16742432,0.00108552
4874.09623169,0.00106017
4876.02503906,0.00103055
4877.95384644,0.00110321
4879.88265381,0.00098436
4881.81146118,0.00097658
4883.74026855,0.00108330
4885.66907593,0.00110124
4887.59788330,0.00105158
4889.52669067,0.00099268
4891.45549805,0.00104854
4893.38430542,0.00095985
4895.31311279,0.00105314
4897.24192017,0.00106014
4899.17072754,0.00095894
4901.09953491,0.00107414
4903.02834228,0.00092604
4904.95714966,0.00097804
4906.88595703,0.00104780
4908.81476440,0.00094160
4910.74357178,0.00102516
4912.67237915,0.00093433
4914.60118652,0.00093682
4916.52999390,0.00106035
4918.45880127,0.00098459
4920.38760864,0.00092766
4922.31641602,0.00092213
4924.24522339,0.00087484
4926.17403076,0.00094273
4928.10283813,0.00102093
4930.03164551,0.00094376
4931.96045288,0.00096265
4933.88926025,0.00096813
4935.81806763,0.00089473
4937.74687500,0.00095693
4939.67568237,0.00100519
4941.60448975,0.00097735
4943.53329712,0.00095817
4945.46210449,0.00094393
4947.39091187,0.00092786
4949.31971924,0.00091320
4951.24852661,0.00092944
4953.17733398,0.00087864
4955.10614136,0.00086923
4957.03494873,0.00100328
4958.96375610,0.00095789
4960.89256348,0.00087359
4962.82137085,0.00087433
4964.75017822,0.00085185
4966.67898560,0.00087825
4968.60779297,0.00083855
4970.53660034,0.00090984
4972.46540771,0.00096147
4974.39421509,0.00088208
4976.32302246,0.00088601
4978.25182983,0.00085945
4980.18063721,0.00090140
4982.10944458,0.00092767
4984.03825195,0.00090198
4985.96705933,0.00086330
4987.89586670,0.00082110
4989.82467407,0.00089151
4991.75348145,0.00087518
4993.68228882,0.00087084
4995.61109619,0.00089480
4997.53990356,0.00083890
4999.46871094,0.00085528
5001.39751831,0.00088629
5003.32632568,0.00081171
5005.25513306,0.00078936
5007.18394043,0.00089220
5009.11274780,0.00082743
5011.04155518,0.00077785
5012.97036255,0.00084931
5014.89916992,0.00079762
5016.82797729,0.00081331
5018.75678467,0.00087662
5020.68559204,0.00084472
5022.61439941,0.00080657
5024.54320679,0.00081093
5026.47201416,0.00081309
5028.40082153,0.00079689
5030.32962891,0.00079663
5032.25843628,0.00079987
5034.18724365,0.00079757
5036.11605103,0.00079710
5038.04485840,0.00079955
5039.97366577,0.00080259
5041.90247314,0.00085236
5043.83128052,0.00080009
5045.76008789,0.00074272
5047.68889526,0.00083082
5049.61770264,0.00078366
5051.54651001,0.00073691
5053.47531738,0.00076099
5055.40412476,0.00081700
5057.33293213,0.00088071
5059.26173950,0.00074961
5061.19054687,0.00069095
5063.11935425,0.00074150
5065.04816162,0.00077452
5066.97696899,0.00074828
5068.90577637,0.00069623
5070.83458374,0.00077169
5072.76339111,0.00071529
5074.69219849,0.00066963
5076.62100586,0.00076429
5078.54981323,0.00073093
5080.47862061,0.00072839
5082.40742798,0.00077796
5084.33623535,0.00072878
5086.26504272,0.00073283
5088.19385010,0.00078697
5090.12265747,0.00069422
5092.05146484,0.00065349
5093.98027222,0.00071399
5095.90907959,0.00075482
5097.83788696,0.00075392
5099.76669434,0.00065059
5101.69550171,0.00071345
5103.62430908,0.00067987
5105.55311645,0.00059849
5107.48192383,0.00073331
5109.41073120,0.00061865
5111.33953857,0.00062880
5113.26834595,0.00073032
5115.19715332,0.00068494
5117.12596069,0.00072224
5119.05476807,0.00063140
5120.98357544,0.00064409
5122.91238281,0.00066951
5124.84119019,0.00069385
5126.76999756,0.00074782
5128.69880493,0.00066927
5130.62761230,0.00075219
5132.55641968,0.00073901
5134.48522705,0.00067781
5136.41403442,0.00066735
5138.34284180,0.00061032
5140.27164917,0.00065269
5142.20045654,0.00063514
5144.12926392,0.00064915
5146.05807129,0.00061262
5147.98687866,0.00053946
5149.91568603,0.00059791
5151.84449341,0.00061900
5153.77330078,0.00061036
5155.70210815,0.00063817
5157.63091553,0.00067341
5159.55972290,0.00064398
5161.48853027,0.00061516
5163.41733765,0.00060894
5165.34614502,0.00068249
5167.27495239,0.00070045
5169.20375977,0.00057748
5171.13256714,0.00059413
5173.06137451,0.00060388
5174.99018188,0.00062135
5176.91898926,0.00063158
5178.84779663,0.00061772
5180.77660400,0.00066221
5182.70541138,0.00060711
5184.63421875,0.00066512
5186.56302612,0.00062392
5188.49183350,0.00056826
5190.42064087,0.00064839
5192.34944824,0.00057892
5194.27825562,0.00067659
5196.20706299,0.00068815
5198.13587036,0.00059515
5200.06467773,0.00060652
5201.99348511,0.00055705
5203.92229248,0.00068232
5205.85109985,0.00065639
5207.77990723,0.00053269
5209.70871460,0.00060913
5211.63752197,0.00062389
5213.56632935,0.00060776
5215.49513672,0.00055034
5217.42394409,0.00056808
5219.35275146,0.00059861
5221.28155884,0.00055187
5223.21036621,0.00058987
5225.13917358,0.00055542
5227.06798096,0.00051827
5228.99678833,0.00056412
5230.92559570,0.00060805
5232.85440308,0.00058554
5234.78321045,0.00055721
5236.71201782,0.00061211
5238.64082520,0.00059046
5240.56963257,0.00056383
5242.49843994,0.00053819
5244.42724731,0.00052222
5246.35605469,0.00057971
5248.28486206,0.00055410
5250.21366943,0.00051521
5252.14247681,0.00053402
5254.07128418,0.00052389
5256.00009155,0.00050225
5257.92889893,0.00058581
5259.85770630,0.00058887
5261.78651367,0.00053928
5263.71532104,0.00059364
5265.64412842,0.00050505
5267.57293579,0.00046001
5269.50174316,0.00050675
5271.43055054,0.00049137
5273.35935791,0.00049817
5275.28816528,0.00049013
5277.21697266,0.00048539
5279.14578003,0.00051544
5281.07458740,0.00053850
5283.00339478,0.00049742
5284.93220215,0.00051422
5286.86100952,0.00049258
5288.78981689,0.00051864
5290.71862427,0.00059888
5292.64743164,0.00053525
5294.57623901,0.00060284
5296.50504639,0.00052950
5298.43385376,0.00051261
5300.36266113,0.00058980
5302.29146851,0.00043748
5304.22027588,0.00052714
5306.14908325,0.00051956
5308.07789062,0.00049526
5310.00669800,0.00057131
5311.93550537,0.00047654
5313.86431274,0.00051988
5315.79312012,0.00051285
5317.72192749,0.00048740
5319.65073486,0.00049686
5321.57954224,0.00049784
5323.50834961,0.00048131
5325.43715698,0.00042656
5327.36596436,0.00049011
5329.29477173,0.00047144
5331.22357910,0.00050363
5333.15238647,0.00054353
5335.08119385,0.00043989
5337.01000122,0.00044670
5338.93880859,0.00047292
5340.86761597,0.00049656
5342.79642334,0.00050664
5344.72523071,0.00046969
5346.65403809,0.00052103
5348.58284546,0.00052243
5350.51165283,0.00045288
5352.44046020,0.00044143
5354.36926758,0.00037252
5356.29807495,0.00038293
5358.22688232,0.00049969
5360.15568970,0.00050369
5362.08449707,0.00047742
5364.01330444,0.00045210
5365.94211182,0.00041653
5367.87091919,0.00040119
5369.79972656,0.00046349
5371.72853394,0.00046767
5373.65734131,0.00038703
5375.58614868,0.00044581
5377.51495605,0.00048123
5379.44376343,0.00046041
5381.37257080,0.00043269
5383.30137817,0.00045923
5385.23018555,0.00054857
5387.15899292,0.00045496
5389.08780029,0.00037418
5391.01660767,0.00046786
5392.94541504,0.00045186
5394.87422241,0.00035873
5396.80302978,0.00045735
5398.73183716,0.00045629
5400.66064453,0.00036178
5402.58945190,0.00044370
5404.51825928,0.00046405
5406.44706665,0.00043471
5408.37587402,0.00039605
5410.30468140,0.00041276
5412.23348877,0.00041491
5414.16229614,0.00037950
5416.09110352,0.00041525
5418.01991089,0.00036512
5419.94871826,0.00039227
5421.87752563,0.00039669
5423.80633301,0.00039035
5425.73514038,0.00043774
5427.66394775,0.00042283
5429.59275513,0.00046959
5431.52156250,0.00043403
5433.45036987,0.00043514
5435.37917725,0.00041104
5437.30798462,0.00038509
5439.23679199,0.00043547
5441.16559936,0.00035661
5443.09440674,0.00039525
5445.02321411,0.00042012
5446.95202148,0.00039284
5448.88082886,0.00039531
5450.80963623,0.00040028
5452.73844360,0.00049310
5454.66725098,0.00045752
5456.59605835,0.00045132
5458.52486572,0.00044268
5460.45367310,0.00030925
5462.38248047,0.00035083
5464.31128784,0.00041449
5466.24009521,0.00040088
5468.16890259,0.00045283
5470.09770996,0.00040807
5472.02651733,0.00035399
5473.95532471,0.00035138
5475.88413208,0.00028955
5477.81293945,0.00035438
5479.74174683,0.00034782
5481.67055420,0.00029401
5483.59936157,0.00035180
5485.52816895,0.00033019
5487.45697632,0.00036941
5489.38578369,0.00033093
5491.31459106,0.00030720
5493.24339844,0.00040590
5495.17220581,0.00036808
5497.10101318,0.00036130
5499.02982056,0.00035536
5500.95862793,0.00032417
5502.88743530,0.00034404
5504.81624268,0.00036595
5506.74505005,0.00036231
5508.67385742,0.00033442
5510.60266479,0.00037900
5512.53147217,0.00039737
5514.46027954,0.00036097
5516.38908691,0.00035995
5518.31789429,0.00041660
5520.24670166,0.00041888
5522.17550903,0.00034853
5524.10431641,0.00034370
5526.03312378,0.00031096
5527.96193115,0.00030276
5529.89073853,0.00032707
5531.81954590,0.00031785
5533.74835327,0.00036355
5535.67716064,0.00037244
5537.60596802,0.00034660
5539.53477539,0.00031637
5541.46358276,0.00030417
5543.39239014,0.00035048
5545.32119751,0.00035608
5547.25000488,0.00034891
5549.17881226,0.00032058
5551.10761963,0.00031215
5553.03642700,0.00037778
5554.96523437,0.00036207
5556.89404175,0.00035287
5558.82284912,0.00033989
5560.75165649,0.00029871
5562.68046387,0.00033139
5564.60927124,0.00026062
5566.53807861,0.00027362
5568.46688599,0.00030608
5570.39569336,0.00026077
5572.32450073,0.00039215
5574.25330811,0.00030977
5576.18211548,0.00026769
5578.11092285,0.00040529
5580.03973022,0.00029257
5581.96853760,0.00029507
5583.89734497,0.00036575
5585.82615234,0.00035057
5587.75495972,0.00033186
5589.68376709,0.00029989
5591.61257446,0.00031051
5593.54138184,0.00028517
5595.47018921,0.00032266
5597.39899658,0.00035109
5599.32780395,0.00032923
5601.25661133,0.00032708
5603.18541870,0.00034430
5605.11422607,0.00034240
5607.04303345,0.00026943
5608.97184082,0.00031659
5610.90064819,0.00036509
5612.82945557,0.00029599
5614.75826294,0.00024319
5616.68707031,0.00029307
5618.61587769,0.00034314
5620.54468506,0.00029241
5622.47349243,0.00027911
5624.40229980,0.00024689
5626.33110718,0.00030949
5628.25991455,0.00035736
5630.18872192,0.00027493
5632.11752930,0.00028886
5634.04633667,0.00031592
5635.97514404,0.00036370
5637.90395142,0.00028981
5639.83275879,0.00022300
5641.76156616,0.00030757
5643.69037353,0.00028593
5645.61918091,0.00027169
5647.54798828,0.00027747
5649.47679565,0.00028063
5651.40560303,0.00028599
5653.33441040,0.00024626
5655.26321777,0.00023426
5657.19202515,0.00031152
5659.12083252,0.00032201
5661.04963989,0.00025234
5662.97844727,0.00032725
5664.90725464,0.00028762
5666.83606201,0.00025756
5668.76486938,0.00031777
5670.69367676,0.00023970
5672.62248413,0.00027223
5674.55129150,0.00027663
5676.48009888,0.00024247
5678.40890625,0.00029779
5680.33771362,0.00030287
5682.26652100,0.00028503
5684.19532837,0.00026803
5686.12413574,0.00025315
5688.05294311,0.00027957
5689.98175049,0.00032637
5691.91055786,0.00028888
5693.83936523,0.00028377
5695.76817261,0.00030199
5697.69697998,0.00026567
5699.62578735,0.00022332
5701.55459473,0.00022176
5703.48340210,0.00023145
5705.41220947,0.00015402
5707.34101685,0.00022429
5709.26982422,0.00024695
5711.19863159,0.00022050
5713.12743896,0.00028558
5715.05624634,0.00021511
5716.98505371,0.00027473
5718.91386108,0.00027385
5720.84266846,0.00025527
5722.77147583,0.00031575
5724.70028320,0.00022607
5726.62909058,0.00028371
5728.55789795,0.00029833
5730.48670532,0.00020960
5732.41551270,0.00023303
5734.34432007,0.00028976
5736.27312744,0.00025918
5738.20193481,0.00020015
5740.13074219,0.00023174
5742.05954956,0.00021298
5743.98835693,0.00022760
5745.91716431,0.00025394
5747.84597168,0.00022218
5749.77477905,0.00020128
5751.70358643,0.00023160
5753.63239380,0.00023289
5755.56120117,0.00016946
5757.49000854,0.00028724
5759.41881592,0.00028578
5761.34762329,0.00018076
5763.27643066,0.00025375
5765.20523804,0.00024771
5767.13404541,0.00023160
5769.06285278,0.00019326
5770.99166016,0.00016117
5772.92046753,0.00026430
5774.84927490,0.00026353
5776.77808228,0.00020361
5778.70688965,0.00024179
5780.63569702,0.00024457
5782.56450439,0.00024754
5784.49331177,0.00024931
5786.42211914,0.00018420
5788.35092651,0.00021707
5790.27973389,0.00022720
5792.20854126,0.00018734
5794.13734863,0.00018406
5796.06615601,0.00016478
5797.99496338,0.00026965
5799.92377075,0.00029409
5801.85257812,0.00019183
5803.78138550,0.00023411
5805.71019287,0.00022678
5807.63900024,0.00017787
5809.56780762,0.00023606
5811.49661499,0.00020624
5813.42542236,0.00023658
5815.35422974,0.00031739
5817.28303711,0.00018782
5819.21184448,0.00011858
5821.14065186,0.00019497
5823.06945923,0.00024005
5824.99826660,0.00019635
5826.92707397,0.00020005
5828.85588135,0.00023696
5830.78468872,0.00014950
5832.71349609,0.00022682
5834.64230347,0.00030353
5836.57111084,0.00018697
5838.49991821,0.00018148
5840.42872559,0.00023180
5842.35753296,0.00019321
5844.28634033,0.00019288
5846.21514770,0.00029112
5848.14395508,0.00025964
5850.07276245,0.00021195
5852.00156982,0.00020353
5853.93037720,0.00016277
5855.85918457,0.00019062
5857.78799194,0.00014099
5859.71679932,0.00014773
5861.64560669,0.00019536
5863.57441406,0.00021738
5865.50322144,0.00026800
5867.43202881,0.00023598
5869.36083618,0.00023829
5871.28964355,0.00016720
5873.21845093,0.00011239
5875.14725830,0.00021415
5877.07606567,0.00022842
5879.00487305,0.00020549
5880.93368042,0.00021646
5882.86248779,0.00019309
5884.79129517,0.00016106
5886.72010254,0.00014964
5888.64890991,0.00016015
5890.57771728,0.00015562
5892.50652466,0.00011904
5894.43533203,0.00014689
5896.36413940,0.00017977
5898.29294678,0.00017125
5900.22175415,0.00018447
5902.15056152,0.00016466
5904.07936890,0.00017159
5906.00817627,0.00018355
5907.93698364,0.00021494
5909.86579102,0.00019673
5911.79459839,0.00008259
5913.72340576,0.00014023
5915.65221313,0.00018714
5917.58102051,0.00013149
5919.50982788,0.00016854
5921.43863525,0.00017555
5923.36744263,0.00016088
5925.29625000,0.00018648
5927.22505737,0.00016414
5929.15386475,0.00014522
5931.08267212,0.00018008
5933.01147949,0.00021091
5934.94028686,0.00022272
5936.86909424,0.00018374
5938.79790161,0.00014489
5940.72670898,0.00013245
5942.65551636,0.00015257
5944.58432373,0.00019222
5946.51313110,0.00013283
5948.44193848,0.00012214
5950.37074585,0.00015532
5952.29955322,0.00010173
5954.22836060,0.00011032
5956.15716797,0.00017141
5958.08597534,0.00015648
5960.01478271,0.00013764
5961.94359009,0.00019316
5963.87239746,0.00018505
5965.80120483,0.00016800
5967.73001221,0.00020397
5969.65881958,0.00016689
5971.58762695,0.00012970
5973.51643433,0.00013470
5975.44524170,0.00015613
5977.37404907,0.00015465
5979.30285645,0.00015964
5981.23166382,0.00020655
5983.16047119,0.00019844
5985.08927856,0.00018148
5987.01808594,0.00016118
5988.94689331,0.00014372
5990.87570068,0.00021080
5992.80450806,0.00015553
5994.73331543,0.00004727
5996.66212280,0.00013467
5998.59093018,0.00014152
6000.51973755,0.00014577
