399.26312622,0.00046634
401.19193359,0.00062114
403.12074097,0.00057943
405.04954834,0.00084467
406.97835571,0.00088951
408.90716309,0.00071198
410.83597046,0.00089543
412.76477783,0.00050851
414.69358521,0.00028977
416.62239258,0.00042755
418.55119995,0.00042519
420.48000732,0.00045789
422.40881470,0.00040232
424.33762207,0.00069464
426.26642944,0.00076903
428.19523682,0.00082939
430.12404419,0.00101014
432.05285156,0.00110704
433.98165894,0.00058231
435.91046631,0.00012323
437.83927368,0.00089798
439.76808105,0.00046488
441.69688843,0.00001060
443.62569580,0.00072978
445.55450317,0.00097282
447.48331055,0.00048730
449.41211792,-0.00011222
451.34092529,0.00053831
453.26973267,0.00060683
455.19854004,0.00053937
457.12734741,0.00076102
459.05615479,0.00057179
460.98496216,0.00102776
462.91376953,0.00056628
464.84257690,0.00047979
466.77138428,0.00055620
468.70019165,0.00034073
470.62899902,0.00072726
472.55780640,0.00019181
474.48661377,0.00029893
476.41542114,0.00036958
478.34422852,-0.00000468
480.27303589,0.00031780
482.20184326,0.00021076
484.13065063,0.00020120
486.05945801,0.00022144
487.98826538,0.00005625
489.91707275,-0.00000499
491.84588013,0.00021833
493.77468750,0.00023213
495.70349487,0.00000452
497.63230225,0.00013033
499.56110962,0.00007998
501.48991699,0.00034404
503.41872437,0.00040354
505.34753174,0.00015641
507.27633911,0.00019986
509.20514648,0.00018684
511.13395386,0.00038837
513.06276123,0.00024936
514.99156860,0.00008035
516.92037598,0.00017818
518.84918335,-0.00011245
520.77799072,0.00018202
522.70679810,0.00044194
524.63560547,0.00033681
526.56441284,0.00036200
528.49322021,0.00008993
530.42202759,0.00014090
532.35083496,-0.00010613
534.27964233,-0.00001043
536.20844971,0.00008799
538.13725708,0.00022647
540.06606445,0.00025467
541.99487183,-0.00002910
543.92367920,0.00033676
545.85248657,0.00022425
547.78129395,-0.00003517
549.71010132,0.00049169
551.63890869,0.00068474
553.56771606,-0.00007066
555.49652344,-0.00019516
557.42533081,-0.00010223
559.35413818,0.00000233
561.28294556,0.00041248
563.21175293,0.00026609
565.14056030,0.00014517
567.06936768,-0.00010195
568.99817505,0.00014476
570.92698242,0.00034668
572.85578979,0.00011083
574.78459717,0.00031237
576.71340454,0.00013027
578.64221191,-0.00001415
580.57101929,0.00012108
582.49982666,0.00040125
584.42863403,0.00015163
586.35744141,-0.00003865
588.28624878,0.00038186
590.21505615,0.00025109
592.14386353,0.00038752
594.07267090,0.00012180
596.00147827,-0.00004633
597.93028564,0.00031607
599.85909302,0.00018684
601.78790039,0.00021853
603.71670776,-0.00007478
605.64551514,0.00030635
607.57432251,0.00038360
609.50312988,0.00002194
611.43193726,0.00059274
613.36074463,0.00007910
615.28955200,-0.00011104
617.21835938,-0.00006576
619.14716675,-0.00042719
621.07597412,0.00016068
623.00478149,0.00019690
624.93358887,0.00001176
626.86239624,0.00029665
628.79120361,0.00013019
630.72001099,0.00033938
632.64881836,0.00067721
634.57762573,0.00040469
636.50643311,0.00065045
638.43524048,0.00080226
640.36404785,0.00071064
642.29285522,0.00082297
644.22166260,0.00063194
646.15046997,0.00074336
648.07927734,0.00080282
650.00808472,0.00080920
651.93689209,0.00095302
653.86569946,0.00089619
655.79450684,0.00126117
657.72331421,0.00137650
659.65212158,0.00104788
661.58092896,0.00108536
663.50973633,0.00113904
665.43854370,0.00109362
667.36735107,0.00116169
669.29615845,0.00131620
671.22496582,0.00135805
673.15377319,0.00140211
675.08258057,0.00145050
677.01138794,0.00140480
678.94019531,0.00151934
680.86900269,0.00144376
682.79781006,0.00145067
684.72661743,0.00152717
686.65542480,0.00139831
688.58423218,0.00152959
690.51303955,0.00135947
692.44184692,0.00136997
694.37065430,0.00173786
696.29946167,0.00182882
698.22826904,0.00204925
700.15707642,0.00206947
702.08588379,0.00212260
704.01469116,0.00195651
705.94349854,0.00162919
707.87230591,0.00180382
709.80111328,0.00137091
711.72992065,0.00093913
713.65872803,0.00072433
715.58753540,0.00001274
717.51634277,-0.00006998
719.44515015,0.00010758
721.37395752,0.00010188
723.30276489,0.00033379
725.23157227,0.00034974
727.16037964,0.00038330
729.08918701,0.00037542
731.01799438,0.00024128
732.94680176,0.00017555
734.87560913,-0.00000126
736.80441650,0.00020206
738.73322388,0.00022475
740.66203125,0.00012483
742.59083862,0.00035621
744.51964600,0.00016778
746.44845337,0.00007739
748.37726074,0.00010295
750.30606812,0.00038288
752.23487549,0.00048533
754.16368286,0.00029268
756.09249023,0.00052660
758.02129761,0.00035637
759.95010498,0.00046129
761.87891235,0.00036401
763.80771973,-0.00001878
765.73652710,0.00050162
767.66533447,0.00058237
769.59414185,0.00032285
771.52294922,0.00031382
773.45175659,0.00036026
775.38056396,0.00052707
777.30937134,0.00040650
779.23817871,0.00011596
781.16698608,0.00017681
783.09579346,0.00023355
785.02460083,0.00013558
786.95340820,0.00043773
788.88221558,0.00054844
790.81102295,0.00036807
792.73983032,0.00051850
794.66863770,0.00053669
796.59744507,0.00021887
798.52625244,0.00024210
800.45505981,0.00052605
802.38386719,0.00044171
804.31267456,0.00041839
806.24148193,0.00056596
808.17028931,0.00035501
810.09909668,0.00014396
812.02790405,0.00035452
813.95671143,0.00032900
815.88551880,0.00012593
817.81432617,0.00014641
819.74313354,0.00006958
821.67194092,0.00023428
823.60074829,0.00056691
825.52955566,0.00078011
827.45836304,0.00050738
829.38717041,0.00014645
831.31597778,0.00044512
833.24478516,0.00054296
835.17359253,0.00061527
837.10239990,0.00070773
839.03120728,0.00055096
840.96001465,0.00047973
842.88882202,0.00045752
844.81762939,0.00064601
846.74643677,0.00049196
848.67524414,0.00046979
850.60405151,0.00076594
852.53285889,0.00057443
854.46166626,0.00047140
856.39047363,0.00039162
858.31928101,0.00012572
860.24808838,0.00040194
862.17689575,0.00068805
864.10570313,0.00036061
866.03451050,0.00034638
867.96331787,0.00044522
869.89212524,0.00046209
871.82093262,0.00051358
873.74973999,0.00021550
875.67854736,0.00037856
877.60735474,0.00029767
879.53616211,0.00010993
881.46496948,0.00045128
883.39377686,0.00033860
885.32258423,0.00048157
887.25139160,0.00049845
889.18019897,0.00023808
891.10900635,0.00030083
893.03781372,0.00022887
894.96662109,0.00032592
896.89542847,0.00045373
898.82423584,0.00055024
900.75304321,0.00054587
902.68185059,0.00031883
904.61065796,0.00020765
906.53946533,0.00029599
908.46827271,0.00040899
910.39708008,0.00034929
912.32588745,0.00046496
914.25469482,0.00053595
916.18350220,0.00048810
918.11230957,0.00056406
920.04111694,0.00057158
921.96992432,0.00052700
923.89873169,0.00069186
925.82753906,0.00074789
927.75634644,0.00060913
929.68515381,0.00087988
931.61396118,0.00088567
933.54276855,0.00071851
935.47157593,0.00075202
937.40038330,0.00088319
939.32919067,0.00105539
941.25799805,0.00086167
943.18680542,0.00105426
945.11561279,0.00108350
947.04442017,0.00098011
948.97322754,0.00115986
950.90203491,0.00102215
952.83084229,0.00112552
954.75964966,0.00096966
956.68845703,0.00085818
958.61726440,0.00103993
960.54607178,0.00101509
962.47487915,0.00109323
964.40368652,0.00099658
966.33249390,0.00106184
968.26130127,0.00109541
970.19010864,0.00092780
972.11891602,0.00112644
974.04772339,0.00146944
975.97653076,0.00144479
977.90533813,0.00120551
979.83414551,0.00137664
981.76295288,0.00162073
983.69176025,0.00166355
985.62056763,0.00177717
987.54937500,0.00195870
989.47818237,0.00204815
991.40698975,0.00227475
993.33579712,0.00264253
995.26460449,0.00271652
997.19341187,0.00291999
999.12221924,0.00305967
1001.05102661,0.00306233
1002.97983398,0.00350202
1004.90864136,0.00370495
1006.83744873,0.00370258
1008.76625610,0.00415488
1010.69506348,0.00443588
1012.62387085,0.00443991
1014.55267822,0.00482521
1016.48148560,0.00505672
1018.41029297,0.00512294
1020.33910034,0.00557702
1022.26790771,0.00574682
1024.19671509,0.00579085
1026.12552246,0.00615637
1028.05432983,0.00636734
1029.98313721,0.00646131
1031.91194458,0.00668845
1033.84075195,0.00692578
1035.76955933,0.00696587
1037.69836670,0.00691123
1039.62717407,0.00698245
1041.55598145,0.00699144
1043.48478882,0.00685335
1045.41359619,0.00688106
1047.34240356,0.00688593
1049.27121094,0.00669469
1051.20001831,0.00673207
1053.12882568,0.00673900
1055.05763306,0.00641644
1056.98644043,0.00609501
1058.91524780,0.00591249
1060.84405518,0.00581385
1062.77286255,0.00556741
1064.70166992,0.00536608
1066.63047729,0.00542205
1068.55928467,0.00526306
1070.48809204,0.00488920
1072.41689941,0.00467602
1074.34570679,0.00468254
1076.27451416,0.00447387
1078.20332153,0.00401493
1080.13212891,0.00401815
1082.06093628,0.00400125
1083.98974365,0.00378725
1085.91855103,0.00366724
1087.84735840,0.00313073
1089.77616577,0.00303916
1091.70497314,0.00325204
1093.63378052,0.00298204
1095.56258789,0.00294642
1097.49139526,0.00289708
1099.42020264,0.00290070
1101.34901001,0.00297829
1103.27781738,0.00285756
1105.20662476,0.00269986
1107.13543213,0.00237945
1109.06423950,0.00260883
1110.99304687,0.00273014
1112.92185425,0.00241846
1114.85066162,0.00265752
1116.77946899,0.00269182
1118.70827637,0.00259894
1120.63708374,0.00266130
1122.56589111,0.00260981
1124.49469849,0.00271503
1126.42350586,0.00268418
1128.35231323,0.00262005
1130.28112061,0.00270834
1132.20992798,0.00286296
1134.13873535,0.00293246
1136.06754272,0.00302509
1137.99635010,0.00318089
1139.92515747,0.00312225
1141.85396484,0.00347939
1143.78277222,0.00366582
1145.71157959,0.00357425
1147.64038696,0.00412559
1149.56919434,0.00432857
1151.49800171,0.00444252
1153.42680908,0.00472736
1155.35561646,0.00475774
1157.28442383,0.00498411
1159.21323120,0.00507849
1161.14203857,0.00524984
1163.07084595,0.00550025
1164.99965332,0.00569300
1166.92846069,0.00588692
1168.85726807,0.00607962
1170.78607544,0.00655027
1172.71488281,0.00655420
1174.64369019,0.00658224
1176.57249756,0.00702870
1178.50130493,0.00723584
1180.43011230,0.00769757
1182.35891968,0.00812679
1184.28772705,0.00827765
1186.21653442,0.00853400
1188.14534180,0.00884086
1190.07414917,0.00921494
1192.00295654,0.00974661
1193.93176392,0.01029029
1195.86057129,0.01065829
1197.78937866,0.01109002
1199.71818604,0.01163246
1201.64699341,0.01207899
1203.57580078,0.01225671
1205.50460815,0.01265842
1207.43341553,0.01331932
1209.36222290,0.01375334
1211.29103027,0.01434571
1213.21983765,0.01459225
1215.14864502,0.01469886
1217.07745239,0.01507419
1219.00625977,0.01535044
1220.93506714,0.01589653
1222.86387451,0.01599023
1224.79268188,0.01594166
1226.72148926,0.01624077
1228.65029663,0.01608155
1230.57910400,0.01591364
1232.50791138,0.01604131
1234.43671875,0.01623665
1236.36552612,0.01616663
1238.29433350,0.01591417
1240.22314087,0.01584060
1242.15194824,0.01580196
1244.08075562,0.01581682
1246.00956299,0.01582721
1247.93837036,0.01567542
1249.86717773,0.01556520
1251.79598511,0.01564858
1253.72479248,0.01544959
1255.65359985,0.01522915
1257.58240723,0.01505478
1259.51121460,0.01461809
1261.44002197,0.01457307
1263.36882935,0.01438992
1265.29763672,0.01398739
1267.22644409,0.01391232
1269.15525146,0.01371107
1271.08405884,0.01345260
1273.01286621,0.01325475
1274.94167358,0.01306185
1276.87048096,0.01284457
1278.79928833,0.01261048
1280.72809570,0.01242563
1282.65690308,0.01229787
1284.58571045,0.01198883
1286.51451782,0.01163336
1288.44332520,0.01156391
1290.37213257,0.01142620
1292.30093994,0.01123664
1294.22974731,0.01103985
1296.15855469,0.01106020
1298.08736206,0.01117224
1300.01616943,0.01117182
1301.94497681,0.01123291
1303.87378418,0.01112706
1305.80259155,0.01136448
1307.73139893,0.01155127
1309.66020630,0.01165614
1311.58901367,0.01183715
1313.51782104,0.01190367
1315.44662842,0.01242718
1317.37543579,0.01252212
1319.30424316,0.01289820
1321.23305054,0.01346791
1323.16185791,0.01357690
1325.09066528,0.01426765
1327.01947266,0.01438656
1328.94828003,0.01448488
1330.87708740,0.01519009
1332.80589478,0.01553495
1334.73470215,0.01557670
1336.66350952,0.01561516
1338.59231689,0.01575616
1340.52112427,0.01590222
1342.44993164,0.01665559
1344.37873901,0.01686607
1346.30754639,0.01652183
1348.23635376,0.01649402
1350.16516113,0.01635902
1352.09396851,0.01652099
1354.02277588,0.01605344
1355.95158325,0.01580914
1357.88039062,0.01612803
1359.80919800,0.01564365
1361.73800537,0.01481543
1363.66681274,0.01479366
1365.59562012,0.01551390
1367.52442749,0.01499337
1369.45323486,0.01496063
1371.38204224,0.01515258
1373.31084961,0.01420562
1375.23965698,0.01455857
1377.16846436,0.01493662
1379.09727173,0.01485114
1381.02607910,0.01473567
1382.95488647,0.01479003
1384.88369385,0.01480500
1386.81250122,0.01385378
1388.74130859,0.01429013
1390.67011597,0.01562380
1392.59892334,0.01504903
1394.52773071,0.01398810
1396.45653809,0.01485904
1398.38534546,0.01475030
1400.31415283,0.01464571
1402.24296021,0.01597944
1404.17176758,0.01493794
1406.10057495,0.01513237
1408.02938232,0.01563668
1409.95818970,0.01518448
1411.88699707,0.01556672
1413.81580444,0.01485748
1415.74461182,0.01532337
1417.67341919,0.01344131
1419.60222656,0.01200887
1421.53103394,0.01416385
1423.45984131,0.01358481
1425.38864868,0.01322123
1427.31745605,0.01338918
1429.24626343,0.01242036
1431.17507080,0.01216225
1433.10387817,0.01229291
1435.03268555,0.01086840
1436.96149292,0.00935730
1438.89030029,0.01115662
1440.81910767,0.01136699
1442.74791504,0.01049030
1444.67672241,0.01085455
1446.60552979,0.01010210
1448.53433716,0.01032135
1450.46314453,0.01058586
1452.39195190,0.01080598
1454.32075928,0.01083329
1456.24956665,0.00879042
1458.17837402,0.00919691
1460.10718140,0.01248015
1462.03598877,0.01339978
1463.96479614,0.01301312
1465.89360352,0.01361682
1467.82241089,0.01556663
1469.75121826,0.01639456
1471.68002563,0.01434741
1473.60883301,0.01523749
1475.53764038,0.01756950
1477.46644775,0.01899218
1479.39525513,0.02070046
1481.32406250,0.02083213
1483.25286987,0.02231794
1485.18167725,0.02283712
1487.11048462,0.02219220
1489.03929199,0.02191728
1490.96809937,0.02216174
1492.89690674,0.02609514
1494.82571411,0.02492839
1496.75452148,0.02219943
1498.68332886,0.02552663
1500.61213623,0.02632408
1502.54094360,0.02844748
1504.46975098,0.02616938
1506.39855835,0.01819329
1508.32736572,0.02327028
1510.25617310,0.02752610
1512.18498047,0.02670956
1514.11378784,0.02899547
1516.04259521,0.02553205
1517.97140259,0.02709930
1519.90020996,0.02568087
1521.82901733,0.02187414
1523.75782471,0.02787350
1525.68663208,0.02690305
1527.61543945,0.02689588
1529.54424683,0.03035688
1531.47305420,0.02891319
1533.40186157,0.02606982
1535.33066895,0.02809663
1537.25947632,0.03009721
1539.18828369,0.02032844
1541.11709106,0.02175553
1543.04589844,0.02637628
1544.97470581,0.02534798
1546.90351318,0.03102437
1548.83232056,0.02840382
1550.76112793,0.02940493
1552.68993530,0.02899179
1554.61874268,0.02610801
1556.54755005,0.02805271
1558.47635742,0.01841075
1560.40516479,0.02101779
1562.33397217,0.03124656
1564.26277954,0.02887810
1566.19158691,0.02993912
1568.12039429,0.02936380
1570.04920166,0.02562366
1571.97800903,0.03047160
1573.90681641,0.03050049
1575.83562378,0.02346797
1577.76443115,0.02757541
1579.69323853,0.03113788
1581.62204590,0.02936858
1583.55085327,0.03052763
1585.47966064,0.02985561
1587.40846802,0.03015491
1589.33727539,0.02989209
1591.26608276,0.02970255
1593.19489014,0.02996641
1595.12369751,0.02955474
1597.05250488,0.02998695
1598.98131226,0.02967638
1600.91011963,0.02976558
1602.83892700,0.02937800
1604.76773437,0.02982462
1606.69654175,0.02934239
1608.62534912,0.02926154
1610.55415649,0.02920955
1612.48296387,0.02953037
1614.41177124,0.02962683
1616.34057861,0.02365085
1618.26938599,0.02632956
1620.19819336,0.03098305
1622.12700073,0.02678806
1624.05580811,0.02698903
1625.98461548,0.02857304
1627.91342285,0.02816924
1629.84223022,0.02832262
1631.77103760,0.03049850
1633.69984497,0.02732096
1635.62865234,0.02222104
1637.55745972,0.02655279
1639.48626709,0.02923198
1641.41507446,0.02869730
1643.34388184,0.02956318
1645.27268921,0.02583409
1647.20149658,0.02248220
1649.13030396,0.02905433
1651.05911133,0.02676971
1652.98791870,0.01617941
1654.91672607,0.02368331
1656.84553345,0.03008538
1658.77434082,0.02876490
1660.70314819,0.02956491
1662.63195557,0.02631739
1664.56076294,0.02834759
1666.48957031,0.03056365
1668.41837769,0.02589809
1670.34718506,0.02534416
1672.27599243,0.02910784
1674.20479980,0.02632155
1676.13360718,0.02561077
1678.06241455,0.02990740
1679.99122192,0.02838378
1681.92002930,0.02792456
1683.84883667,0.02177569
1685.77764404,0.02225742
1687.70645142,0.03133746
1689.63525879,0.02635958
1691.56406616,0.03009509
1693.49287354,0.03005349
1695.42168091,0.02110557
1697.35048828,0.02695952
1699.27929565,0.02249474
1701.20810303,0.02062960
1703.13691040,0.02942799
1705.06571777,0.02628133
1706.99452515,0.02677472
1708.92333252,0.02926257
1710.85213989,0.02803650
1712.78094727,0.02861662
1714.70975464,0.02600635
1716.63856201,0.02302408
1718.56736938,0.02297084
1720.49617676,0.02792247
1722.42498413,0.02886099
1724.35379150,0.02674349
1726.28259888,0.02932776
1728.21140625,0.02647906
1730.14021362,0.02704003
1732.06902100,0.02598880
1733.99782837,0.01899760
1735.92663574,0.02505255
1737.85544312,0.02736742
1739.78425049,0.02398093
1741.71305786,0.02672005
1743.64186523,0.02679204
1745.57067261,0.02688060
1747.49947998,0.02702746
1749.42828735,0.02560719
1751.35709473,0.02444363
1753.28590210,0.02760178
1755.21470947,0.02870413
1757.14351685,0.02589484
1759.07232422,0.02899167
1761.00113159,0.02647750
1762.92993896,0.02589617
1764.85874634,0.03014377
1766.78755371,0.02640122
1768.71636108,0.02710026
1770.64516846,0.02663425
1772.57397583,0.02359243
1774.50278320,0.02683320
1776.43159058,0.02841988
1778.36039795,0.02803712
1780.28920532,0.02741714
1782.21801270,0.02774277
1784.14682007,0.02769135
1786.07562744,0.02713901
1788.00443481,0.02893495
1789.93324219,0.02777084
1791.86204956,0.02466691
1793.79085693,0.02613644
1795.71966431,0.02839633
1797.64847168,0.02778331
1799.57727905,0.02702308
1801.50608643,0.02671961
1803.43489380,0.02774976
1805.36370117,0.02826321
1807.29250854,0.02800537
1809.22131592,0.02792364
1811.15012329,0.02713438
1813.07893066,0.02825261
1815.00773804,0.02805463
1816.93654541,0.02767049
1818.86535278,0.02794937
1820.79416016,0.02784196
1822.72296753,0.02827607
1824.65177490,0.02612773
1826.58058228,0.02729749
1828.50938965,0.02715092
1830.43819702,0.02538307
1832.36700439,0.02809016
1834.29581177,0.02772757
1836.22461914,0.02766124
1838.15342651,0.02752821
1840.08223389,0.02783882
1842.01104126,0.02754587
1843.93984863,0.02398501
1845.86865601,0.02619715
1847.79746338,0.02752699
1849.72627075,0.02692865
1851.65507812,0.02803650
1853.58388550,0.02725964
1855.51269287,0.02755471
1857.44150024,0.02722882
1859.37030762,0.02701637
1861.29911499,0.02722684
1863.22792236,0.02694121
1865.15672974,0.02732599
1867.08553711,0.02609384
1869.01434448,0.02486309
1870.94315186,0.02611500
1872.87195923,0.02719937
1874.80076660,0.02674468
1876.72957397,0.02705997
1878.65838135,0.02675867
1880.58718872,0.02655779
1882.51599609,0.02683953
1884.44480347,0.02613479
1886.37361084,0.02675373
1888.30241821,0.02593812
1890.23122559,0.02539410
1892.16003296,0.02657700
1894.08884033,0.02586100
1896.01764771,0.02592055
1897.94645508,0.02617208
1899.87526245,0.02598850
1901.80406982,0.02615480
1903.73287720,0.02592886
1905.66168457,0.02609274
1907.59049194,0.02560872
1909.51929932,0.02550378
1911.44810669,0.02560303
1913.37691406,0.02563230
1915.30572144,0.02599112
1917.23452881,0.02451490
1919.16333618,0.02468374
1921.09214355,0.02571698
1923.02095093,0.02473095
1924.94975830,0.02534846
1926.87856567,0.02550530
1928.80737305,0.02515534
1930.73618042,0.02565775
1932.66498779,0.02538942
1934.59379517,0.02546531
1936.52260254,0.02523568
1938.45140991,0.02548497
1940.38021729,0.02523280
1942.30902466,0.02429593
1944.23783203,0.02490500
1946.16663940,0.02506481
1948.09544678,0.02508902
1950.02425415,0.02518864
1951.95306152,0.02501024
1953.88186890,0.02497055
1955.81067627,0.02476332
1957.73948364,0.02493465
1959.66829102,0.02486559
1961.59709839,0.02483267
1963.52590576,0.02490728
1965.45471313,0.02463395
1967.38352051,0.02446106
1969.31232788,0.02474926
1971.24113525,0.02484535
1973.16994263,0.02461652
1975.09875000,0.02478601
1977.02755737,0.02458551
1978.95636475,0.02456218
1980.88517212,0.02451736
1982.81397949,0.02431106
1984.74278687,0.02437581
1986.67159424,0.02415449
1988.60040161,0.02440579
1990.52920898,0.02397385
1992.45801636,0.02355859
1994.38682373,0.02413558
1996.31563110,0.02407694
1998.24443848,0.02397367
2000.17324585,0.02390242
2002.10205322,0.02372891
2004.03086060,0.02376692
2005.95966797,0.02370623
2007.88847534,0.02363520
2009.81728271,0.02363491
2011.74609009,0.02360439
2013.67489746,0.02362037
2015.60370483,0.02334432
2017.53251221,0.02294610
2019.46131958,0.02315830
2021.39012695,0.02316424
2023.31893433,0.02321313
2025.24774170,0.02325569
2027.17654907,0.02292916
2029.10535645,0.02304168
2031.03416382,0.02299261
2032.96297119,0.02287354
2034.89177856,0.02273772
2036.82058594,0.02274012
2038.74939331,0.02275628
2040.67820068,0.02248624
2042.60700806,0.02256860
2044.53581543,0.02241953
2046.46462280,0.02249248
2048.39343018,0.02247453
2050.32223755,0.02217638
2052.25104492,0.02238345
2054.17985229,0.02223785
2056.10865967,0.02216002
2058.03746704,0.02218672
2059.96627441,0.02205151
2061.89508179,0.02207305
2063.82388916,0.02195813
2065.75269653,0.02190661
2067.68150391,0.02186444
2069.61031128,0.02173876
2071.53911865,0.02166667
2073.46792603,0.02170945
2075.39673340,0.02166001
2077.32554077,0.02151960
2079.25434814,0.02157190
2081.18315552,0.02159613
2083.11196289,0.02152791
2085.04077026,0.02142818
2086.96957764,0.02130856
2088.89838501,0.02124968
2090.82719238,0.02124328
2092.75599976,0.02123188
2094.68480713,0.02119463
2096.61361450,0.02108432
2098.54242187,0.02092079
2100.47122925,0.02095577
2102.40003662,0.02098649
2104.32884399,0.02080086
2106.25765137,0.02084469
2108.18645874,0.02089630
2110.11526611,0.02064788
2112.04407349,0.02062512
2113.97288086,0.02064618
2115.90168823,0.02059484
2117.83049561,0.02057097
2119.75930298,0.02046845
2121.68811035,0.02053417
2123.61691772,0.02044093
2125.54572510,0.02044166
2127.47453247,0.02051482
2129.40333984,0.02031297
2131.33214722,0.02027768
2133.26095459,0.02010469
2135.18976196,0.02018197
2137.11856934,0.02041066
2139.04737671,0.02015247
2140.97618408,0.02003422
2142.90499146,0.02001966
2144.83379883,0.02003080
2146.76260620,0.02008521
2148.69141357,0.02000045
2150.62022095,0.01991512
2152.54902832,0.01986990
2154.47783569,0.01989507
2156.40664307,0.01987836
2158.33545044,0.01980611
2160.26425781,0.01969660
2162.19306519,0.01973282
2164.12187256,0.01982968
2166.05067993,0.01970681
2167.97948730,0.01968760
2169.90829468,0.01967091
2171.83710205,0.01962211
2173.76590942,0.01958701
2175.69471680,0.01942638
2177.62352417,0.01947483
2179.55233154,0.01949273
2181.48113892,0.01947727
2183.40994629,0.01949066
2185.33875366,0.01934896
2187.26756104,0.01940349
2189.19636841,0.01929671
2191.12517578,0.01917908
2193.05398315,0.01927588
2194.98279053,0.01915774
2196.91159790,0.01915410
2198.84040527,0.01920711
2200.76921265,0.01913705
2202.69802002,0.01909877
2204.62682739,0.01913814
2206.55563477,0.01899622
2208.48444214,0.01881247
2210.41324951,0.01895986
2212.34205688,0.01888566
2214.27086426,0.01879814
2216.19967163,0.01880611
2218.12847900,0.01870237
2220.05728638,0.01874637
2221.98609375,0.01862961
2223.91490112,0.01857096
2225.84370850,0.01859945
2227.77251587,0.01857913
2229.70132324,0.01854576
2231.63013062,0.01845665
2233.55893799,0.01859816
2235.48774536,0.01849700
2237.41655273,0.01824104
2239.34536011,0.01827329
2241.27416748,0.01828315
2243.20297485,0.01832033
2245.13178223,0.01823100
2247.06058960,0.01809499
2248.98939697,0.01818036
2250.91820435,0.01817744
2252.84701172,0.01809600
2254.77581909,0.01791962
2256.70462646,0.01790907
2258.63343384,0.01807073
2260.56224121,0.01788129
2262.49104858,0.01791451
2264.41985596,0.01798213
2266.34866333,0.01781899
2268.27747070,0.01782640
2270.20627808,0.01770964
2272.13508545,0.01777381
2274.06389282,0.01770118
2275.99270020,0.01755654
2277.92150757,0.01770300
2279.85031494,0.01758246
2281.77912231,0.01758628
2283.70792969,0.01755822
2285.63673706,0.01743471
2287.56554443,0.01750157
2289.49435181,0.01742552
2291.42315918,0.01733618
2293.35196655,0.01727190
2295.28077393,0.01719514
2297.20958130,0.01712769
2299.13838867,0.01712846
2301.06719604,0.01713832
2302.99600342,0.01705306
2304.92481079,0.01684335
2306.85361816,0.01666491
2308.78242554,0.01663309
2310.71123291,0.01646899
2312.64004028,0.01627513
2314.56884766,0.01605662
2316.49765503,0.01593836
2318.42646240,0.01574702
2320.35526978,0.01542730
2322.28407715,0.01546833
2324.21288452,0.01523933
2326.14169189,0.01490291
2328.07049927,0.01489712
2329.99930664,0.01474959
2331.92811401,0.01462443
2333.85692139,0.01460457
2335.78572876,0.01446898
2337.71453613,0.01437217
2339.64334351,0.01446790
2341.57215088,0.01454932
2343.50095825,0.01469490
2345.42976562,0.01489834
2347.35857300,0.01544617
2349.28738037,0.01593902
2351.21618774,0.01528056
2353.14499512,0.01457791
2355.07380249,0.01417617
2357.00260986,0.01370090
2358.93141724,0.01361714
2360.86022461,0.01334885
2362.78903198,0.01316574
2364.71783936,0.01331225
2366.64664673,0.01352528
2368.57545410,0.01387901
2370.50426147,0.01405408
2372.43306885,0.01435697
2374.36187622,0.01477366
2376.29068359,0.01503445
2378.21949097,0.01537266
2380.14829834,0.01564053
2382.07710571,0.01579028
2384.00591309,0.01585389
2385.93472046,0.01590552
2387.86352783,0.01589986
2389.79233521,0.01573486
2391.72114258,0.01573960
2393.64994995,0.01573982
2395.57875732,0.01572457
2397.50756470,0.01573620
2399.43637207,0.01556269
2401.36517944,0.01562138
2403.29398682,0.01568237
2405.22279419,0.01564154
2407.15160156,0.01563284
2409.08040894,0.01547396
2411.00921631,0.01546459
2412.93802368,0.01543773
2414.86683105,0.01542504
2416.79563843,0.01548271
2418.72444580,0.01537271
2420.65325317,0.01531498
2422.58206055,0.01529014
2424.51086792,0.01524517
2426.43967529,0.01525487
2428.36848267,0.01528240
2430.29729004,0.01524706
2432.22609741,0.01522299
2434.15490479,0.01515356
2436.08371216,0.01508214
2438.01251953,0.01513620
2439.94132690,0.01507752
2441.87013428,0.01506269
2443.79894165,0.01508913
2445.72774902,0.01501724
2447.65655640,0.01493962
2449.58536377,0.01488706
2451.51417114,0.01489983
2453.44297852,0.01484013
2455.37178589,0.01476221
2457.30059326,0.01473770
2459.22940063,0.01482202
2461.15820801,0.01483348
2463.08701538,0.01472328
2465.01582275,0.01473605
2466.94463013,0.01465105
2468.87343750,0.01453641
2470.80224487,0.01453594
2472.73105225,0.01453954
2474.65985962,0.01454689
2476.58866699,0.01465915
2478.51747437,0.01462803
2480.44628174,0.01442280
2482.37508911,0.01443532
2484.30389648,0.01432948
2486.23270386,0.01426275
2488.16151123,0.01429801
2490.09031860,0.01423929
2492.01912598,0.01433106
2493.94793335,0.01427445
2495.87674072,0.01422417
2497.80554810,0.01417408
2499.73435547,0.01413586
2501.66316284,0.01419304
2503.59197021,0.01409825
2505.52077759,0.01414583
2507.44958496,0.01405003
2509.37839233,0.01393618
2511.30719971,0.01407807
2513.23600708,0.01401224
2515.16481445,0.01391355
2517.09362183,0.01396112
2519.02242920,0.01391234
2520.95123657,0.01379913
2522.88004395,0.01383695
2524.80885132,0.01375038
2526.73765869,0.01367696
2528.66646606,0.01377339
2530.59527344,0.01371763
2532.52408081,0.01369480
2534.45288818,0.01358200
2536.38169556,0.01357232
2538.31050293,0.01370094
2540.23931030,0.01364844
2542.16811768,0.01358308
2544.09692505,0.01349050
2546.02573242,0.01358444
2547.95453979,0.01346435
2549.88334717,0.01335041
2551.81215454,0.01358125
2553.74096191,0.01346274
2555.66976929,0.01343669
2557.59857666,0.01342989
2559.52738403,0.01341217
2561.45619141,0.01342828
2563.38499878,0.01322539
2565.31380615,0.01332742
2567.24261353,0.01320987
2569.17142090,0.01314313
2571.10022827,0.01330313
2573.02903564,0.01317235
2574.95784302,0.01314142
2576.88665039,0.01304707
2578.81545776,0.01304995
2580.74426514,0.01309982
2582.67307251,0.01313944
2584.60187988,0.01308790
2586.53068726,0.01288766
2588.45949463,0.01301068
2590.38830200,0.01293673
2592.31710937,0.01289668
2594.24591675,0.01293254
2596.17472412,0.01281387
2598.10353149,0.01288402
2600.03233887,0.01280866
2601.96114624,0.01279255
2603.88995361,0.01280128
2605.81876099,0.01278593
2607.74756836,0.01270212
2609.67637573,0.01258057
2611.60518311,0.01267309
2613.53399048,0.01262449
2615.46279785,0.01264536
2617.39160522,0.01259014
2619.32041260,0.01255716
2621.24921997,0.01262105
2623.17802734,0.01247040
2625.10683472,0.01252900
2627.03564209,0.01249466
2628.96444946,0.01241207
2630.89325684,0.01245793
2632.82206421,0.01237655
2634.75087158,0.01230177
2636.67967895,0.01230328
2638.60848633,0.01236890
2640.53729370,0.01229033
2642.46610107,0.01223798
2644.39490845,0.01224040
2646.32371582,0.01223372
2648.25252319,0.01222332
2650.18133057,0.01213883
2652.11013794,0.01226308
2654.03894531,0.01223199
2655.96775269,0.01206745
2657.89656006,0.01214388
2659.82536743,0.01206388
2661.75417480,0.01194217
2663.68298218,0.01199391
2665.61178955,0.01196568
2667.54059692,0.01194185
2669.46940430,0.01193451
2671.39821167,0.01190826
2673.32701904,0.01200792
2675.25582642,0.01190957
2677.18463379,0.01169173
2679.11344116,0.01172560
2681.04224854,0.01183739
2682.97105591,0.01184543
2684.89986328,0.01173892
2686.82867065,0.01167732
2688.75747803,0.01167500
2690.68628540,0.01171247
2692.61509277,0.01167320
2694.54390015,0.01163949
2696.47270752,0.01161981
2698.40151489,0.01143263
2700.33032227,0.01152243
2702.25912964,0.01154757
2704.18793701,0.01148734
2706.11674438,0.01159379
2708.04555176,0.01139317
2709.97435913,0.01139197
2711.90316650,0.01145921
2713.83197388,0.01141045
2715.76078125,0.01149877
2717.68958862,0.01140136
2719.61839600,0.01130489
2721.54720337,0.01123116
2723.47601074,0.01121759
2725.40481812,0.01118809
2727.33362549,0.01112171
2729.26243286,0.01114263
2731.19124023,0.01107850
2733.12004761,0.01117952
2735.04885498,0.01112883
2736.97766235,0.01099503
2738.90646973,0.01109287
2740.83527710,0.01100587
2742.76408447,0.01098342
2744.69289185,0.01104603
2746.62169922,0.01102179
2748.55050659,0.01096117
2750.47931396,0.01094024
2752.40812134,0.01101824
2754.33692871,0.01095862
2756.26573608,0.01090384
2758.19454346,0.01083490
2760.12335083,0.01078074
2762.05215820,0.01082084
2763.98096558,0.01076624
2765.90977295,0.01073403
2767.83858032,0.01073311
2769.76738770,0.01075107
2771.69619507,0.01065735
2773.62500244,0.01056086
2775.55380981,0.01055746
2777.48261719,0.01056737
2779.41142456,0.01063867
2781.34023193,0.01049434
2783.26903931,0.01049560
2785.19784668,0.01058372
2787.12665405,0.01041244
2789.05546143,0.01037164
2790.98426880,0.01042022
2792.91307617,0.01045137
2794.84188354,0.01034861
2796.77069092,0.01032531
2798.69949829,0.01036089
2800.62830566,0.01026577
2802.55711304,0.01021644
2804.48592041,0.01012933
2806.41472778,0.01024405
2808.34353516,0.01027100
2810.27234253,0.01021099
2812.20114990,0.01026546
2814.12995728,0.01012233
2816.05876465,0.01008349
2817.98757202,0.01004076
2819.91637939,0.00999027
2821.84518677,0.00999560
2823.77399414,0.01000366
2825.70280151,0.01000253
2827.63160889,0.00993939
2829.56041626,0.01007453
2831.48922363,0.00997209
2833.41803101,0.00983511
2835.34683838,0.00985290
2837.27564575,0.00974331
2839.20445312,0.00983955
2841.13326050,0.00980000
2843.06206787,0.00965642
2844.99087524,0.00965491
2846.91968262,0.00961102
2848.84848999,0.00953859
2850.77729736,0.00949540
2852.70610474,0.00952010
2854.63491211,0.00947515
2856.56371948,0.00946902
2858.49252686,0.00946654
2860.42133423,0.00949453
2862.35014160,0.00952149
2864.27894897,0.00935891
2866.20775635,0.00935965
2868.13656372,0.00939815
2870.06537109,0.00935400
2871.99417847,0.00937062
2873.92298584,0.00926789
2875.85179321,0.00922549
2877.78060059,0.00927575
2879.70940796,0.00922709
2881.63821533,0.00924935
2883.56702270,0.00924318
2885.49583008,0.00911691
2887.42463745,0.00913387
2889.35344482,0.00914149
2891.28225220,0.00916671
2893.21105957,0.00918696
2895.13986694,0.00903328
2897.06867432,0.00904764
2898.99748169,0.00898597
2900.92628906,0.00894865
2902.85509644,0.00909161
2904.78390381,0.00891578
2906.71271118,0.00887282
2908.64151855,0.00896131
2910.57032593,0.00890710
2912.49913330,0.00889292
2914.42794067,0.00875544
2916.35674805,0.00877136
2918.28555542,0.00876284
2920.21436279,0.00867083
2922.14317017,0.00879380
2924.07197754,0.00871415
2926.00078491,0.00862080
2927.92959229,0.00862416
2929.85839966,0.00865296
2931.78720703,0.00876620
2933.71601440,0.00870349
2935.64482178,0.00870720
2937.57362915,0.00867380
2939.50243652,0.00854305
2941.43124390,0.00859305
2943.36005127,0.00861521
2945.28885864,0.00855155
2947.21766602,0.00854199
2949.14647339,0.00862431
2951.07528076,0.00854566
2953.00408813,0.00844336
2954.93289551,0.00848606
2956.86170288,0.00845879
2958.79051025,0.00847546
2960.71931763,0.00838732
2962.64812500,0.00826303
2964.57693237,0.00831795
2966.50573975,0.00838805
2968.43454712,0.00841830
2970.36335449,0.00834564
2972.29216187,0.00825452
2974.22096924,0.00823689
2976.14977661,0.00825433
2978.07858398,0.00823497
2980.00739136,0.00823462
2981.93619873,0.00825433
2983.86500610,0.00822124
2985.79381348,0.00823821
2987.72262085,0.00822239
2989.65142822,0.00823234
2991.58023560,0.00828459
2993.50904297,0.00824907
2995.43785034,0.00815770
2997.36665771,0.00811024
2999.29546509,0.00814089
3001.22427246,0.00802370
3003.15307983,0.00800190
3005.08188721,0.00809526
3007.01069458,0.00801146
3008.93950195,0.00803704
3010.86830933,0.00800258
3012.79711670,0.00789211
3014.72592407,0.00795604
3016.65473145,0.00792998
3018.58353882,0.00795001
3020.51234619,0.00801749
3022.44115356,0.00789235
3024.36996094,0.00780225
3026.29876831,0.00774827
3028.22757568,0.00781933
3030.15638306,0.00792354
3032.08519043,0.00776161
3034.01399780,0.00776658
3035.94280518,0.00776210
3037.87161255,0.00764283
3039.80041992,0.00774272
3041.72922729,0.00769029
3043.65803467,0.00761463
3045.58684204,0.00754709
3047.51564941,0.00752150
3049.44445679,0.00764220
3051.37326416,0.00760397
3053.30207153,0.00763219
3055.23087891,0.00752870
3057.15968628,0.00745000
3059.08849365,0.00754672
3061.01730103,0.00741815
3062.94610840,0.00744214
3064.87491577,0.00742283
3066.80372314,0.00736244
3068.73253052,0.00744866
3070.66133789,0.00744870
3072.59014526,0.00749329
3074.51895264,0.00733573
3076.44776001,0.00728773
3078.37656738,0.00736776
3080.30537476,0.00726750
3082.23418213,0.00731030
3084.16298950,0.00725320
3086.09179687,0.00723648
3088.02060425,0.00728611
3089.94941162,0.00724629
3091.87821899,0.00731234
3093.80702637,0.00722027
3095.73583374,0.00712497
3097.66464111,0.00710190
3099.59344849,0.00704560
3101.52225586,0.00704549
3103.45106323,0.00700883
3105.37987061,0.00701942
3107.30867798,0.00700091
3109.23748535,0.00692257
3111.16629272,0.00698075
3113.09510010,0.00707676
3115.02390747,0.00698522
3116.95271484,0.00691795
3118.88152222,0.00697311
3120.81032959,0.00690729
3122.73913696,0.00688559
3124.66794434,0.00687325
3126.59675171,0.00681156
3128.52555908,0.00686843
3130.45436645,0.00682404
3132.38317383,0.00667968
3134.31198120,0.00669144
3136.24078857,0.00679712
3138.16959595,0.00683026
3140.09840332,0.00675176
3142.02721069,0.00663867
3143.95601807,0.00663392
3145.88482544,0.00659036
3147.81363281,0.00653866
3149.74244019,0.00658313
3151.67124756,0.00657408
3153.60005493,0.00664489
3155.52886230,0.00649500
3157.45766968,0.00636623
3159.38647705,0.00658004
3161.31528442,0.00645664
3163.24409180,0.00634181
3165.17289917,0.00640641
3167.10170654,0.00636776
3169.03051392,0.00633521
3170.95932129,0.00621327
3172.88812866,0.00629697
3174.81693604,0.00640159
3176.74574341,0.00633187
3178.67455078,0.00629361
3180.60335815,0.00622720
3182.53216553,0.00622068
3184.46097290,0.00618190
3186.38978027,0.00618685
3188.31858765,0.00620770
3190.24739502,0.00612264
3192.17620239,0.00612641
3194.10500977,0.00611069
3196.03381714,0.00610559
3197.96262451,0.00609299
3199.89143188,0.00607343
3201.82023926,0.00608820
3203.74904663,0.00596819
3205.67785400,0.00602936
3207.60666138,0.00608548
3209.53546875,0.00590092
3211.46427612,0.00587026
3213.39308350,0.00589882
3215.32189087,0.00591317
3217.25069824,0.00589369
3219.17950562,0.00586446
3221.10831299,0.00588963
3223.03712036,0.00591374
3224.96592773,0.00593671
3226.89473511,0.00582945
3228.82354248,0.00582443
3230.75234985,0.00583069
3232.68115723,0.00575915
3234.60996460,0.00581854
3236.53877197,0.00582739
3238.46757935,0.00584733
3240.39638672,0.00575727
3242.32519409,0.00569927
3244.25400146,0.00574661
3246.18280884,0.00570896
3248.11161621,0.00581399
3250.04042358,0.00572962
3251.96923096,0.00561086
3253.89803833,0.00573618
3255.82684570,0.00570077
3257.75565308,0.00561234
3259.68446045,0.00561313
3261.61326782,0.00558063
3263.54207520,0.00560093
3265.47088257,0.00572057
3267.39968994,0.00567597
3269.32849731,0.00559680
3271.25730469,0.00559177
3273.18611206,0.00553148
3275.11491943,0.00556182
3277.04372681,0.00560165
3278.97253418,0.00558034
3280.90134155,0.00547790
3282.83014893,0.00549046
3284.75895630,0.00557505
3286.68776367,0.00553332
3288.61657104,0.00555340
3290.54537842,0.00547619
3292.47418579,0.00545702
3294.40299316,0.00544279
3296.33180054,0.00536090
3298.26060791,0.00549203
3300.18941528,0.00546523
3302.11822266,0.00543548
3304.04703003,0.00545771
3305.97583740,0.00534846
3307.90464478,0.00541396
3309.83345215,0.00544070
3311.76225952,0.00540017
3313.69106689,0.00540528
3315.61987427,0.00531409
3317.54868164,0.00530610
3319.47748901,0.00542172
3321.40629639,0.00543692
3323.33510376,0.00527637
3325.26391113,0.00524547
3327.19271851,0.00539087
3329.12152588,0.00531202
3331.05033325,0.00525035
3332.97914062,0.00530024
3334.90794800,0.00520081
3336.83675537,0.00521583
3338.76556274,0.00526667
3340.69437012,0.00527254
3342.62317749,0.00529214
3344.55198486,0.00519728
3346.48079224,0.00514965
3348.40959961,0.00516493
3350.33840698,0.00519352
3352.26721436,0.00521056
3354.19602173,0.00516236
3356.12482910,0.00513571
3358.05363647,0.00517607
3359.98244385,0.00515871
3361.91125122,0.00508402
3363.84005859,0.00513527
3365.76886597,0.00513064
3367.69767334,0.00508567
3369.62648071,0.00506182
3371.55528809,0.00498332
3373.48409546,0.00503916
3375.41290283,0.00499959
3377.34171020,0.00491832
3379.27051758,0.00498086
3381.19932495,0.00496982
3383.12813232,0.00497623
3385.05693970,0.00495647
3386.98574707,0.00493575
3388.91455444,0.00497602
3390.84336182,0.00492015
3392.77216919,0.00490918
3394.70097656,0.00493641
3396.62978394,0.00489622
3398.55859131,0.00482300
3400.48739868,0.00480721
3402.41620605,0.00492387
3404.34501343,0.00491430
3406.27382080,0.00481614
3408.20262817,0.00483150
3410.13143555,0.00490708
3412.06024292,0.00495557
3413.98905029,0.00484209
3415.91785767,0.00479645
3417.84666504,0.00480015
3419.77547241,0.00474598
3421.70427979,0.00474952
3423.63308716,0.00470680
3425.56189453,0.00479341
3427.49070190,0.00480566
3429.41950928,0.00469685
3431.34831665,0.00472132
3433.27712402,0.00468406
3435.20593140,0.00467485
3437.13473877,0.00463900
3439.06354614,0.00460009
3440.99235352,0.00457846
3442.92116089,0.00456915
3444.84996826,0.00466503
3446.77877563,0.00454841
3448.70758301,0.00452844
3450.63639038,0.00460152
3452.56519775,0.00454500
3454.49400513,0.00461770
3456.42281250,0.00455203
3458.35161987,0.00456205
3460.28042725,0.00462538
3462.20923462,0.00453575
3464.13804199,0.00459359
3466.06684937,0.00452727
3467.99565674,0.00447443
3469.92446411,0.00449684
3471.85327148,0.00445977
3473.78207886,0.00448818
3475.71088623,0.00441989
3477.63969360,0.00449723
3479.56850098,0.00448492
3481.49730835,0.00437284
3483.42611572,0.00448402
3485.35492310,0.00446338
3487.28373047,0.00445850
3489.21253784,0.00440664
3491.14134521,0.00436342
3493.07015259,0.00439284
3494.99895996,0.00432604
3496.92776733,0.00440340
3498.85657471,0.00435373
3500.78538208,0.00432120
3502.71418945,0.00437930
3504.64299683,0.00442632
3506.57180420,0.00451492
3508.50061157,0.00436120
3510.42941895,0.00432629
3512.35822632,0.00437577
3514.28703369,0.00439855
3516.21584106,0.00440343
3518.14464844,0.00430873
3520.07345581,0.00443141
3522.00226318,0.00435177
3523.93107056,0.00420976
3525.85987793,0.00434141
3527.78868530,0.00431244
3529.71749268,0.00426778
3531.64630005,0.00431310
3533.57510742,0.00434071
3535.50391479,0.00430586
3537.43272217,0.00426018
3539.36152954,0.00430888
3541.29033691,0.00425641
3543.21914429,0.00421675
3545.14795166,0.00414993
3547.07675903,0.00402904
3549.00556641,0.00422745
3550.93437378,0.00429230
3552.86318115,0.00416892
3554.79198853,0.00424955
3556.72079590,0.00429439
3558.64960327,0.00426316
3560.57841064,0.00419097
3562.50721802,0.00426305
3564.43602539,0.00417507
3566.36483276,0.00382654
3568.29364014,0.00382740
3570.22244751,0.00408672
3572.15125488,0.00428599
3574.08006226,0.00421700
3576.00886963,0.00417155
3577.93767700,0.00419143
3579.86648437,0.00411742
3581.79529175,0.00413758
3583.72409912,0.00408955
3585.65290649,0.00395548
3587.58171387,0.00372687
3589.51052124,0.00388928
3591.43932861,0.00423622
3593.36813599,0.00410690
3595.29694336,0.00392845
3597.22575073,0.00391940
3599.15455811,0.00409093
3601.08336548,0.00411659
3603.01217285,0.00404554
3604.94098022,0.00415741
3606.86978760,0.00405317
3608.79859497,0.00369437
3610.72740234,0.00374469
3612.65620972,0.00386844
3614.58501709,0.00375070
3616.51382446,0.00405911
3618.44263184,0.00375178
3620.37143921,0.00367615
3622.30024658,0.00417437
3624.22905395,0.00407423
3626.15786133,0.00422624
3628.08666870,0.00334466
3630.01547607,0.00312483
3631.94428345,0.00413305
3633.87309082,0.00391519
3635.80189819,0.00399131
3637.73070557,0.00405934
3639.65951294,0.00404576
3641.58832031,0.00408639
3643.51712769,0.00394740
3645.44593506,0.00403470
3647.37474243,0.00357230
3649.30354980,0.00323393
3651.23235718,0.00335783
3653.16116455,0.00409784
3655.08997192,0.00394159
3657.01877930,0.00343935
3658.94758667,0.00406131
3660.87639404,0.00389575
3662.80520142,0.00395229
3664.73400879,0.00399319
3666.66281616,0.00395269
3668.59162354,0.00378676
3670.52043091,0.00308244
3672.44923828,0.00383085
3674.37804565,0.00350007
3676.30685303,0.00286003
3678.23566040,0.00372620
3680.16446777,0.00383150
3682.09327515,0.00383615
3684.02208252,0.00393731
3685.95088989,0.00386701
3687.87969727,0.00336686
3689.80850464,0.00317867
3691.73731201,0.00366652
3693.66611938,0.00370179
3695.59492676,0.00380998
3697.52373413,0.00376195
3699.45254150,0.00379667
3701.38134888,0.00369413
3703.31015625,0.00360069
3705.23896362,0.00397083
3707.16777100,0.00372098
3709.09657837,0.00358571
3711.02538574,0.00328101
3712.95419312,0.00320894
3714.88300049,0.00372950
3716.81180786,0.00371781
3718.74061523,0.00379318
3720.66942261,0.00354520
3722.59822998,0.00349461
3724.52703735,0.00358295
3726.45584473,0.00337264
3728.38465210,0.00366723
3730.31345947,0.00355189
3732.24226685,0.00331530
3734.17107422,0.00306221
3736.09988159,0.00293178
3738.02868896,0.00318120
3739.95749634,0.00344605
3741.88630371,0.00365971
3743.81511108,0.00271041
3745.74391846,0.00264017
3747.67272583,0.00347995
3749.60153320,0.00281704
3751.53034058,0.00266185
3753.45914795,0.00314828
3755.38795532,0.00340799
3757.31676270,0.00358700
3759.24557007,0.00323121
3761.17437744,0.00338313
3763.10318481,0.00355724
3765.03199219,0.00320338
3766.96079956,0.00337080
3768.88960693,0.00334117
3770.81841431,0.00321702
3772.74722168,0.00354231
3774.67602905,0.00354185
3776.60483643,0.00351149
3778.53364380,0.00334459
3780.46245117,0.00324163
3782.39125854,0.00348675
3784.32006592,0.00337301
3786.24887329,0.00327524
3788.17768066,0.00345647
3790.10648804,0.00348113
3792.03529541,0.00331010
3793.96410278,0.00348142
3795.89291016,0.00329042
3797.82171753,0.00318950
3799.75052490,0.00330594
3801.67933228,0.00259708
3803.60813965,0.00321896
3805.53694702,0.00333640
3807.46575439,0.00269288
3809.39456177,0.00340853
3811.32336914,0.00328585
3813.25217651,0.00336828
3815.18098389,0.00292391
3817.10979126,0.00265727
3819.03859863,0.00339350
3820.96740601,0.00260495
3822.89621338,0.00286491
3824.82502075,0.00330604
3826.75382812,0.00300310
3828.68263550,0.00334388
3830.61144287,0.00311202
3832.54025024,0.00299904
3834.46905762,0.00305135
3836.39786499,0.00284751
3838.32667236,0.00251215
3840.25547974,0.00272364
3842.18428711,0.00306003
3844.11309448,0.00292714
3846.04190186,0.00317061
3847.97070923,0.00317435
3849.89951660,0.00318390
3851.82832397,0.00274822
3853.75713135,0.00194996
3855.68593872,0.00246840
3857.61474609,0.00310595
3859.54355347,0.00299494
3861.47236084,0.00299168
3863.40116821,0.00283523
3865.32997559,0.00269764
3867.25878296,0.00305262
3869.18759033,0.00264376
3871.11639770,0.00252071
3873.04520508,0.00308432
3874.97401245,0.00275668
3876.90281982,0.00298487
3878.83162720,0.00306595
3880.76043457,0.00267351
3882.68924194,0.00305135
3884.61804932,0.00277899
3886.54685669,0.00260556
3888.47566406,0.00310806
3890.40447144,0.00284975
3892.33327881,0.00257309
3894.26208618,0.00299175
3896.19089355,0.00309805
3898.11970093,0.00284585
3900.04850830,0.00272810
3901.97731567,0.00262938
3903.90612305,0.00253538
3905.83493042,0.00264679
3907.76373779,0.00297725
3909.69254517,0.00295429
3911.62135254,0.00291855
3913.55015991,0.00301337
3915.47896728,0.00282272
3917.40777466,0.00270403
3919.33658203,0.00267024
3921.26538940,0.00286423
3923.19419678,0.00289828
3925.12300415,0.00270873
3927.05181152,0.00277519
3928.98061890,0.00281020
3930.90942627,0.00282105
3932.83823364,0.00274457
3934.76704102,0.00279038
3936.69584839,0.00286654
3938.62465576,0.00284914
3940.55346313,0.00291607
3942.48227051,0.00271581
3944.41107788,0.00270458
3946.33988525,0.00281346
3948.26869263,0.00270352
3950.19750000,0.00280579
3952.12630737,0.00282294
3954.05511475,0.00270277
3955.98392212,0.00270982
3957.91272949,0.00272831
3959.84153687,0.00277863
3961.77034424,0.00275423
3963.69915161,0.00269751
3965.62795898,0.00275680
3967.55676636,0.00273996
3969.48557373,0.00266029
3971.41438110,0.00264576
3973.34318848,0.00266683
3975.27199585,0.00262720
3977.20080322,0.00265787
3979.12961060,0.00275074
3981.05841797,0.00263300
3982.98722534,0.00264082
3984.91603271,0.00272092
3986.84484009,0.00265164
3988.77364746,0.00263701
3990.70245483,0.00259793
3992.63126221,0.00262247
3994.56006958,0.00264874
3996.48887695,0.00261987
3998.41768433,0.00256816
4000.34649170,0.00253875
4002.27529907,0.00258559
4004.20410645,0.00254658
4006.13291382,0.00260719
4008.06172119,0.00263172
4009.99052856,0.00253104
4011.91933594,0.00252841
4013.84814331,0.00250063
4015.77695068,0.00254246
4017.70575806,0.00261371
4019.63456543,0.00256089
4021.56337280,0.00249884
4023.49218018,0.00251573
4025.42098755,0.00254807
4027.34979492,0.00248748
4029.27860229,0.00250013
4031.20740967,0.00256405
4033.13621704,0.00245252
4035.06502441,0.00243110
4036.99383179,0.00248233
4038.92263916,0.00241100
4040.85144653,0.00246258
4042.78025391,0.00243026
4044.70906128,0.00235959
4046.63786865,0.00247231
4048.56667603,0.00246941
4050.49548340,0.00242844
4052.42429077,0.00242229
4054.35309814,0.00242138
4056.28190552,0.00241357
4058.21071289,0.00239794
4060.13952026,0.00243768
4062.06832764,0.00242931
4063.99713501,0.00244958
4065.92594238,0.00239914
4067.85474976,0.00231860
4069.78355713,0.00238623
4071.71236450,0.00231196
4073.64117187,0.00224136
4075.56997925,0.00238113
4077.49878662,0.00234521
4079.42759399,0.00226007
4081.35640137,0.00235382
4083.28520874,0.00234021
4085.21401611,0.00232313
4087.14282349,0.00232714
4089.07163086,0.00229819
4091.00043823,0.00232383
4092.92924561,0.00228821
4094.85805298,0.00231595
4096.78686035,0.00229639
4098.71566772,0.00223859
4100.64447510,0.00228365
4102.57328247,0.00228892
4104.50208984,0.00225277
4106.43089722,0.00216848
4108.35970459,0.00220586
4110.28851196,0.00217903
4112.21731934,0.00216186
4114.14612671,0.00230602
4116.07493408,0.00220527
4118.00374145,0.00219837
4119.93254883,0.00220530
4121.86135620,0.00212923
4123.79016357,0.00222173
4125.71897095,0.00219624
4127.64777832,0.00222862
4129.57658569,0.00218342
4131.50539307,0.00210794
4133.43420044,0.00216395
4135.36300781,0.00208706
4137.29181519,0.00212134
4139.22062256,0.00212064
4141.14942993,0.00208967
4143.07823730,0.00216316
4145.00704468,0.00212527
4146.93585205,0.00210066
4148.86465942,0.00214462
4150.79346680,0.00216705
4152.72227417,0.00211346
4154.65108154,0.00213326
4156.57988892,0.00211084
4158.50869629,0.00199818
4160.43750366,0.00200068
4162.36631103,0.00203904
4164.29511841,0.00208523
4166.22392578,0.00203726
4168.15273315,0.00206238
4170.08154053,0.00207267
4172.01034790,0.00199054
4173.93915527,0.00202833
4175.86796265,0.00198607
4177.79677002,0.00198611
4179.72557739,0.00197738
4181.65438477,0.00200447
4183.58319214,0.00206492
4185.51199951,0.00200155
4187.44080688,0.00203806
4189.36961426,0.00205018
4191.29842163,0.00205057
4193.22722900,0.00196934
4195.15603638,0.00198852
4197.08484375,0.00203658
4199.01365112,0.00190529
4200.94245850,0.00202488
4202.87126587,0.00199334
4204.80007324,0.00187145
4206.72888062,0.00192783
4208.65768799,0.00194408
4210.58649536,0.00195781
4212.51530273,0.00192502
4214.44411011,0.00197897
4216.37291748,0.00197121
4218.30172485,0.00194321
4220.23053223,0.00192020
4222.15933960,0.00188938
4224.08814697,0.00190405
4226.01695435,0.00182520
4227.94576172,0.00186904
4229.87456909,0.00190365
4231.80337646,0.00191691
4233.73218384,0.00188237
4235.66099121,0.00184514
4237.58979858,0.00187770
4239.51860596,0.00175272
4241.44741333,0.00184662
4243.37622070,0.00194623
4245.30502808,0.00185624
4247.23383545,0.00186488
4249.16264282,0.00186966
4251.09145020,0.00181834
4253.02025757,0.00179901
4254.94906494,0.00184575
4256.87787231,0.00179781
4258.80667969,0.00184365
4260.73548706,0.00182585
4262.66429443,0.00171616
4264.59310181,0.00182634
4266.52190918,0.00184270
4268.45071655,0.00179098
4270.37952393,0.00177046
4272.30833130,0.00180501
4274.23713867,0.00178057
4276.16594604,0.00172617
4278.09475342,0.00176922
4280.02356079,0.00172420
4281.95236816,0.00181245
4283.88117554,0.00184222
4285.80998291,0.00177506
4287.73879028,0.00180259
4289.66759766,0.00177259
4291.59640503,0.00171104
4293.52521240,0.00164956
4295.45401978,0.00174287
4297.38282715,0.00169777
4299.31163452,0.00165369
4301.24044189,0.00175919
4303.16924927,0.00166860
4305.09805664,0.00174323
4307.02686401,0.00173424
4308.95567139,0.00166739
4310.88447876,0.00181468
4312.81328613,0.00169626
4314.74209351,0.00162778
4316.67090088,0.00176740
4318.59970825,0.00177521
4320.52851562,0.00166410
4322.45732300,0.00164567
4324.38613037,0.00169852
4326.31493774,0.00160574
4328.24374512,0.00159602
4330.17255249,0.00157334
4332.10135986,0.00157497
4334.03016724,0.00167808
4335.95897461,0.00153014
4337.88778198,0.00157599
4339.81658936,0.00168261
4341.74539673,0.00155009
4343.67420410,0.00157390
4345.60301147,0.00154314
4347.53181885,0.00153624
4349.46062622,0.00161326
4351.38943359,0.00155355
4353.31824097,0.00155387
4355.24704834,0.00161405
4357.17585571,0.00155708
4359.10466309,0.00152454
4361.03347046,0.00161046
4362.96227783,0.00156267
4364.89108520,0.00158757
4366.81989258,0.00164621
4368.74869995,0.00150934
4370.67750732,0.00155568
4372.60631470,0.00157193
4374.53512207,0.00146994
4376.46392944,0.00154956
4378.39273682,0.00160861
4380.32154419,0.00156895
4382.25035156,0.00150233
4384.17915894,0.00148366
4386.10796631,0.00154864
4388.03677368,0.00150422
4389.96558105,0.00143921
4391.89438843,0.00148752
4393.82319580,0.00146014
4395.75200317,0.00148878
4397.68081055,0.00148550
4399.60961792,0.00140170
4401.53842529,0.00148300
4403.46723267,0.00147619
4405.39604004,0.00143909
4407.32484741,0.00144593
4409.25365478,0.00142433
4411.18246216,0.00143816
4413.11126953,0.00149315
4415.04007690,0.00153137
4416.96888428,0.00135244
4418.89769165,0.00131837
4420.82649902,0.00141972
4422.75530640,0.00142416
4424.68411377,0.00145376
4426.61292114,0.00142422
4428.54172852,0.00145975
4430.47053589,0.00140438
4432.39934326,0.00136412
4434.32815063,0.00146927
4436.25695801,0.00144557
4438.18576538,0.00141125
4440.11457275,0.00139976
4442.04338013,0.00139770
4443.97218750,0.00142121
4445.90099487,0.00141557
4447.82980225,0.00129570
4449.75860962,0.00123570
4451.68741699,0.00132597
4453.61622437,0.00138083
4455.54503174,0.00142233
4457.47383911,0.00137160
4459.40264648,0.00134928
4461.33145386,0.00133358
4463.26026123,0.00132455
4465.18906860,0.00137217
4467.11787598,0.00132084
4469.04668335,0.00136398
4470.97549072,0.00132009
4472.90429810,0.00128775
4474.83310547,0.00134019
4476.76191284,0.00123805
4478.69072021,0.00131320
4480.61952759,0.00136128
4482.54833496,0.00127850
4484.47714233,0.00132773
4486.40594971,0.00130599
4488.33475708,0.00123955
4490.26356445,0.00127516
4492.19237183,0.00127355
4494.12117920,0.00132441
4496.04998657,0.00138921
4497.97879395,0.00126174
4499.90760132,0.00127697
4501.83640869,0.00132522
4503.76521606,0.00123317
4505.69402344,0.00121765
4507.62283081,0.00122521
4509.55163818,0.00128596
4511.48044556,0.00119734
4513.40925293,0.00115001
4515.33806030,0.00129485
4517.26686768,0.00123299
4519.19567505,0.00118100
4521.12448242,0.00122867
4523.05328979,0.00123289
4524.98209717,0.00120715
4526.91090454,0.00116765
4528.83971191,0.00118274
4530.76851929,0.00119243
4532.69732666,0.00121023
4534.62613403,0.00117452
4536.55494141,0.00117985
4538.48374878,0.00125619
4540.41255615,0.00119585
4542.34136353,0.00121759
4544.27017090,0.00125334
4546.19897827,0.00115696
4548.12778564,0.00115246
4550.05659302,0.00117367
4551.98540039,0.00122598
4553.91420776,0.00124924
4555.84301514,0.00117242
4557.77182251,0.00116136
4559.70062988,0.00113643
4561.62943726,0.00112402
4563.55824463,0.00119511
4565.48705200,0.00119593
4567.41585937,0.00116105
4569.34466675,0.00120755
4571.27347412,0.00118384
4573.20228149,0.00110658
4575.13108887,0.00115609
4577.05989624,0.00119126
4578.98870361,0.00115908
4580.91751099,0.00115956
4582.84631836,0.00122923
4584.77512573,0.00114727
4586.70393311,0.00101953
4588.63274048,0.00111432
4590.56154785,0.00106936
4592.49035522,0.00106256
4594.41916260,0.00111620
4596.34796997,0.00102703
4598.27677734,0.00107037
4600.20558472,0.00109318
4602.13439209,0.00108549
4604.06319946,0.00104755
4605.99200684,0.00106173
4607.92081421,0.00113012
4609.84962158,0.00109711
4611.77842895,0.00108944
4613.70723633,0.00104889
4615.63604370,0.00104274
4617.56485107,0.00102394
4619.49365845,0.00110409
4621.42246582,0.00113053
4623.35127319,0.00104013
4625.28008057,0.00112086
4627.20888794,0.00106091
4629.13769531,0.00108728
4631.06650269,0.00108704
4632.99531006,0.00102545
4634.92411743,0.00110580
4636.85292480,0.00102421
4638.78173218,0.00102336
4640.71053955,0.00098956
4642.63934692,0.00102421
4644.56815430,0.00109378
4646.49696167,0.00098682
4648.42576904,0.00097481
4650.35457642,0.00102054
4652.28338379,0.00106240
4654.21219116,0.00101114
4656.14099853,0.00104682
4658.06980591,0.00098247
4659.99861328,0.00097083
4661.92742065,0.00106191
4663.85622803,0.00097917
4665.78503540,0.00111513
4667.71384277,0.00098561
4669.64265015,0.00093027
4671.57145752,0.00105921
4673.50026489,0.00094117
4675.42907227,0.00100338
4677.35787964,0.00094986
4679.28668701,0.00096451
4681.21549438,0.00097429
4683.14430176,0.00103098
4685.07310913,0.00105681
4687.00191650,0.00082231
4688.93072388,0.00097920
4690.85953125,0.00100710
4692.78833862,0.00097848
4694.71714600,0.00099413
4696.64595337,0.00090705
4698.57476074,0.00102987
4700.50356812,0.00090471
4702.43237549,0.00084894
4704.36118286,0.00092375
4706.28999023,0.00093506
4708.21879761,0.00094169
4710.14760498,0.00091683
4712.07641235,0.00096978
4714.00521973,0.00089974
4715.93402710,0.00090796
4717.86283447,0.00092370
4719.79164185,0.00089313
4721.72044922,0.00094041
4723.64925659,0.00093637
4725.57806396,0.00090947
4727.50687134,0.00087681
4729.43567871,0.00094211
4731.36448608,0.00088426
4733.29329346,0.00085074
4735.22210083,0.00093045
4737.15090820,0.00087542
4739.07971558,0.00093204
4741.00852295,0.00090468
4742.93733032,0.00083776
4744.86613770,0.00092060
4746.79494507,0.00082185
4748.72375244,0.00081535
4750.65255981,0.00097086
4752.58136719,0.00089505
4754.51017456,0.00082592
4756.43898193,0.00082902
4758.36778931,0.00082334
4760.29659668,0.00087740
4762.22540405,0.00084724
4764.15421143,0.00082288
4766.08301880,0.00082259
4768.01182617,0.00086755
4769.94063354,0.00087267
4771.86944092,0.00082505
4773.79824829,0.00082648
4775.72705566,0.00077129
4777.65586304,0.00082823
4779.58467041,0.00078661
4781.51347778,0.00082105
4783.44228516,0.00091106
4785.37109253,0.00077303
4787.29989990,0.00089028
4789.22870728,0.00086188
4791.15751465,0.00079511
4793.08632202,0.00087330
4795.01512939,0.00080290
4796.94393677,0.00087834
4798.87274414,0.00083514
4800.80155151,0.00082201
4802.73035889,0.00083368
4804.65916626,0.00080095
4806.58797363,0.00088591
4808.51678101,0.00078358
4810.44558838,0.00079814
4812.37439575,0.00082635
4814.30320312,0.00075195
4816.23201050,0.00077977
4818.16081787,0.00073974
4820.08962524,0.00074712
4822.01843262,0.00075394
4823.94723999,0.00076713
4825.87604736,0.00082360
4827.80485474,0.00076455
4829.73366211,0.00069310
4831.66246948,0.00068171
4833.59127686,0.00068644
4835.52008423,0.00073707
4837.44889160,0.00081653
4839.37769897,0.00074765
4841.30650635,0.00067644
4843.23531372,0.00078510
4845.16412109,0.00078589
4847.09292847,0.00075513
4849.02173584,0.00082480
4850.95054321,0.00077170
4852.87935059,0.00070703
4854.80815796,0.00073500
4856.73696533,0.00079677
4858.66577270,0.00078742
4860.59458008,0.00071887
4862.52338745,0.00073468
4864.45219482,0.00073675
4866.38100220,0.00078748
4868.30980957,0.00075612
4870.23861694,0.00065285
4872.16742432,0.00075447
4874.09623169,0.00077444
4876.02503906,0.00071013
4877.95384644,0.00067565
4879.88265381,0.00071573
4881.81146118,0.00075918
4883.74026855,0.00063050
4885.66907593,0.00068084
4887.59788330,0.00074546
4889.52669067,0.00067415
4891.45549805,0.00071228
4893.38430542,0.00068438
4895.31311279,0.00064850
4897.24192017,0.00070683
4899.17072754,0.00074649
4901.09953491,0.00073310
4903.02834228,0.00071960
4904.95714966,0.00071893
4906.88595703,0.00069451
4908.81476440,0.00074283
4910.74357178,0.00074521
4912.67237915,0.00062231
4914.60118652,0.00065804
4916.52999390,0.00071641
4918.45880127,0.00064464
4920.38760864,0.00066062
4922.31641602,0.00062911
4924.24522339,0.00063270
4926.17403076,0.00069968
4928.10283813,0.00063473
4930.03164551,0.00067445
4931.96045288,0.00068841
4933.88926025,0.00061327
4935.81806763,0.00063282
4937.74687500,0.00064588
4939.67568237,0.00063560
4941.60448975,0.00063701
4943.53329712,0.00067250
4945.46210449,0.00064993
4947.39091187,0.00064136
4949.31971924,0.00066403
4951.24852661,0.00061472
4953.17733398,0.00061179
4955.10614136,0.00061899
4957.03494873,0.00061848
4958.96375610,0.00061361
4960.89256348,0.00060835
4962.82137085,0.00059515
4964.75017822,0.00059958
4966.67898560,0.00067141
4968.60779297,0.00064786
4970.53660034,0.00064964
4972.46540771,0.00067068
4974.39421509,0.00058290
4976.32302246,0.00057672
4978.25182983,0.00063319
4980.18063721,0.00065538
4982.10944458,0.00061029
4984.03825195,0.00057551
4985.96705933,0.00064570
4987.89586670,0.00067226
4989.82467407,0.00057405
4991.75348145,0.00056496
4993.68228882,0.00064074
4995.61109619,0.00057667
4997.53990356,0.00055019
4999.46871094,0.00059931
5001.39751831,0.00059023
5003.32632568,0.00059223
5005.25513306,0.00062044
5007.18394043,0.00064969
5009.11274780,0.00061782
5011.04155518,0.00061242
5012.97036255,0.00060286
5014.89916992,0.00055837
5016.82797729,0.00057332
5018.75678467,0.00055773
5020.68559204,0.00056132
5022.61439941,0.00053379
5024.54320679,0.00049696
5026.47201416,0.00055184
5028.40082153,0.00052930
5030.32962891,0.00048610
5032.25843628,0.00055734
5034.18724365,0.00063362
5036.11605103,0.00062025
5038.04485840,0.00060706
5039.97366577,0.00057993
5041.90247314,0.00052604
5043.83128052,0.00050520
5045.76008789,0.00051579
5047.68889526,0.00056028
5049.61770264,0.00054311
5051.54651001,0.00055527
5053.47531738,0.00054847
5055.40412476,0.00050984
5057.33293213,0.00054164
5059.26173950,0.00049878
5061.19054687,0.00053001
5063.11935425,0.00056441
5065.04816162,0.00052380
5066.97696899,0.00052550
5068.90577637,0.00053447
5070.83458374,0.00056730
5072.76339111,0.00052656
5074.69219849,0.00053616
5076.62100586,0.00055682
5078.54981323,0.00050946
5080.47862061,0.00049498
5082.40742798,0.00051136
5084.33623535,0.00056545
5086.26504272,0.00051482
5088.19385010,0.00049138
5090.12265747,0.00050330
5092.05146484,0.00052161
5093.98027222,0.00054799
5095.90907959,0.00048552
5097.83788696,0.00055678
5099.76669434,0.00053034
5101.69550171,0.00041171
5103.62430908,0.00043132
5105.55311645,0.00044971
5107.48192383,0.00053956
5109.41073120,0.00054684
5111.33953857,0.00045715
5113.26834595,0.00042869
5115.19715332,0.00042000
5117.12596069,0.00048021
5119.05476807,0.00051755
5120.98357544,0.00045803
5122.91238281,0.00047998
5124.84119019,0.00049631
5126.76999756,0.00043360
5128.69880493,0.00050086
5130.62761230,0.00048537
5132.55641968,0.00038032
5134.48522705,0.00043719
5136.41403442,0.00051176
5138.34284180,0.00050061
5140.27164917,0.00047463
5142.20045654,0.00047350
5144.12926392,0.00047156
5146.05807129,0.00051800
5147.98687866,0.00045758
5149.91568603,0.00044083
5151.84449341,0.00056907
5153.77330078,0.00048320
5155.70210815,0.00043531
5157.63091553,0.00045711
5159.55972290,0.00043409
5161.48853027,0.00045975
5163.41733765,0.00042767
5165.34614502,0.00041963
5167.27495239,0.00040891
5169.20375977,0.00046379
5171.13256714,0.00050962
5173.06137451,0.00040837
5174.99018188,0.00044717
5176.91898926,0.00052149
5178.84779663,0.00040792
5180.77660400,0.00038504
5182.70541138,0.00041148
5184.63421875,0.00038157
5186.56302612,0.00041529
5188.49183350,0.00035351
5190.42064087,0.00039030
5192.34944824,0.00040870
5194.27825562,0.00036216
5196.20706299,0.00047192
5198.13587036,0.00036072
5200.06467773,0.00036585
5201.99348511,0.00046063
5203.92229248,0.00040114
5205.85109985,0.00041781
5207.77990723,0.00036809
5209.70871460,0.00044139
5211.63752197,0.00046039
5213.56632935,0.00041323
5215.49513672,0.00043846
5217.42394409,0.00038698
5219.35275146,0.00040552
5221.28155884,0.00036105
5223.21036621,0.00036726
5225.13917358,0.00041071
5227.06798096,0.00034199
5228.99678833,0.00035560
5230.92559570,0.00040811
5232.85440308,0.00040864
5234.78321045,0.00038274
5236.71201782,0.00038356
5238.64082520,0.00039028
5240.56963257,0.00043223
5242.49843994,0.00046377
5244.42724731,0.00042098
5246.35605469,0.00035080
5248.28486206,0.00034176
5250.21366943,0.00038923
5252.14247681,0.00037956
5254.07128418,0.00038909
5256.00009155,0.00034795
5257.92889893,0.00033373
5259.85770630,0.00035477
5261.78651367,0.00031320
5263.71532104,0.00036810
5265.64412842,0.00036496
5267.57293579,0.00034818
5269.50174316,0.00036943
5271.43055054,0.00038991
5273.35935791,0.00042459
5275.28816528,0.00035963
5277.21697266,0.00036938
5279.14578003,0.00041501
5281.07458740,0.00038536
5283.00339478,0.00033924
5284.93220215,0.00035080
5286.86100952,0.00042702
5288.78981689,0.00040536
5290.71862427,0.00036544
5292.64743164,0.00040065
5294.57623901,0.00043396
5296.50504639,0.00039619
5298.43385376,0.00034813
5300.36266113,0.00034443
5302.29146851,0.00034588
5304.22027588,0.00038772
5306.14908325,0.00037416
5308.07789062,0.00028790
5310.00669800,0.00030647
5311.93550537,0.00035657
5313.86431274,0.00034524
5315.79312012,0.00038881
5317.72192749,0.00036505
5319.65073486,0.00030137
5321.57954224,0.00035573
5323.50834961,0.00036924
5325.43715698,0.00034334
5327.36596436,0.00029571
5329.29477173,0.00033033
5331.22357910,0.00039479
5333.15238647,0.00032004
5335.08119385,0.00036073
5337.01000122,0.00035619
5338.93880859,0.00027517
5340.86761597,0.00036247
5342.79642334,0.00038722
5344.72523071,0.00038404
5346.65403809,0.00035919
5348.58284546,0.00029377
5350.51165283,0.00037669
5352.44046020,0.00037706
5354.36926758,0.00031998
5356.29807495,0.00033448
5358.22688232,0.00026960
5360.15568970,0.00031335
5362.08449707,0.00039691
5364.01330444,0.00034632
5365.94211182,0.00029732
5367.87091919,0.00028945
5369.79972656,0.00032964
5371.72853394,0.00031833
5373.65734131,0.00031370
5375.58614868,0.00037150
5377.51495605,0.00032930
5379.44376343,0.00027366
5381.37257080,0.00029501
5383.30137817,0.00031540
5385.23018555,0.00034127
5387.15899292,0.00031639
5389.08780029,0.00027476
5391.01660767,0.00033408
5392.94541504,0.00030280
5394.87422241,0.00029155
5396.80302978,0.00033506
5398.73183716,0.00029970
5400.66064453,0.00037266
5402.58945190,0.00031128
5404.51825928,0.00027151
5406.44706665,0.00038195
5408.37587402,0.00034055
5410.30468140,0.00030698
5412.23348877,0.00024942
5414.16229614,0.00024447
5416.09110352,0.00031753
5418.01991089,0.00033970
5419.94871826,0.00032093
5421.87752563,0.00028300
5423.80633301,0.00029859
5425.73514038,0.00025190
5427.66394775,0.00026257
5429.59275513,0.00033113
5431.52156250,0.00035107
5433.45036987,0.00034933
5435.37917725,0.00030288
5437.30798462,0.00026063
5439.23679199,0.00023768
5441.16559936,0.00032085
5443.09440674,0.00032835
5445.02321411,0.00031315
5446.95202148,0.00032332
5448.88082886,0.00022188
5450.80963623,0.00024747
5452.73844360,0.00028619
5454.66725098,0.00030995
5456.59605835,0.00030213
5458.52486572,0.00027315
5460.45367310,0.00033854
5462.38248047,0.00027116
5464.31128784,0.00024155
5466.24009521,0.00029797
5468.16890259,0.00030145
5470.09770996,0.00030273
5472.02651733,0.00024936
5473.95532471,0.00024899
5475.88413208,0.00028836
5477.81293945,0.00025581
5479.74174683,0.00021014
5481.67055420,0.00019323
5483.59936157,0.00027763
5485.52816895,0.00028698
5487.45697632,0.00014507
5489.38578369,0.00020501
5491.31459106,0.00028694
5493.24339844,0.00028397
5495.17220581,0.00030854
5497.10101318,0.00026158
5499.02982056,0.00029707
5500.95862793,0.00024562
5502.88743530,0.00023188
5504.81624268,0.00030922
5506.74505005,0.00024433
5508.67385742,0.00027055
5510.60266479,0.00026957
5512.53147217,0.00029547
5514.46027954,0.00030690
5516.38908691,0.00026509
5518.31789429,0.00030566
5520.24670166,0.00020364
5522.17550903,0.00020933
5524.10431641,0.00025732
5526.03312378,0.00019504
5527.96193115,0.00021727
5529.89073853,0.00029457
5531.81954590,0.00035139
5533.74835327,0.00026335
5535.67716064,0.00022112
5537.60596802,0.00024629
5539.53477539,0.00022716
5541.46358276,0.00019577
5543.39239014,0.00021807
5545.32119751,0.00031907
5547.25000488,0.00028639
5549.17881226,0.00026334
5551.10761963,0.00022255
5553.03642700,0.00014393
5554.96523437,0.00023232
5556.89404175,0.00024645
5558.82284912,0.00023885
5560.75165649,0.00027251
5562.68046387,0.00023410
5564.60927124,0.00022576
5566.53807861,0.00023867
5568.46688599,0.00025896
5570.39569336,0.00023904
5572.32450073,0.00026630
5574.25330811,0.00033223
5576.18211548,0.00023439
5578.11092285,0.00024094
5580.03973022,0.00029896
5581.96853760,0.00020103
5583.89734497,0.00024466
5585.82615234,0.00026677
5587.75495972,0.00018898
5589.68376709,0.00018119
5591.61257446,0.00019234
5593.54138184,0.00022438
5595.47018921,0.00015315
5597.39899658,0.00015088
5599.32780395,0.00023963
5601.25661133,0.00022601
5603.18541870,0.00025558
5605.11422607,0.00023488
5607.04303345,0.00021849
5608.97184082,0.00029707
5610.90064819,0.00026575
5612.82945557,0.00022843
5614.75826294,0.00023988
5616.68707031,0.00020817
5618.61587769,0.00020636
5620.54468506,0.00020140
5622.47349243,0.00020631
5624.40229980,0.00023020
5626.33110718,0.00017104
5628.25991455,0.00015888
5630.18872192,0.00020550
5632.11752930,0.00020440
5634.04633667,0.00019711
5635.97514404,0.00022955
5637.90395142,0.00023783
5639.83275879,0.00019093
5641.76156616,0.00027411
5643.69037353,0.00029921
5645.61918091,0.00020153
5647.54798828,0.00018052
5649.47679565,0.00013684
5651.40560303,0.00019311
5653.33441040,0.00021205
5655.26321777,0.00016092
5657.19202515,0.00024595
5659.12083252,0.00024671
5661.04963989,0.00024384
5662.97844727,0.00028466
5664.90725464,0.00018523
5666.83606201,0.00011642
5668.76486938,0.00018036
5670.69367676,0.00020877
5672.62248413,0.00021865
5674.55129150,0.00016969
5676.48009888,0.00012373
5678.40890625,0.00023902
5680.33771362,0.00018027
5682.26652100,0.00008982
5684.19532837,0.00016671
5686.12413574,0.00021457
5688.05294311,0.00025248
5689.98175049,0.00021432
5691.91055786,0.00022993
5693.83936523,0.00021489
5695.76817261,0.00016564
5697.69697998,0.00021012
5699.62578735,0.00016737
5701.55459473,0.00020821
5703.48340210,0.00025994
5705.41220947,0.00017908
5707.34101685,0.00011227
5709.26982422,0.00011452
5711.19863159,0.00016701
5713.12743896,0.00017477
5715.05624634,0.00016382
5716.98505371,0.00016928
5718.91386108,0.00018845
5720.84266846,0.00018972
5722.77147583,0.00018160
5724.70028320,0.00015790
5726.62909058,0.00016741
5728.55789795,0.00020951
5730.48670532,0.00020403
5732.41551270,0.00021109
5734.34432007,0.00015321
5736.27312744,0.00015938
5738.20193481,0.00015642
5740.13074219,0.00013187
5742.05954956,0.00021405
5743.98835693,0.00013995
5745.91716431,0.00016778
5747.84597168,0.00021896
5749.77477905,0.00016771
5751.70358643,0.00019002
5753.63239380,0.00013373
5755.56120117,0.00015902
5757.49000854,0.00020698
5759.41881592,0.00023442
5761.34762329,0.00020768
5763.27643066,0.00017599
5765.20523804,0.00024973
5767.13404541,0.00019365
5769.06285278,0.00019182
5770.99166016,0.00015013
5772.92046753,0.00005807
5774.84927490,0.00015036
5776.77808228,0.00015938
5778.70688965,0.00014834
5780.63569702,0.00021855
5782.56450439,0.00020087
5784.49331177,0.00012954
5786.42211914,0.00015889
5788.35092651,0.00019134
5790.27973389,0.00014869
5792.20854126,0.00015029
5794.13734863,0.00014977
5796.06615601,0.00015181
5797.99496338,0.00016566
5799.92377075,0.00015909
5801.85257812,0.00014029
5803.78138550,0.00015804
5805.71019287,0.00019035
5807.63900024,0.00015052
5809.56780762,0.00015330
5811.49661499,0.00013688
5813.42542236,0.00010269
5815.35422974,0.00018932
5817.28303711,0.00021574
5819.21184448,0.00016746
5821.14065186,0.00016091
5823.06945923,0.00016910
5824.99826660,0.00016497
5826.92707397,0.00016257
5828.85588135,0.00014955
5830.78468872,0.00011905
5832.71349609,0.00017560
5834.64230347,0.00015670
5836.57111084,0.00007103
5838.49991821,0.00017223
5840.42872559,0.00021056
5842.35753296,0.00021016
5844.28634033,0.00024052
5846.21514770,0.00014442
5848.14395508,0.00016378
5850.07276245,0.00019084
5852.00156982,0.00012034
5853.93037720,0.00012581
5855.85918457,0.00016819
5857.78799194,0.00015154
5859.71679932,0.00009213
5861.64560669,0.00014047
5863.57441406,0.00014862
5865.50322144,0.00009684
5867.43202881,0.00010853
5869.36083618,0.00016109
5871.28964355,0.00015762
5873.21845093,0.00006309
5875.14725830,0.00014574
5877.07606567,0.00019264
5879.00487305,0.00014564
5880.93368042,0.00017031
5882.86248779,0.00010428
5884.79129517,0.00010361
5886.72010254,0.00016282
5888.64890991,0.00012625
5890.57771728,0.00005810
5892.50652466,0.00014246
5894.43533203,0.00017749
5896.36413940,0.00005734
5898.29294678,0.00011136
5900.22175415,0.00012976
5902.15056152,0.00007255
5904.07936890,0.00012362
5906.00817627,0.00015219
5907.93698364,0.00011952
5909.86579102,0.00009833
5911.79459839,0.00007143
5913.72340576,0.00007345
5915.65221313,0.00015547
5917.58102051,0.00011800
5919.50982788,0.00015113
5921.43863525,0.00020293
5923.36744263,0.00010881
5925.29625000,0.00010375
5927.22505737,0.00005691
5929.15386475,0.00010707
5931.08267212,0.00013502
5933.01147949,0.00004418
5934.94028686,0.00010905
5936.86909424,0.00015595
5938.79790161,0.00014223
5940.72670898,0.00010890
5942.65551636,0.00012415
5944.58432373,0.00011500
5946.51313110,0.00014253
5948.44193848,0.00022000
5950.37074585,0.00011949
5952.29955322,0.00011127
5954.22836060,0.00013282
5956.15716797,0.00010816
5958.08597534,0.00017668
5960.01478271,0.00013005
5961.94359009,0.00005954
5963.87239746,0.00011667
5965.80120483,0.00011332
5967.73001221,0.00008614
5969.65881958,0.00018398
5971.58762695,0.00015413
5973.51643433,0.00006988
5975.44524170,0.00010519
5977.37404907,0.00011078
5979.30285645,0.00012616
5981.23166382,0.00010592
5983.16047119,0.00009794
5985.08927856,0.00009755
5987.01808594,0.00004211
5988.94689331,0.00010985
5990.87570068,0.00013182
5992.80450806,0.00003436
5994.73331543,0.00005032
5996.66212280,0.00013076
5998.59093018,0.00019238
6000.51973755,0.00016526
