399.26312622,0.00038621
401.19193359,0.00044043
403.12074097,0.00025387
405.04954834,0.00019687
406.97835571,0.00015545
408.90716309,0.00013404
410.83597046,-0.00001971
412.76477783,0.00006245
414.69358521,0.00029035
416.62239258,0.00009846
418.55119995,0.00033228
420.48000732,0.00032559
422.40881470,0.00014885
424.33762207,0.00032670
426.26642944,0.00026100
428.19523682,0.00050427
430.12404419,0.00014764
432.05285156,-0.00004897
433.98165894,0.00051930
435.91046631,0.00003073
437.83927368,0.00008226
439.76808105,0.00048459
441.69688843,-0.00013849
443.62569580,-0.00003862
445.55450317,0.00023633
447.48331055,-0.00026300
449.41211792,0.00000678
451.34092529,0.00042238
453.26973267,0.00015496
455.19854004,0.00020087
457.12734741,-0.00003556
459.05615479,0.00027838
460.98496216,0.00063568
462.91376953,-0.00001461
464.84257690,0.00022530
466.77138428,0.00020597
468.70019165,0.00003720
470.62899902,0.00010022
472.55780640,-0.00014192
474.48661377,0.00030136
476.41542114,0.00025607
478.34422852,0.00014496
480.27303589,0.00030050
482.20184326,0.00002076
484.13065063,0.00010444
486.05945801,0.00035638
487.98826538,0.00014578
489.91707275,-0.00001878
491.84588013,0.00021262
493.77468750,0.00005722
495.70349487,-0.00008007
497.63230225,0.00029149
499.56110962,0.00018467
501.48991699,0.00022490
503.41872437,0.00036025
505.34753174,0.00002136
507.27633911,-0.00013801
509.20514648,-0.00025345
511.13395386,-0.00022485
513.06276123,0.00007999
514.99156860,0.00041218
516.92037598,0.00032733
518.84918335,-0.00000709
520.77799072,0.00007494
522.70679810,0.00020738
524.63560547,0.00039333
526.56441284,0.00025754
528.49322021,-0.00001395
530.42202759,0.00002861
532.35083496,0.00005419
534.27964233,0.00047643
536.20844971,0.00016110
538.13725708,-0.00016672
540.06606445,0.00028703
541.99487183,0.00028526
543.92367920,0.00012085
545.85248657,-0.00006843
547.78129395,0.00009641
549.71010132,0.00021516
551.63890869,0.00007919
553.56771606,-0.00001395
555.49652344,0.00000317
557.42533081,0.00031932
559.35413818,0.00024883
561.28294556,0.00019698
563.21175293,0.00011791
565.14056030,0.00020165
567.06936768,0.00051465
568.99817505,0.00005616
570.92698242,0.00011934
572.85578979,0.00012989
574.78459717,-0.00018837
576.71340454,0.00030101
578.64221191,0.00012783
580.57101929,-0.00008750
582.49982666,0.00017944
584.42863403,-0.00032927
586.35744141,-0.00003442
588.28624878,0.00037611
590.21505615,0.00000541
592.14386353,0.00015503
594.07267090,0.00001771
596.00147827,-0.00011778
597.93028564,-0.00006764
599.85909302,0.00030146
601.78790039,0.00048923
603.71670776,0.00009385
605.64551514,0.00026403
607.57432251,0.00037912
609.50312988,0.00043875
611.43193726,0.00028828
613.36074463,0.00006450
615.28955200,0.00017754
617.21835938,0.00007024
619.14716675,0.00007256
621.07597412,0.00004209
623.00478149,-0.00016401
624.93358887,-0.00004203
626.86239624,0.00031820
628.79120361,0.00008880
630.72001099,-0.00025792
632.64881836,-0.00006625
634.57762573,0.00035330
636.50643311,0.00006583
638.43524048,0.00012296
640.36404785,0.00034950
642.29285522,0.00002669
644.22166260,0.00017073
646.15046997,0.00039851
648.07927734,0.00027622
650.00808472,-0.00001732
651.93689209,0.00031313
653.86569946,0.00038658
655.79450684,0.00020609
657.72331421,0.00058933
659.65212158,0.00037191
661.58092896,0.00016298
663.50973633,0.00036396
665.43854370,0.00050174
667.36735107,0.00016848
669.29615845,0.00035703
671.22496582,0.00077539
673.15377319,0.00034431
675.08258057,0.00077688
677.01138794,0.00063036
678.94019531,0.00030968
680.86900269,0.00068944
682.79781006,0.00029944
684.72661743,0.00061388
686.65542480,0.00075811
688.58423218,0.00046869
690.51303955,0.00055901
692.44184692,0.00064833
694.37065430,0.00073664
696.29946167,0.00051237
698.22826904,0.00079274
700.15707642,0.00089637
702.08588379,0.00074628
704.01469116,0.00082765
705.94349854,0.00043234
707.87230591,0.00030797
709.80111328,0.00061515
711.72992065,0.00038323
713.65872803,-0.00010893
715.58753540,0.00013572
717.51634277,0.00010740
719.44515015,-0.00005788
721.37395752,0.00019552
723.30276489,0.00002901
725.23157227,-0.00000426
727.16037964,0.00002602
729.08918701,0.00012002
731.01799438,0.00004677
732.94680176,-0.00005360
734.87560913,0.00032385
736.80441650,0.00014705
738.73322388,0.00014273
740.66203125,0.00021035
742.59083862,-0.00005984
744.51964600,0.00002576
746.44845337,0.00016954
748.37726074,0.00023996
750.30606812,-0.00005954
752.23487549,0.00003591
754.16368286,0.00026885
756.09249023,0.00023448
758.02129761,0.00036572
759.95010498,0.00014434
761.87891235,0.00008560
763.80771973,0.00001226
765.73652710,0.00010256
767.66533447,0.00027785
769.59414185,0.00001798
771.52294922,0.00025584
773.45175659,0.00040798
775.38056396,0.00023689
777.30937134,0.00012466
779.23817871,-0.00008285
781.16698608,-0.00000724
783.09579346,0.00015304
785.02460083,0.00003979
786.95340820,0.00012685
788.88221558,0.00029083
790.81102295,0.00013807
792.73983032,0.00019175
794.66863770,0.00023967
796.59744507,0.00034999
798.52625244,0.00025105
800.45505981,0.00003763
802.38386719,0.00032352
804.31267456,0.00019002
806.24148193,0.00036025
808.17028931,0.00044963
810.09909668,0.00025311
812.02790405,0.00054277
813.95671143,0.00028687
815.88551880,0.00047373
817.81432617,0.00057741
819.74313354,0.00010209
821.67194092,0.00014946
823.60074829,0.00028560
825.52955566,0.00046742
827.45836304,0.00014196
829.38717041,0.00007948
831.31597778,0.00045276
833.24478516,0.00009013
835.17359253,0.00016142
837.10239990,0.00052399
839.03120728,0.00034365
840.96001465,0.00036146
842.88882202,0.00025962
844.81762939,0.00015854
846.74643677,0.00046207
848.67524414,0.00027345
850.60405151,0.00031386
852.53285889,0.00045705
854.46166626,-0.00001089
856.39047363,0.00022099
858.31928101,0.00031753
860.24808838,0.00013564
862.17689575,0.00054106
864.10570313,0.00031931
866.03451050,0.00022383
867.96331787,0.00050547
869.89212524,0.00013988
871.82093262,0.00023753
873.74973999,0.00043381
875.67854736,0.00021687
877.60735474,0.00041222
879.53616211,0.00040134
881.46496948,0.00024713
883.39377686,0.00028969
885.32258423,0.00020370
887.25139160,0.00029391
889.18019897,0.00046838
891.10900635,0.00032440
893.03781372,0.00023828
894.96662109,0.00028670
896.89542847,0.00015454
898.82423584,0.00022031
900.75304321,0.00040722
902.68185059,0.00046745
904.61065796,0.00035674
906.53946533,0.00043997
908.46827271,0.00051269
910.39708008,0.00010088
912.32588745,0.00036717
914.25469482,0.00050022
916.18350220,0.00015406
918.11230957,0.00032022
920.04111694,0.00018855
921.96992432,0.00027753
923.89873169,0.00048516
925.82753906,0.00034883
927.75634644,0.00044823
929.68515381,0.00046306
931.61396118,0.00028054
933.54276855,0.00030825
935.47157593,0.00065193
937.40038330,0.00064680
939.32919067,0.00052170
941.25799805,0.00055596
943.18680542,0.00056100
945.11561279,0.00056998
947.04442017,0.00054639
948.97322754,0.00058595
950.90203491,0.00029816
952.83084229,0.00036182
954.75964966,0.00064698
956.68845703,0.00061136
958.61726440,0.00054568
960.54607178,0.00036096
962.47487915,0.00051928
964.40368652,0.00051760
966.33249390,0.00064115
968.26130127,0.00075982
970.19010864,0.00052837
972.11891602,0.00065241
974.04772339,0.00057976
975.97653076,0.00059852
977.90533813,0.00057253
979.83414551,0.00066731
981.76295288,0.00089842
983.69176025,0.00079711
985.62056763,0.00098587
987.54937500,0.00099404
989.47818237,0.00091625
991.40698975,0.00097141
993.33579712,0.00105834
995.26460449,0.00102521
997.19341187,0.00119142
999.12221924,0.00144908
1001.05102661,0.00118443
1002.97983398,0.00159344
1004.90864136,0.00171784
1006.83744873,0.00146668
1008.76625610,0.00187620
1010.69506348,0.00188461
1012.62387085,0.00183006
1014.55267822,0.00199020
1016.48148560,0.00217612
1018.41029297,0.00220866
1020.33910034,0.00241865
1022.26790771,0.00253204
1024.19671509,0.00223743
1026.12552246,0.00242324
1028.05432983,0.00250622
1029.98313721,0.00258780
1031.91194458,0.00275771
1033.84075195,0.00275438
1035.76955933,0.00289733
1037.69836670,0.00298384
1039.62717407,0.00306650
1041.55598145,0.00300459
1043.48478882,0.00294268
1045.41359619,0.00290359
1047.34240356,0.00285196
1049.27121094,0.00268138
1051.20001831,0.00273761
1053.12882568,0.00298366
1055.05763306,0.00247209
1056.98644043,0.00240341
1058.91524780,0.00277140
1060.84405518,0.00254990
1062.77286255,0.00241222
1064.70166992,0.00228674
1066.63047729,0.00236287
1068.55928467,0.00256006
1070.48809204,0.00220595
1072.41689941,0.00209109
1074.34570679,0.00208473
1076.27451416,0.00177293
1078.20332153,0.00198332
1080.13212891,0.00193767
1082.06093628,0.00172527
1083.98974365,0.00176335
1085.91855103,0.00158368
1087.84735840,0.00169921
1089.77616577,0.00162863
1091.70497314,0.00165571
1093.63378052,0.00157285
1095.56258789,0.00116347
1097.49139526,0.00127427
1099.42020264,0.00130053
1101.34901001,0.00139220
1103.27781738,0.00135101
1105.20662476,0.00121146
1107.13543213,0.00135920
1109.06423950,0.00121621
1110.99304687,0.00115619
1112.92185425,0.00137502
1114.85066162,0.00135736
1116.77946899,0.00125594
1118.70827637,0.00135764
1120.63708374,0.00111513
1122.56589111,0.00115183
1124.49469849,0.00155224
1126.42350586,0.00140609
1128.35231323,0.00129479
1130.28112061,0.00141856
1132.20992798,0.00159423
1134.13873535,0.00152064
1136.06754272,0.00161430
1137.99635010,0.00171122
1139.92515747,0.00147878
1141.85396484,0.00169333
1143.78277222,0.00155012
1145.71157959,0.00163231
1147.64038696,0.00200726
1149.56919434,0.00189061
1151.49800171,0.00211550
1153.42680908,0.00204617
1155.35561646,0.00206349
1157.28442383,0.00234501
1159.21323120,0.00224216
1161.14203857,0.00237057
1163.07084595,0.00239668
1164.99965332,0.00231350
1166.92846069,0.00257696
1168.85726807,0.00272403
1170.78607544,0.00277008
1172.71488281,0.00299148
1174.64369019,0.00287305
1176.57249756,0.00288271
1178.50130493,0.00321413
1180.43011230,0.00316746
1182.35891968,0.00329511
1184.28772705,0.00348130
1186.21653442,0.00347217
1188.14534180,0.00360843
1190.07414917,0.00392800
1192.00295654,0.00423789
1193.93176392,0.00425624
1195.86057129,0.00443490
1197.78937866,0.00466552
1199.71818604,0.00478453
1201.64699341,0.00501519
1203.57580078,0.00514168
1205.50460815,0.00522417
1207.43341553,0.00548097
1209.36222290,0.00582671
1211.29103027,0.00588657
1213.21983765,0.00595622
1215.14864502,0.00617549
1217.07745239,0.00629347
1219.00625977,0.00634124
1220.93506714,0.00631427
1222.86387451,0.00645100
1224.79268188,0.00640215
1226.72148926,0.00640233
1228.65029663,0.00670534
1230.57910400,0.00662592
1232.50791138,0.00650220
1234.43671875,0.00656253
1236.36552612,0.00668774
1238.29433350,0.00666418
1240.22314087,0.00657983
1242.15194824,0.00674246
1244.08075562,0.00670103
1246.00956299,0.00670751
1247.93837036,0.00669581
1249.86717773,0.00658797
1251.79598511,0.00652041
1253.72479248,0.00631696
1255.65359985,0.00644421
1257.58240723,0.00633460
1259.51121460,0.00617403
1261.44002197,0.00629725
1263.36882935,0.00610265
1265.29763672,0.00604253
1267.22644409,0.00593524
1269.15525146,0.00585782
1271.08405884,0.00582111
1273.01286621,0.00563715
1274.94167358,0.00560689
1276.87048096,0.00545732
1278.79928833,0.00536349
1280.72809570,0.00519130
1282.65690308,0.00510330
1284.58571045,0.00516336
1286.51451782,0.00497423
1288.44332520,0.00496760
1290.37213257,0.00493722
1292.30093994,0.00476675
1294.22974731,0.00481039
1296.15855469,0.00481623
1298.08736206,0.00461645
1300.01616943,0.00466692
1301.94497681,0.00487891
1303.87378418,0.00485919
1305.80259155,0.00481194
1307.73139893,0.00486342
1309.66020630,0.00493697
1311.58901367,0.00497340
1313.51782104,0.00527261
1315.44662842,0.00539050
1317.37543579,0.00537506
1319.30424316,0.00551492
1321.23305054,0.00553408
1323.16185791,0.00592504
1325.09066528,0.00595491
1327.01947266,0.00603464
1328.94828003,0.00630900
1330.87708740,0.00619059
1332.80589478,0.00664861
1334.73470215,0.00672740
1336.66350952,0.00659628
1338.59231689,0.00657215
1340.52112427,0.00662770
1342.44993164,0.00712639
1344.37873901,0.00688568
1346.30754639,0.00687630
1348.23635376,0.00702077
1350.16516113,0.00684831
1352.09396851,0.00694597
1354.02277588,0.00673987
1355.95158325,0.00670946
1357.88039062,0.00670535
1359.80919800,0.00666533
1361.73800537,0.00640658
1363.66681274,0.00618876
1365.59562012,0.00664445
1367.52442749,0.00648984
1369.45323486,0.00641217
1371.38204224,0.00655291
1373.31084961,0.00611606
1375.23965698,0.00611615
1377.16846436,0.00631903
1379.09727173,0.00640934
1381.02607910,0.00633546
1382.95488647,0.00624445
1384.88369385,0.00636165
1386.81250122,0.00615612
1388.74130859,0.00610831
1390.67011597,0.00651599
1392.59892334,0.00648573
1394.52773071,0.00610295
1396.45653809,0.00632756
1398.38534546,0.00625427
1400.31415283,0.00625598
1402.24296021,0.00688564
1404.17176758,0.00636026
1406.10057495,0.00625202
1408.02938232,0.00655616
1409.95818970,0.00642150
1411.88699707,0.00671554
1413.81580444,0.00637851
1415.74461182,0.00643172
1417.67341919,0.00580834
1419.60222656,0.00515898
1421.53103394,0.00612095
1423.45984131,0.00594565
1425.38864868,0.00577165
1427.31745605,0.00565622
1429.24626343,0.00518743
1431.17507080,0.00540388
1433.10387817,0.00530377
1435.03268555,0.00486039
1436.96149292,0.00431913
1438.89030029,0.00474113
1440.81910767,0.00501127
1442.74791504,0.00470009
1444.67672241,0.00469857
1446.60552979,0.00434295
1448.53433716,0.00455149
1450.46314453,0.00460050
1452.39195190,0.00479077
1454.32075928,0.00494800
1456.24956665,0.00379070
1458.17837402,0.00418589
1460.10718140,0.00554325
1462.03598877,0.00562763
1463.96479614,0.00574524
1465.89360352,0.00590708
1467.82241089,0.00653836
1469.75121826,0.00714670
1471.68002563,0.00634794
1473.60883301,0.00657306
1475.53764038,0.00746986
1477.46644775,0.00787421
1479.39525513,0.00869425
1481.32406250,0.00890468
1483.25286987,0.00929421
1485.18167725,0.00954741
1487.11048462,0.00933481
1489.03929199,0.00902662
1490.96809937,0.00917136
1492.89690674,0.01093333
1494.82571411,0.01048839
1496.75452148,0.00952709
1498.68332886,0.01073833
1500.61213623,0.01086684
1502.54094360,0.01192482
1504.46975098,0.01088440
1506.39855835,0.00770506
1508.32736572,0.00990261
1510.25617310,0.01145825
1512.18498047,0.01117832
1514.11378784,0.01219379
1516.04259521,0.01078590
1517.97140259,0.01128462
1519.90020996,0.01083691
1521.82901733,0.00937944
1523.75782471,0.01156858
1525.68663208,0.01121415
1527.61543945,0.01125698
1529.54424683,0.01267469
1531.47305420,0.01204508
1533.40186157,0.01084012
1535.33066895,0.01176595
1537.25947632,0.01258881
1539.18828369,0.00868478
1541.11709106,0.00931773
1543.04589844,0.01113763
1544.97470581,0.01065432
1546.90351318,0.01292933
1548.83232056,0.01180494
1550.76112793,0.01228717
1552.68993530,0.01231031
1554.61874268,0.01104336
1556.54755005,0.01173443
1558.47635742,0.00790279
1560.40516479,0.00893046
1562.33397217,0.01293930
1564.26277954,0.01210010
1566.19158691,0.01269275
1568.12039429,0.01232574
1570.04920166,0.01088289
1571.97800903,0.01289720
1573.90681641,0.01283323
1575.83562378,0.00998750
1577.76443115,0.01149708
1579.69323853,0.01319342
1581.62204590,0.01264044
1583.55085327,0.01274141
1585.47966064,0.01254771
1587.40846802,0.01271639
1589.33727539,0.01254853
1591.26608276,0.01259048
1593.19489014,0.01248527
1595.12369751,0.01234004
1597.05250488,0.01261591
1598.98131226,0.01252289
1600.91011963,0.01265943
1602.83892700,0.01226692
1604.76773437,0.01251833
1606.69654175,0.01244137
1608.62534912,0.01222319
1610.55415649,0.01217867
1612.48296387,0.01230124
1614.41177124,0.01243566
1616.34057861,0.01013758
1618.26938599,0.01124903
1620.19819336,0.01302073
1622.12700073,0.01122166
1624.05580811,0.01137549
1625.98461548,0.01200276
1627.91342285,0.01196946
1629.84223022,0.01206335
1631.77103760,0.01277872
1633.69984497,0.01153752
1635.62865234,0.00944124
1637.55745972,0.01125863
1639.48626709,0.01249488
1641.41507446,0.01217462
1643.34388184,0.01244750
1645.27268921,0.01090654
1647.20149658,0.00957326
1649.13030396,0.01232066
1651.05911133,0.01130999
1652.98791870,0.00699907
1654.91672607,0.01014612
1656.84553345,0.01263495
1658.77434082,0.01199311
1660.70314819,0.01234894
1662.63195557,0.01111634
1664.56076294,0.01211608
1666.48957031,0.01292613
1668.41837769,0.01091444
1670.34718506,0.01086337
1672.27599243,0.01249127
1674.20479980,0.01126107
1676.13360718,0.01079175
1678.06241455,0.01256509
1679.99122192,0.01192634
1681.92002930,0.01174220
1683.84883667,0.00939067
1685.77764404,0.00947237
1687.70645142,0.01328031
1689.63525879,0.01130358
1691.56406616,0.01266540
1693.49287354,0.01275733
1695.42168091,0.00914655
1697.35048828,0.01152279
1699.27929565,0.00966706
1701.20810303,0.00893613
1703.13691040,0.01245806
1705.06571777,0.01104622
1706.99452515,0.01139545
1708.92333252,0.01247976
1710.85213989,0.01197398
1712.78094727,0.01220309
1714.70975464,0.01116720
1716.63856201,0.00991047
1718.56736938,0.00983249
1720.49617676,0.01181332
1722.42498413,0.01212635
1724.35379150,0.01148728
1726.28259888,0.01251015
1728.21140625,0.01127490
1730.14021362,0.01162644
1732.06902100,0.01108287
1733.99782837,0.00824285
1735.92663574,0.01068438
1737.85544312,0.01166732
1739.78425049,0.01048903
1741.71305786,0.01160977
1743.64186523,0.01152291
1745.57067261,0.01149335
1747.49947998,0.01154140
1749.42828735,0.01089417
1751.35709473,0.01045609
1753.28590210,0.01172526
1755.21470947,0.01213376
1757.14351685,0.01101116
1759.07232422,0.01227169
1761.00113159,0.01145325
1762.92993896,0.01125536
1764.85874634,0.01282722
1766.78755371,0.01120196
1768.71636108,0.01141157
1770.64516846,0.01127992
1772.57397583,0.01011791
1774.50278320,0.01149398
1776.43159058,0.01209768
1778.36039795,0.01188763
1780.28920532,0.01167669
1782.21801270,0.01184541
1784.14682007,0.01185295
1786.07562744,0.01154163
1788.00443481,0.01233987
1789.93324219,0.01202730
1791.86204956,0.01069070
1793.79085693,0.01115695
1795.71966431,0.01191041
1797.64847168,0.01179324
1799.57727905,0.01166994
1801.50608643,0.01137150
1803.43489380,0.01180954
1805.36370117,0.01202248
1807.29250854,0.01183313
1809.22131592,0.01191334
1811.15012329,0.01158961
1813.07893066,0.01196149
1815.00773804,0.01194993
1816.93654541,0.01184360
1818.86535278,0.01187694
1820.79416016,0.01198990
1822.72296753,0.01216860
1824.65177490,0.01111168
1826.58058228,0.01174981
1828.50938965,0.01163765
1830.43819702,0.01078460
1832.36700439,0.01201606
1834.29581177,0.01189895
1836.22461914,0.01173023
1838.15342651,0.01167759
1840.08223389,0.01193421
1842.01104126,0.01176182
1843.93984863,0.01027402
1845.86865601,0.01118905
1847.79746338,0.01181307
1849.72627075,0.01148518
1851.65507812,0.01185288
1853.58388550,0.01174316
1855.51269287,0.01181432
1857.44150024,0.01161029
1859.37030762,0.01152530
1861.29911499,0.01168276
1863.22792236,0.01155013
1865.15672974,0.01157641
1867.08553711,0.01124032
1869.01434448,0.01063180
1870.94315186,0.01115676
1872.87195923,0.01176975
1874.80076660,0.01138972
1876.72957397,0.01150983
1878.65838135,0.01146387
1880.58718872,0.01138106
1882.51599609,0.01149096
1884.44480347,0.01119342
1886.37361084,0.01138599
1888.30241821,0.01106649
1890.23122559,0.01095609
1892.16003296,0.01147403
1894.08884033,0.01122427
1896.01764771,0.01113269
1897.94645508,0.01127230
1899.87526245,0.01134907
1901.80406982,0.01128285
1903.73287720,0.01115167
1905.66168457,0.01122364
1907.59049194,0.01097048
1909.51929932,0.01101709
1911.44810669,0.01111935
1913.37691406,0.01105853
1915.30572144,0.01120634
1917.23452881,0.01062584
1919.16333618,0.01061661
1921.09214355,0.01109005
1923.02095093,0.01077761
1924.94975830,0.01093272
1926.87856567,0.01100105
1928.80737305,0.01095313
1930.73618042,0.01102382
1932.66498779,0.01078669
1934.59379517,0.01090124
1936.52260254,0.01090938
1938.45140991,0.01095796
1940.38021729,0.01087272
1942.30902466,0.01053925
1944.23783203,0.01070378
1946.16663940,0.01081784
1948.09544678,0.01074313
1950.02425415,0.01076521
1951.95306152,0.01078632
1953.88186890,0.01065891
1955.81067627,0.01067432
1957.73948364,0.01077132
1959.66829102,0.01069528
1961.59709839,0.01074948
1963.52590576,0.01077929
1965.45471313,0.01068866
1967.38352051,0.01054074
1969.31232788,0.01056182
1971.24113525,0.01062934
1973.16994263,0.01065700
1975.09875000,0.01072185
1977.02755737,0.01062411
1978.95636475,0.01066960
1980.88517212,0.01064053
1982.81397949,0.01062101
1984.74278687,0.01059329
1986.67159424,0.01045444
1988.60040161,0.01062490
1990.52920898,0.01042955
1992.45801636,0.01017349
1994.38682373,0.01040609
1996.31563110,0.01046669
1998.24443848,0.01032949
2000.17324585,0.01028491
2002.10205322,0.01029462
2004.03086060,0.01020719
2005.95966797,0.01022619
2007.88847534,0.01037283
2009.81728271,0.01025261
2011.74609009,0.01012426
2013.67489746,0.01018021
2015.60370483,0.01008022
2017.53251221,0.00998989
2019.46131958,0.01001751
2021.39012695,0.01010469
2023.31893433,0.01008004
2025.24774170,0.00999614
2027.17654907,0.01010417
2029.10535645,0.00991007
2031.03416382,0.00986240
2032.96297119,0.00994304
2034.89177856,0.00979179
2036.82058594,0.00986671
2038.74939331,0.00972734
2040.67820068,0.00976677
2042.60700806,0.00980638
2044.53581543,0.00972718
2046.46462280,0.00989133
2048.39343018,0.00964699
2050.32223755,0.00970214
2052.25104492,0.00978456
2054.17985229,0.00956308
2056.10865967,0.00972701
2058.03746704,0.00970577
2059.96627441,0.00947288
2061.89508179,0.00948142
2063.82388916,0.00954996
2065.75269653,0.00936022
2067.68150391,0.00936838
2069.61031128,0.00951841
2071.53911865,0.00945936
2073.46792603,0.00947848
2075.39673340,0.00935096
2077.32554077,0.00933654
2079.25434814,0.00936917
2081.18315552,0.00924755
2083.11196289,0.00932504
2085.04077026,0.00928287
2086.96957764,0.00921633
2088.89838501,0.00929368
2090.82719238,0.00922020
2092.75599976,0.00915196
2094.68480713,0.00920101
2096.61361450,0.00913366
2098.54242187,0.00912732
2100.47122925,0.00923478
2102.40003662,0.00909869
2104.32884399,0.00901920
2106.25765137,0.00911444
2108.18645874,0.00904926
2110.11526611,0.00906746
2112.04407349,0.00907683
2113.97288086,0.00890056
2115.90168823,0.00893762
2117.83049561,0.00892513
2119.75930298,0.00890135
2121.68811035,0.00893790
2123.61691772,0.00877406
2125.54572510,0.00894585
2127.47453247,0.00893839
2129.40333984,0.00877476
2131.33214722,0.00896545
2133.26095459,0.00888036
2135.18976196,0.00884698
2137.11856934,0.00881590
2139.04737671,0.00868964
2140.97618408,0.00869311
2142.90499146,0.00872898
2144.83379883,0.00882357
2146.76260620,0.00867348
2148.69141357,0.00870043
2150.62022095,0.00875343
2152.54902832,0.00870137
2154.47783569,0.00874082
2156.40664307,0.00853066
2158.33545044,0.00857671
2160.26425781,0.00866607
2162.19306519,0.00875666
2164.12187256,0.00879993
2166.05067993,0.00851598
2167.97948730,0.00857153
2169.90829468,0.00860146
2171.83710205,0.00858543
2173.76590942,0.00856772
2175.69471680,0.00842251
2177.62352417,0.00853613
2179.55233154,0.00857032
2181.48113892,0.00856807
2183.40994629,0.00844472
2185.33875366,0.00831310
2187.26756104,0.00841876
2189.19636841,0.00840265
2191.12517578,0.00832480
2193.05398315,0.00837959
2194.98279053,0.00851420
2196.91159790,0.00833589
2198.84040527,0.00829209
2200.76921265,0.00840138
2202.69802002,0.00821584
2204.62682739,0.00832653
2206.55563477,0.00831283
2208.48444214,0.00823040
2210.41324951,0.00840334
2212.34205688,0.00828795
2214.27086426,0.00826826
2216.19967163,0.00831354
2218.12847900,0.00818790
2220.05728638,0.00820366
2221.98609375,0.00821222
2223.91490112,0.00813050
2225.84370850,0.00810154
2227.77251587,0.00797490
2229.70132324,0.00788262
2231.63013062,0.00800966
2233.55893799,0.00809530
2235.48774536,0.00814793
2237.41655273,0.00812587
2239.34536011,0.00800723
2241.27416748,0.00802314
2243.20297485,0.00803338
2245.13178223,0.00791454
2247.06058960,0.00798431
2248.98939697,0.00813356
2250.91820435,0.00801594
2252.84701172,0.00793582
2254.77581909,0.00792623
2256.70462646,0.00794394
2258.63343384,0.00792937
2260.56224121,0.00787425
2262.49104858,0.00801872
2264.41985596,0.00792856
2266.34866333,0.00772951
2268.27747070,0.00774107
2270.20627808,0.00783487
2272.13508545,0.00790832
2274.06389282,0.00785195
2275.99270020,0.00785722
2277.92150757,0.00776826
2279.85031494,0.00771397
2281.77912231,0.00773841
2283.70792969,0.00769133
2285.63673706,0.00771749
2287.56554443,0.00763697
2289.49435181,0.00768891
2291.42315918,0.00775986
2293.35196655,0.00760857
2295.28077393,0.00758804
2297.20958130,0.00758578
2299.13838867,0.00748676
2301.06719604,0.00742018
2302.99600342,0.00737597
2304.92481079,0.00741932
2306.85361816,0.00741959
2308.78242554,0.00732025
2310.71123291,0.00730355
2312.64004028,0.00714769
2314.56884766,0.00711808
2316.49765503,0.00716706
2318.42646240,0.00695559
2320.35526978,0.00688540
2322.28407715,0.00675541
2324.21288452,0.00673307
2326.14169189,0.00671654
2328.07049927,0.00651671
2329.99930664,0.00653214
2331.92811401,0.00644159
2333.85692139,0.00643045
2335.78572876,0.00643781
2337.71453613,0.00644533
2339.64334351,0.00639369
2341.57215088,0.00618876
2343.50095825,0.00650715
2345.42976562,0.00670356
2347.35857300,0.00675727
2349.28738037,0.00701442
2351.21618774,0.00676759
2353.14499512,0.00638983
2355.07380249,0.00630188
2357.00260986,0.00618584
2358.93141724,0.00601406
2360.86022461,0.00591159
2362.78903198,0.00576841
2364.71783936,0.00586476
2366.64664673,0.00605549
2368.57545410,0.00606636
2370.50426147,0.00630058
2372.43306885,0.00648362
2374.36187622,0.00655007
2376.29068359,0.00665914
2378.21949097,0.00678236
2380.14829834,0.00691213
2382.07710571,0.00692299
2384.00591309,0.00703963
2385.93472046,0.00705725
2387.86352783,0.00701413
2389.79233521,0.00708738
2391.72114258,0.00702978
2393.64994995,0.00697346
2395.57875732,0.00690681
2397.50756470,0.00690620
2399.43637207,0.00693633
2401.36517944,0.00688510
2403.29398682,0.00694353
2405.22279419,0.00688327
2407.15160156,0.00679294
2409.08040894,0.00685761
2411.00921631,0.00684773
2412.93802368,0.00688267
2414.86683105,0.00686049
2416.79563843,0.00672238
2418.72444580,0.00680264
2420.65325317,0.00690431
2422.58206055,0.00678734
2424.51086792,0.00667512
2426.43967529,0.00668365
2428.36848267,0.00669442
2430.29729004,0.00674391
2432.22609741,0.00678495
2434.15490479,0.00668924
2436.08371216,0.00667950
2438.01251953,0.00672048
2439.94132690,0.00667744
2441.87013428,0.00669478
2443.79894165,0.00671775
2445.72774902,0.00661271
2447.65655640,0.00654971
2449.58536377,0.00662766
2451.51417114,0.00651881
2453.44297852,0.00648897
2455.37178589,0.00664705
2457.30059326,0.00656161
2459.22940063,0.00658144
2461.15820801,0.00654547
2463.08701538,0.00648909
2465.01582275,0.00664946
2466.94463013,0.00646214
2468.87343750,0.00641404
2470.80224487,0.00643524
2472.73105225,0.00636581
2474.65985962,0.00652314
2476.58866699,0.00638943
2478.51747437,0.00647494
2480.44628174,0.00651322
2482.37508911,0.00637925
2484.30389648,0.00659157
2486.23270386,0.00636433
2488.16151123,0.00626544
2490.09031860,0.00640627
2492.01912598,0.00632736
2493.94793335,0.00638953
2495.87674072,0.00633059
2497.80554810,0.00625003
2499.73435547,0.00626199
2501.66316284,0.00636314
2503.59197021,0.00633381
2505.52077759,0.00618724
2507.44958496,0.00616586
2509.37839233,0.00606397
2511.30719971,0.00609598
2513.23600708,0.00618600
2515.16481445,0.00620021
2517.09362183,0.00620138
2519.02242920,0.00622878
2520.95123657,0.00619862
2522.88004395,0.00606457
2524.80885132,0.00610626
2526.73765869,0.00613802
2528.66646606,0.00615149
2530.59527344,0.00612971
2532.52408081,0.00606165
2534.45288818,0.00610919
2536.38169556,0.00616167
2538.31050293,0.00608213
2540.23931030,0.00597160
2542.16811768,0.00610292
2544.09692505,0.00602812
2546.02573242,0.00593304
2547.95453979,0.00604891
2549.88334717,0.00601991
2551.81215454,0.00603749
2553.74096191,0.00595807
2555.66976929,0.00595967
2557.59857666,0.00595857
2559.52738403,0.00586521
2561.45619141,0.00596352
2563.38499878,0.00594311
2565.31380615,0.00592781
2567.24261353,0.00595395
2569.17142090,0.00576530
2571.10022827,0.00574119
2573.02903564,0.00598051
2574.95784302,0.00580035
2576.88665039,0.00564452
2578.81545776,0.00584778
2580.74426514,0.00578659
2582.67307251,0.00574060
2584.60187988,0.00573892
2586.53068726,0.00575289
2588.45949463,0.00571306
2590.38830200,0.00564876
2592.31710937,0.00572281
2594.24591675,0.00563885
2596.17472412,0.00571741
2598.10353149,0.00581886
2600.03233887,0.00573893
2601.96114624,0.00564216
2603.88995361,0.00560351
2605.81876099,0.00568696
2607.74756836,0.00568558
2609.67637573,0.00564895
2611.60518311,0.00565001
2613.53399048,0.00569958
2615.46279785,0.00566492
2617.39160522,0.00565522
2619.32041260,0.00555716
2621.24921997,0.00549118
2623.17802734,0.00566323
2625.10683472,0.00556687
2627.03564209,0.00556479
2628.96444946,0.00558284
2630.89325684,0.00556742
2632.82206421,0.00557740
2634.75087158,0.00545298
2636.67967895,0.00555743
2638.60848633,0.00541768
2640.53729370,0.00544569
2642.46610107,0.00561462
2644.39490845,0.00538993
2646.32371582,0.00542510
2648.25252319,0.00550060
2650.18133057,0.00539993
2652.11013794,0.00533315
2654.03894531,0.00533901
2655.96775269,0.00537906
2657.89656006,0.00542136
2659.82536743,0.00540085
2661.75417480,0.00530429
2663.68298218,0.00532340
2665.61178955,0.00540505
2667.54059692,0.00540997
2669.46940430,0.00533621
2671.39821167,0.00532119
2673.32701904,0.00522142
2675.25582642,0.00521305
2677.18463379,0.00526934
2679.11344116,0.00523178
2681.04224854,0.00533763
2682.97105591,0.00522559
2684.89986328,0.00517313
2686.82867065,0.00522850
2688.75747803,0.00517760
2690.68628540,0.00520607
2692.61509277,0.00516962
2694.54390015,0.00519574
2696.47270752,0.00509149
2698.40151489,0.00501224
2700.33032227,0.00508942
2702.25912964,0.00508479
2704.18793701,0.00506956
2706.11674438,0.00505357
2708.04555176,0.00513214
2709.97435913,0.00518089
2711.90316650,0.00506537
2713.83197388,0.00499062
2715.76078125,0.00508790
2717.68958862,0.00498042
2719.61839600,0.00499940
2721.54720337,0.00513079
2723.47601074,0.00495778
2725.40481812,0.00504963
2727.33362549,0.00497761
2729.26243286,0.00493816
2731.19124023,0.00510011
2733.12004761,0.00499362
2735.04885498,0.00501483
2736.97766235,0.00494668
2738.90646973,0.00493418
2740.83527710,0.00496531
2742.76408447,0.00497661
2744.69289185,0.00497051
2746.62169922,0.00481603
2748.55050659,0.00488116
2750.47931396,0.00482581
2752.40812134,0.00482446
2754.33692871,0.00497262
2756.26573608,0.00485195
2758.19454346,0.00477342
2760.12335083,0.00487102
2762.05215820,0.00485715
2763.98096558,0.00481057
2765.90977295,0.00494359
2767.83858032,0.00487856
2769.76738770,0.00473445
2771.69619507,0.00476171
2773.62500244,0.00467590
2775.55380981,0.00453515
2777.48261719,0.00464294
2779.41142456,0.00478245
2781.34023193,0.00467080
2783.26903931,0.00465413
2785.19784668,0.00470049
2787.12665405,0.00469082
2789.05546143,0.00464963
2790.98426880,0.00461952
2792.91307617,0.00460872
2794.84188354,0.00463555
2796.77069092,0.00464968
2798.69949829,0.00443476
2800.62830566,0.00452687
2802.55711304,0.00459166
2804.48592041,0.00454540
2806.41472778,0.00466308
2808.34353516,0.00447553
2810.27234253,0.00454764
2812.20114990,0.00457759
2814.12995728,0.00444818
2816.05876465,0.00451201
2817.98757202,0.00447136
2819.91637939,0.00450653
2821.84518677,0.00445960
2823.77399414,0.00441083
2825.70280151,0.00441514
2827.63160889,0.00438581
2829.56041626,0.00433830
2831.48922363,0.00433788
2833.41803101,0.00439794
2835.34683838,0.00439680
2837.27564575,0.00443239
2839.20445312,0.00434340
2841.13326050,0.00437806
2843.06206787,0.00435682
2844.99087524,0.00422909
2846.91968262,0.00430016
2848.84848999,0.00431385
2850.77729736,0.00436790
2852.70610474,0.00422151
2854.63491211,0.00418298
2856.56371948,0.00428679
2858.49252686,0.00418520
2860.42133423,0.00426585
2862.35014160,0.00425108
2864.27894897,0.00417771
2866.20775635,0.00422643
2868.13656372,0.00424698
2870.06537109,0.00421135
2871.99417847,0.00418292
2873.92298584,0.00418265
2875.85179321,0.00405774
2877.78060059,0.00409858
2879.70940796,0.00423524
2881.63821533,0.00415509
2883.56702270,0.00406849
2885.49583008,0.00407135
2887.42463745,0.00404926
2889.35344482,0.00406849
2891.28225220,0.00407658
2893.21105957,0.00404816
2895.13986694,0.00408222
2897.06867432,0.00401559
2898.99748169,0.00406410
2900.92628906,0.00410775
2902.85509644,0.00390230
2904.78390381,0.00390984
2906.71271118,0.00403690
2908.64151855,0.00402731
2910.57032593,0.00400417
2912.49913330,0.00395202
2914.42794067,0.00394566
2916.35674805,0.00402574
2918.28555542,0.00398822
2920.21436279,0.00397246
2922.14317017,0.00396935
2924.07197754,0.00383521
2926.00078491,0.00390070
2927.92959229,0.00405608
2929.85839966,0.00399725
2931.78720703,0.00388402
2933.71601440,0.00392723
2935.64482178,0.00389271
2937.57362915,0.00386637
2939.50243652,0.00392340
2941.43124390,0.00377227
2943.36005127,0.00384049
2945.28885864,0.00388896
2947.21766602,0.00375189
2949.14647339,0.00379750
2951.07528076,0.00381960
2953.00408813,0.00379438
2954.93289551,0.00372459
2956.86170288,0.00379898
2958.79051025,0.00379513
2960.71931763,0.00376555
2962.64812500,0.00384980
2964.57693237,0.00367346
2966.50573975,0.00370429
2968.43454712,0.00375574
2970.36335449,0.00369952
2972.29216187,0.00380162
2974.22096924,0.00367728
2976.14977661,0.00366401
2978.07858398,0.00375904
2980.00739136,0.00361431
2981.93619873,0.00366383
2983.86500610,0.00381526
2985.79381348,0.00379020
2987.72262085,0.00370050
2989.65142822,0.00357395
2991.58023560,0.00365834
2993.50904297,0.00368170
2995.43785034,0.00366319
2997.36665771,0.00373637
2999.29546509,0.00357422
3001.22427246,0.00362878
3003.15307983,0.00359653
3005.08188721,0.00355280
3007.01069458,0.00367037
3008.93950195,0.00349460
3010.86830933,0.00357320
3012.79711670,0.00362988
3014.72592407,0.00362394
3016.65473145,0.00361698
3018.58353882,0.00350088
3020.51234619,0.00358684
3022.44115356,0.00351296
3024.36996094,0.00356805
3026.29876831,0.00360379
3028.22757568,0.00347289
3030.15638306,0.00351657
3032.08519043,0.00351433
3034.01399780,0.00349394
3035.94280518,0.00343577
3037.87161255,0.00341104
3039.80041992,0.00337226
3041.72922729,0.00341768
3043.65803467,0.00344791
3045.58684204,0.00334172
3047.51564941,0.00342986
3049.44445679,0.00342190
3051.37326416,0.00336720
3053.30207153,0.00336238
3055.23087891,0.00336944
3057.15968628,0.00338873
3059.08849365,0.00325476
3061.01730103,0.00328185
3062.94610840,0.00331606
3064.87491577,0.00333649
3066.80372314,0.00343224
3068.73253052,0.00332201
3070.66133789,0.00336891
3072.59014526,0.00345783
3074.51895264,0.00330505
3076.44776001,0.00328171
3078.37656738,0.00330988
3080.30537476,0.00333058
3082.23418213,0.00330857
3084.16298950,0.00316942
3086.09179687,0.00329968
3088.02060425,0.00333791
3089.94941162,0.00313359
3091.87821899,0.00326458
3093.80702637,0.00332023
3095.73583374,0.00317205
3097.66464111,0.00324817
3099.59344849,0.00324910
3101.52225586,0.00312913
3103.45106323,0.00314708
3105.37987061,0.00322258
3107.30867798,0.00322356
3109.23748535,0.00312151
3111.16629272,0.00316525
3113.09510010,0.00322864
3115.02390747,0.00312201
3116.95271484,0.00312773
3118.88152222,0.00306683
3120.81032959,0.00297340
3122.73913696,0.00305510
3124.66794434,0.00311055
3126.59675171,0.00307525
3128.52555908,0.00304208
3130.45436645,0.00308788
3132.38317383,0.00303116
3134.31198120,0.00300527
3136.24078857,0.00305410
3138.16959595,0.00301101
3140.09840332,0.00297537
3142.02721069,0.00295246
3143.95601807,0.00301642
3145.88482544,0.00296641
3147.81363281,0.00293943
3149.74244019,0.00295781
3151.67124756,0.00288213
3153.60005493,0.00305023
3155.52886230,0.00302676
3157.45766968,0.00287674
3159.38647705,0.00286723
3161.31528442,0.00277487
3163.24409180,0.00282996
3165.17289917,0.00282749
3167.10170654,0.00280085
3169.03051392,0.00290116
3170.95932129,0.00286593
3172.88812866,0.00280924
3174.81693604,0.00279806
3176.74574341,0.00280663
3178.67455078,0.00284766
3180.60335815,0.00277255
3182.53216553,0.00269020
3184.46097290,0.00279280
3186.38978027,0.00277664
3188.31858765,0.00265726
3190.24739502,0.00275775
3192.17620239,0.00280433
3194.10500977,0.00271471
3196.03381714,0.00271862
3197.96262451,0.00274272
3199.89143188,0.00274733
3201.82023926,0.00273351
3203.74904663,0.00262386
3205.67785400,0.00258642
3207.60666138,0.00269357
3209.53546875,0.00261980
3211.46427612,0.00255364
3213.39308350,0.00270058
3215.32189087,0.00266993
3217.25069824,0.00263511
3219.17950562,0.00264434
3221.10831299,0.00259042
3223.03712036,0.00264586
3224.96592773,0.00255252
3226.89473511,0.00261224
3228.82354248,0.00274076
3230.75234985,0.00259082
3232.68115723,0.00262740
3234.60996460,0.00260540
3236.53877197,0.00251798
3238.46757935,0.00258558
3240.39638672,0.00261033
3242.32519409,0.00261492
3244.25400146,0.00250344
3246.18280884,0.00245470
3248.11161621,0.00255186
3250.04042358,0.00258509
3251.96923096,0.00250527
3253.89803833,0.00248549
3255.82684570,0.00253002
3257.75565308,0.00248654
3259.68446045,0.00253733
3261.61326782,0.00257577
3263.54207520,0.00256629
3265.47088257,0.00257456
3267.39968994,0.00250724
3269.32849731,0.00255526
3271.25730469,0.00261113
3273.18611206,0.00251667
3275.11491943,0.00245914
3277.04372681,0.00246233
3278.97253418,0.00245697
3280.90134155,0.00247421
3282.83014893,0.00247473
3284.75895630,0.00248494
3286.68776367,0.00242922
3288.61657104,0.00237731
3290.54537842,0.00246915
3292.47418579,0.00246159
3294.40299316,0.00248781
3296.33180054,0.00253318
3298.26060791,0.00248273
3300.18941528,0.00247600
3302.11822266,0.00249992
3304.04703003,0.00253663
3305.97583740,0.00240486
3307.90464478,0.00240592
3309.83345215,0.00251253
3311.76225952,0.00246258
3313.69106689,0.00249292
3315.61987427,0.00245706
3317.54868164,0.00243574
3319.47748901,0.00245006
3321.40629639,0.00238954
3323.33510376,0.00238627
3325.26391113,0.00241274
3327.19271851,0.00242044
3329.12152588,0.00242860
3331.05033325,0.00237276
3332.97914062,0.00229593
3334.90794800,0.00243448
3336.83675537,0.00241450
3338.76556274,0.00230254
3340.69437012,0.00237359
3342.62317749,0.00236344
3344.55198486,0.00241530
3346.48079224,0.00234684
3348.40959961,0.00229518
3350.33840698,0.00239047
3352.26721436,0.00238151
3354.19602173,0.00237307
3356.12482910,0.00226772
3358.05363647,0.00232027
3359.98244385,0.00245655
3361.91125122,0.00235553
3363.84005859,0.00230961
3365.76886597,0.00232497
3367.69767334,0.00228515
3369.62648071,0.00228611
3371.55528809,0.00229065
3373.48409546,0.00234470
3375.41290283,0.00239241
3377.34171020,0.00232756
3379.27051758,0.00237405
3381.19932495,0.00232381
3383.12813232,0.00227603
3385.05693970,0.00230537
3386.98574707,0.00221376
3388.91455444,0.00236746
3390.84336182,0.00235903
3392.77216919,0.00226773
3394.70097656,0.00227909
3396.62978394,0.00218654
3398.55859131,0.00226852
3400.48739868,0.00220269
3402.41620605,0.00225694
3404.34501343,0.00231677
3406.27382080,0.00216545
3408.20262817,0.00222241
3410.13143555,0.00219669
3412.06024292,0.00221544
3413.98905029,0.00221090
3415.91785767,0.00217405
3417.84666504,0.00226843
3419.77547241,0.00224215
3421.70427979,0.00220678
3423.63308716,0.00216191
3425.56189453,0.00217447
3427.49070190,0.00222409
3429.41950928,0.00216456
3431.34831665,0.00211754
3433.27712402,0.00216713
3435.20593140,0.00217167
3437.13473877,0.00208893
3439.06354614,0.00212931
3440.99235352,0.00213935
3442.92116089,0.00213084
3444.84996826,0.00221291
3446.77877563,0.00212790
3448.70758301,0.00208773
3450.63639038,0.00219548
3452.56519775,0.00210116
3454.49400513,0.00210206
3456.42281250,0.00220246
3458.35161987,0.00206207
3460.28042725,0.00207386
3462.20923462,0.00210545
3464.13804199,0.00206279
3466.06684937,0.00206787
3467.99565674,0.00206150
3469.92446411,0.00222270
3471.85327148,0.00210874
3473.78207886,0.00201193
3475.71088623,0.00213131
3477.63969360,0.00201345
3479.56850098,0.00202889
3481.49730835,0.00202344
3483.42611572,0.00205977
3485.35492310,0.00213931
3487.28373047,0.00200230
3489.21253784,0.00204511
3491.14134521,0.00198998
3493.07015259,0.00197561
3494.99895996,0.00211412
3496.92776733,0.00207669
3498.85657471,0.00219027
3500.78538208,0.00217310
3502.71418945,0.00207041
3504.64299683,0.00209044
3506.57180420,0.00198708
3508.50061157,0.00202096
3510.42941895,0.00207382
3512.35822632,0.00208957
3514.28703369,0.00204687
3516.21584106,0.00200425
3518.14464844,0.00210028
3520.07345581,0.00199410
3522.00226318,0.00199832
3523.93107056,0.00204094
3525.85987793,0.00202654
3527.78868530,0.00211835
3529.71749268,0.00198768
3531.64630005,0.00199170
3533.57510742,0.00204859
3535.50391479,0.00203036
3537.43272217,0.00206941
3539.36152954,0.00197192
3541.29033691,0.00203922
3543.21914429,0.00213276
3545.14795166,0.00192086
3547.07675903,0.00177498
3549.00556641,0.00199915
3550.93437378,0.00204152
3552.86318115,0.00186731
3554.79198853,0.00198866
3556.72079590,0.00201077
3558.64960327,0.00194803
3560.57841064,0.00201370
3562.50721802,0.00198614
3564.43602539,0.00188904
3566.36483276,0.00178798
3568.29364014,0.00181359
3570.22244751,0.00198046
3572.15125488,0.00198338
3574.08006226,0.00190628
3576.00886963,0.00198810
3577.93767700,0.00197186
3579.86648437,0.00199330
3581.79529175,0.00204675
3583.72409912,0.00200243
3585.65290649,0.00188459
3587.58171387,0.00164918
3589.51052124,0.00185662
3591.43932861,0.00208475
3593.36813599,0.00190507
3595.29694336,0.00185888
3597.22575073,0.00191632
3599.15455811,0.00187035
3601.08336548,0.00184334
3603.01217285,0.00199007
3604.94098022,0.00199947
3606.86978760,0.00187225
3608.79859497,0.00169508
3610.72740234,0.00175463
3612.65620972,0.00187485
3614.58501709,0.00171550
3616.51382446,0.00191931
3618.44263184,0.00179970
3620.37143921,0.00171818
3622.30024658,0.00196485
3624.22905395,0.00184879
3626.15786133,0.00194673
3628.08666870,0.00155183
3630.01547607,0.00145531
3631.94428345,0.00201625
3633.87309082,0.00195183
3635.80189819,0.00189162
3637.73070557,0.00193189
3639.65951294,0.00194239
3641.58832031,0.00193457
3643.51712769,0.00192020
3645.44593506,0.00186910
3647.37474243,0.00171760
3649.30354980,0.00150382
3651.23235718,0.00149746
3653.16116455,0.00200902
3655.08997192,0.00181690
3657.01877930,0.00164962
3658.94758667,0.00202285
3660.87639404,0.00190995
3662.80520142,0.00194638
3664.73400879,0.00187976
3666.66281616,0.00197066
3668.59162354,0.00191767
3670.52043091,0.00151814
3672.44923828,0.00181647
3674.37804565,0.00161700
3676.30685303,0.00130808
3678.23566040,0.00172921
3680.16446777,0.00184894
3682.09327515,0.00178371
3684.02208252,0.00189130
3685.95088989,0.00193364
3687.87969727,0.00165416
3689.80850464,0.00159525
3691.73731201,0.00181280
3693.66611938,0.00180853
3695.59492676,0.00184935
3697.52373413,0.00187171
3699.45254150,0.00186004
3701.38134888,0.00173862
3703.31015625,0.00170178
3705.23896362,0.00188808
3707.16777100,0.00176235
3709.09657837,0.00169537
3711.02538574,0.00160249
3712.95419312,0.00152082
3714.88300049,0.00177344
3716.81180786,0.00176468
3718.74061523,0.00173225
3720.66942261,0.00173444
3722.59822998,0.00174828
3724.52703735,0.00171088
3726.45584473,0.00153360
3728.38465210,0.00173142
3730.31345947,0.00175761
3732.24226685,0.00160540
3734.17107422,0.00159835
3736.09988159,0.00153373
3738.02868896,0.00153430
3739.95749634,0.00165580
3741.88630371,0.00175241
3743.81511108,0.00133225
3745.74391846,0.00129048
3747.67272583,0.00170459
3749.60153320,0.00136094
3751.53034058,0.00119903
3753.45914795,0.00149385
3755.38795532,0.00159423
3757.31676270,0.00164723
3759.24557007,0.00158033
3761.17437744,0.00164367
3763.10318481,0.00169924
3765.03199219,0.00159958
3766.96079956,0.00170105
3768.88960693,0.00159733
3770.81841431,0.00159063
3772.74722168,0.00178076
3774.67602905,0.00168501
3776.60483643,0.00173118
3778.53364380,0.00160595
3780.46245117,0.00154501
3782.39125854,0.00170656
3784.32006592,0.00165803
3786.24887329,0.00168223
3788.17768066,0.00162888
3790.10648804,0.00165410
3792.03529541,0.00162286
3793.96410278,0.00161368
3795.89291016,0.00156147
3797.82171753,0.00158891
3799.75052490,0.00167209
3801.67933228,0.00121753
3803.60813965,0.00156443
3805.53694702,0.00161745
3807.46575439,0.00131318
3809.39456177,0.00170601
3811.32336914,0.00148807
3813.25217651,0.00172087
3815.18098389,0.00146478
3817.10979126,0.00115458
3819.03859863,0.00166624
3820.96740601,0.00123068
3822.89621338,0.00137054
3824.82502075,0.00165233
3826.75382812,0.00147521
3828.68263550,0.00157553
3830.61144287,0.00145280
3832.54025024,0.00148581
3834.46905762,0.00151636
3836.39786499,0.00145833
3838.32667236,0.00134299
3840.25547974,0.00146840
3842.18428711,0.00154574
3844.11309448,0.00134259
3846.04190186,0.00152843
3847.97070923,0.00156805
3849.89951660,0.00151922
3851.82832397,0.00138276
3853.75713135,0.00096950
3855.68593872,0.00115361
3857.61474609,0.00156837
3859.54355347,0.00153657
3861.47236084,0.00159009
3863.40116821,0.00151739
3865.32997559,0.00133306
3867.25878296,0.00149397
3869.18759033,0.00130943
3871.11639770,0.00130124
3873.04520508,0.00149578
3874.97401245,0.00130621
3876.90281982,0.00145930
3878.83162720,0.00143874
3880.76043457,0.00129290
3882.68924194,0.00154360
3884.61804932,0.00140068
3886.54685669,0.00117985
3888.47566406,0.00148531
3890.40447144,0.00145763
3892.33327881,0.00125893
3894.26208618,0.00147644
3896.19089355,0.00140828
3898.11970093,0.00130022
3900.04850830,0.00129145
3901.97731567,0.00128010
3903.90612305,0.00134427
3905.83493042,0.00126997
3907.76373779,0.00140737
3909.69254517,0.00140597
3911.62135254,0.00136677
3913.55015991,0.00148930
3915.47896728,0.00144259
3917.40777466,0.00140182
3919.33658203,0.00129889
3921.26538940,0.00135958
3923.19419678,0.00142212
3925.12300415,0.00141062
3927.05181152,0.00149671
3928.98061890,0.00142422
3930.90942627,0.00139045
3932.83823364,0.00134398
3934.76704102,0.00132666
3936.69584839,0.00136438
3938.62465576,0.00130104
3940.55346313,0.00136698
3942.48227051,0.00139813
3944.41107788,0.00137026
3946.33988525,0.00137797
3948.26869263,0.00133188
3950.19750000,0.00137467
3952.12630737,0.00134540
3954.05511475,0.00133832
3955.98392212,0.00142227
3957.91272949,0.00134221
3959.84153687,0.00135070
3961.77034424,0.00135500
3963.69915161,0.00132657
3965.62795898,0.00137583
3967.55676636,0.00134904
3969.48557373,0.00138070
3971.41438110,0.00141671
3973.34318848,0.00142692
3975.27199585,0.00134965
3977.20080322,0.00133379
3979.12961060,0.00138710
3981.05841797,0.00129846
3982.98722534,0.00134392
3984.91603271,0.00134717
3986.84484009,0.00127787
3988.77364746,0.00125443
3990.70245483,0.00121979
3992.63126221,0.00129165
3994.56006958,0.00133892
3996.48887695,0.00134783
3998.41768433,0.00134265
4000.34649170,0.00130963
4002.27529907,0.00129499
4004.20410645,0.00130826
4006.13291382,0.00123428
4008.06172119,0.00120128
4009.99052856,0.00128226
4011.91933594,0.00128629
4013.84814331,0.00129097
4015.77695068,0.00128854
4017.70575806,0.00132289
4019.63456543,0.00124521
4021.56337280,0.00125756
4023.49218018,0.00134545
4025.42098755,0.00119778
4027.34979492,0.00129567
4029.27860229,0.00133150
4031.20740967,0.00126500
4033.13621704,0.00124126
4035.06502441,0.00114921
4036.99383179,0.00124336
4038.92263916,0.00124065
4040.85144653,0.00128223
4042.78025391,0.00125964
4044.70906128,0.00117588
4046.63786865,0.00122131
4048.56667603,0.00118506
4050.49548340,0.00120936
4052.42429077,0.00113969
4054.35309814,0.00113555
4056.28190552,0.00119304
4058.21071289,0.00116904
4060.13952026,0.00117241
4062.06832764,0.00116132
4063.99713501,0.00123760
4065.92594238,0.00119950
4067.85474976,0.00113889
4069.78355713,0.00116453
4071.71236450,0.00117338
4073.64117187,0.00113538
4075.56997925,0.00112333
4077.49878662,0.00125185
4079.42759399,0.00120467
4081.35640137,0.00114933
4083.28520874,0.00118948
4085.21401611,0.00115419
4087.14282349,0.00118806
4089.07163086,0.00115214
4091.00043823,0.00114767
4092.92924561,0.00119110
4094.85805298,0.00116458
4096.78686035,0.00126168
4098.71566772,0.00122722
4100.64447510,0.00114311
4102.57328247,0.00120556
4104.50208984,0.00111308
4106.43089722,0.00113006
4108.35970459,0.00115804
4110.28851196,0.00109030
4112.21731934,0.00117697
4114.14612671,0.00115318
4116.07493408,0.00111223
4118.00374145,0.00106284
4119.93254883,0.00104969
4121.86135620,0.00113477
4123.79016357,0.00114434
4125.71897095,0.00117629
4127.64777832,0.00113819
4129.57658569,0.00106629
4131.50539307,0.00106428
4133.43420044,0.00114468
4135.36300781,0.00110414
4137.29181519,0.00106745
4139.22062256,0.00116956
4141.14942993,0.00107224
4143.07823730,0.00104875
4145.00704468,0.00102027
4146.93585205,0.00102535
4148.86465942,0.00114191
4150.79346680,0.00104687
4152.72227417,0.00102573
4154.65108154,0.00104520
4156.57988892,0.00109782
4158.50869629,0.00110364
4160.43750366,0.00099550
4162.36631103,0.00104435
4164.29511841,0.00108469
4166.22392578,0.00104426
4168.15273315,0.00101036
4170.08154053,0.00102079
4172.01034790,0.00102234
4173.93915527,0.00100768
4175.86796265,0.00102680
4177.79677002,0.00105426
4179.72557739,0.00105049
4181.65438477,0.00106097
4183.58319214,0.00110571
4185.51199951,0.00106109
4187.44080688,0.00098409
4189.36961426,0.00093009
4191.29842163,0.00102001
4193.22722900,0.00106210
4195.15603638,0.00099283
4197.08484375,0.00102937
4199.01365112,0.00099969
4200.94245850,0.00103418
4202.87126587,0.00102640
4204.80007324,0.00098877
4206.72888062,0.00104849
4208.65768799,0.00103966
4210.58649536,0.00104652
4212.51530273,0.00102139
4214.44411011,0.00106461
4216.37291748,0.00102906
4218.30172485,0.00095079
4220.23053223,0.00103251
4222.15933960,0.00106216
4224.08814697,0.00101468
4226.01695435,0.00094557
4227.94576172,0.00099045
4229.87456909,0.00100573
4231.80337646,0.00101463
4233.73218384,0.00101795
4235.66099121,0.00087700
4237.58979858,0.00090267
4239.51860596,0.00100752
4241.44741333,0.00096922
4243.37622070,0.00093371
4245.30502808,0.00099100
4247.23383545,0.00091120
4249.16264282,0.00086993
4251.09145020,0.00095678
4253.02025757,0.00095833
4254.94906494,0.00098181
4256.87787231,0.00085504
4258.80667969,0.00088974
4260.73548706,0.00095956
4262.66429443,0.00080913
4264.59310181,0.00089386
4266.52190918,0.00094722
4268.45071655,0.00095044
4270.37952393,0.00093250
4272.30833130,0.00087555
4274.23713867,0.00094606
4276.16594604,0.00094974
4278.09475342,0.00091209
4280.02356079,0.00090291
4281.95236816,0.00090046
4283.88117554,0.00086531
4285.80998291,0.00088552
4287.73879028,0.00090993
4289.66759766,0.00088664
4291.59640503,0.00088383
4293.52521240,0.00085520
4295.45401978,0.00089871
4297.38282715,0.00090540
4299.31163452,0.00084947
4301.24044189,0.00083665
4303.16924927,0.00085518
4305.09805664,0.00085459
4307.02686401,0.00085953
4308.95567139,0.00087237
4310.88447876,0.00086000
4312.81328613,0.00096671
4314.74209351,0.00094150
4316.67090088,0.00085309
4318.59970825,0.00085608
4320.52851562,0.00083390
4322.45732300,0.00089463
4324.38613037,0.00087793
4326.31493774,0.00089098
4328.24374512,0.00082563
4330.17255249,0.00083747
4332.10135986,0.00101308
4334.03016724,0.00084129
4335.95897461,0.00083409
4337.88778198,0.00089163
4339.81658936,0.00075279
4341.74539673,0.00083173
4343.67420410,0.00083588
4345.60301147,0.00080912
4347.53181885,0.00091357
4349.46062622,0.00088951
4351.38943359,0.00082616
4353.31824097,0.00086367
4355.24704834,0.00078335
4357.17585571,0.00075800
4359.10466309,0.00081844
4361.03347046,0.00073513
4362.96227783,0.00080892
4364.89108520,0.00084071
4366.81989258,0.00080490
4368.74869995,0.00086728
4370.67750732,0.00083265
4372.60631470,0.00083398
4374.53512207,0.00086021
4376.46392944,0.00089049
4378.39273682,0.00077683
4380.32154419,0.00072789
4382.25035156,0.00083628
4384.17915894,0.00077355
4386.10796631,0.00084811
4388.03677368,0.00085180
4389.96558105,0.00075416
4391.89438843,0.00078532
4393.82319580,0.00075729
4395.75200317,0.00080649
4397.68081055,0.00083931
4399.60961792,0.00081118
4401.53842529,0.00075971
4403.46723267,0.00079779
4405.39604004,0.00083532
4407.32484741,0.00077201
4409.25365478,0.00081127
4411.18246216,0.00070930
4413.11126953,0.00070393
4415.04007690,0.00082272
4416.96888428,0.00075256
4418.89769165,0.00073334
4420.82649902,0.00077665
4422.75530640,0.00078555
4424.68411377,0.00071792
4426.61292114,0.00075048
4428.54172852,0.00077479
4430.47053589,0.00073817
4432.39934326,0.00076673
4434.32815063,0.00068976
4436.25695801,0.00074918
4438.18576538,0.00077868
4440.11457275,0.00070991
4442.04338013,0.00075264
4443.97218750,0.00068077
4445.90099487,0.00067835
4447.82980225,0.00074454
4449.75860962,0.00070516
4451.68741699,0.00070493
4453.61622437,0.00073722
4455.54503174,0.00074526
4457.47383911,0.00078468
4459.40264648,0.00082406
4461.33145386,0.00081456
4463.26026123,0.00077635
4465.18906860,0.00072545
4467.11787598,0.00072050
4469.04668335,0.00069202
4470.97549072,0.00065410
4472.90429810,0.00068207
4474.83310547,0.00072223
4476.76191284,0.00070481
4478.69072021,0.00065668
4480.61952759,0.00066655
4482.54833496,0.00066226
4484.47714233,0.00067494
4486.40594971,0.00069912
4488.33475708,0.00066483
4490.26356445,0.00061166
4492.19237183,0.00065021
4494.12117920,0.00067394
4496.04998657,0.00060476
4497.97879395,0.00068158
4499.90760132,0.00066253
4501.83640869,0.00065557
4503.76521606,0.00071313
4505.69402344,0.00065298
4507.62283081,0.00077442
4509.55163818,0.00076382
4511.48044556,0.00071827
4513.40925293,0.00074920
4515.33806030,0.00065222
4517.26686768,0.00064209
4519.19567505,0.00063656
4521.12448242,0.00063593
4523.05328979,0.00060673
4524.98209717,0.00064879
4526.91090454,0.00069865
4528.83971191,0.00064576
4530.76851929,0.00063396
4532.69732666,0.00060615
4534.62613403,0.00068790
4536.55494141,0.00067069
4538.48374878,0.00056321
4540.41255615,0.00060933
4542.34136353,0.00063621
4544.27017090,0.00061235
4546.19897827,0.00066411
4548.12778564,0.00073563
4550.05659302,0.00063911
4551.98540039,0.00055342
4553.91420776,0.00055735
4555.84301514,0.00065420
4557.77182251,0.00068154
4559.70062988,0.00056263
4561.62943726,0.00059199
4563.55824463,0.00064535
4565.48705200,0.00073970
4567.41585937,0.00070721
4569.34466675,0.00056992
4571.27347412,0.00059108
4573.20228149,0.00059477
4575.13108887,0.00063009
4577.05989624,0.00061459
4578.98870361,0.00061440
4580.91751099,0.00063134
4582.84631836,0.00058175
4584.77512573,0.00060337
4586.70393311,0.00063250
4588.63274048,0.00062525
4590.56154785,0.00058758
4592.49035522,0.00059844
4594.41916260,0.00058805
4596.34796997,0.00065075
4598.27677734,0.00066146
4600.20558472,0.00054922
4602.13439209,0.00059605
4604.06319946,0.00059228
4605.99200684,0.00061799
4607.92081421,0.00061491
4609.84962158,0.00057666
4611.77842895,0.00062024
4613.70723633,0.00053994
4615.63604370,0.00054254
4617.56485107,0.00052589
4619.49365845,0.00051463
4621.42246582,0.00061970
4623.35127319,0.00059931
4625.28008057,0.00054278
4627.20888794,0.00058940
4629.13769531,0.00059968
4631.06650269,0.00055417
4632.99531006,0.00064067
4634.92411743,0.00058011
4636.85292480,0.00048184
4638.78173218,0.00056700
4640.71053955,0.00054510
4642.63934692,0.00052101
4644.56815430,0.00055528
4646.49696167,0.00059082
4648.42576904,0.00056866
4650.35457642,0.00059349
4652.28338379,0.00063182
4654.21219116,0.00053013
4656.14099853,0.00053728
4658.06980591,0.00055571
4659.99861328,0.00052218
4661.92742065,0.00053590
4663.85622803,0.00054847
4665.78503540,0.00051987
4667.71384277,0.00049949
4669.64265015,0.00052670
4671.57145752,0.00047579
4673.50026489,0.00050900
4675.42907227,0.00053145
4677.35787964,0.00052438
4679.28668701,0.00058742
4681.21549438,0.00053062
4683.14430176,0.00057552
4685.07310913,0.00054690
4687.00191650,0.00042954
4688.93072388,0.00054560
4690.85953125,0.00056597
4692.78833862,0.00050578
4694.71714600,0.00055164
4696.64595337,0.00054674
4698.57476074,0.00050855
4700.50356812,0.00052053
4702.43237549,0.00049939
4704.36118286,0.00047412
4706.28999023,0.00048958
4708.21879761,0.00046800
4710.14760498,0.00050862
4712.07641235,0.00053816
4714.00521973,0.00048739
4715.93402710,0.00049845
4717.86283447,0.00049519
4719.79164185,0.00049762
4721.72044922,0.00049633
4723.64925659,0.00042180
4725.57806396,0.00048107
4727.50687134,0.00055186
4729.43567871,0.00047947
4731.36448608,0.00049866
4733.29329346,0.00054618
4735.22210083,0.00053583
4737.15090820,0.00052535
4739.07971558,0.00046566
4741.00852295,0.00044317
4742.93733032,0.00047882
4744.86613770,0.00048009
4746.79494507,0.00046196
4748.72375244,0.00048971
4750.65255981,0.00049297
4752.58136719,0.00048392
4754.51017456,0.00047766
4756.43898193,0.00037352
4758.36778931,0.00040406
4760.29659668,0.00048201
4762.22540405,0.00042928
4764.15421143,0.00048489
4766.08301880,0.00050504
4768.01182617,0.00048873
4769.94063354,0.00052972
4771.86944092,0.00045321
4773.79824829,0.00040958
4775.72705566,0.00046403
4777.65586304,0.00047567
4779.58467041,0.00043855
4781.51347778,0.00044445
4783.44228516,0.00048166
4785.37109253,0.00045685
4787.29989990,0.00045661
4789.22870728,0.00043887
4791.15751465,0.00039560
4793.08632202,0.00044634
4795.01512939,0.00048777
4796.94393677,0.00045992
4798.87274414,0.00036004
4800.80155151,0.00038667
4802.73035889,0.00048950
4804.65916626,0.00041913
4806.58797363,0.00048893
4808.51678101,0.00048513
4810.44558838,0.00032934
4812.37439575,0.00046775
4814.30320312,0.00056017
4816.23201050,0.00049718
4818.16081787,0.00042373
4820.08962524,0.00038686
4822.01843262,0.00043778
4823.94723999,0.00042085
4825.87604736,0.00045488
4827.80485474,0.00048223
4829.73366211,0.00044501
4831.66246948,0.00042083
4833.59127686,0.00039106
4835.52008423,0.00047004
4837.44889160,0.00045129
4839.37769897,0.00032984
4841.30650635,0.00038718
4843.23531372,0.00044180
4845.16412109,0.00046258
4847.09292847,0.00046548
4849.02173584,0.00035555
4850.95054321,0.00043232
4852.87935059,0.00049541
4854.80815796,0.00041512
4856.73696533,0.00045673
4858.66577270,0.00039791
4860.59458008,0.00037902
4862.52338745,0.00041081
4864.45219482,0.00044396
4866.38100220,0.00050174
4868.30980957,0.00037870
4870.23861694,0.00039713
4872.16742432,0.00041175
4874.09623169,0.00037218
4876.02503906,0.00046149
4877.95384644,0.00044452
4879.88265381,0.00040033
4881.81146118,0.00036015
4883.74026855,0.00036232
4885.66907593,0.00035938
4887.59788330,0.00036914
4889.52669067,0.00040870
4891.45549805,0.00037291
4893.38430542,0.00037736
4895.31311279,0.00040998
4897.24192017,0.00041703
4899.17072754,0.00035017
4901.09953491,0.00034622
4903.02834228,0.00033793
4904.95714966,0.00032413
4906.88595703,0.00039211
4908.81476440,0.00039494
4910.74357178,0.00044851
4912.67237915,0.00037836
4914.60118652,0.00035983
4916.52999390,0.00039634
4918.45880127,0.00033140
4920.38760864,0.00041568
4922.31641602,0.00034825
4924.24522339,0.00035043
4926.17403076,0.00044256
4928.10283813,0.00035386
4930.03164551,0.00038647
4931.96045288,0.00040107
4933.88926025,0.00032879
4935.81806763,0.00039791
4937.74687500,0.00043354
4939.67568237,0.00032674
4941.60448975,0.00033625
4943.53329712,0.00034893
4945.46210449,0.00037808
4947.39091187,0.00038789
4949.31971924,0.00029822
4951.24852661,0.00034767
4953.17733398,0.00032935
4955.10614136,0.00030353
4957.03494873,0.00031411
4958.96375610,0.00040217
4960.89256348,0.00042976
4962.82137085,0.00026787
4964.75017822,0.00035205
4966.67898560,0.00041170
4968.60779297,0.00040454
4970.53660034,0.00034151
4972.46540771,0.00026068
4974.39421509,0.00033059
4976.32302246,0.00032583
4978.25182983,0.00036865
4980.18063721,0.00035081
4982.10944458,0.00038976
4984.03825195,0.00037325
4985.96705933,0.00029163
4987.89586670,0.00036511
4989.82467407,0.00034367
4991.75348145,0.00036308
4993.68228882,0.00032514
4995.61109619,0.00035666
4997.53990356,0.00036865
4999.46871094,0.00026301
5001.39751831,0.00029541
5003.32632568,0.00031200
5005.25513306,0.00037294
5007.18394043,0.00029372
5009.11274780,0.00031467
5011.04155518,0.00045188
5012.97036255,0.00034276
5014.89916992,0.00030271
5016.82797729,0.00037967
5018.75678467,0.00038683
5020.68559204,0.00028866
5022.61439941,0.00032340
5024.54320679,0.00038102
5026.47201416,0.00040744
5028.40082153,0.00041920
5030.32962891,0.00031359
5032.25843628,0.00032929
5034.18724365,0.00030470
5036.11605103,0.00028110
5038.04485840,0.00032111
5039.97366577,0.00032064
5041.90247314,0.00032758
5043.83128052,0.00034418
5045.76008789,0.00034453
5047.68889526,0.00032029
5049.61770264,0.00039117
5051.54651001,0.00033794
5053.47531738,0.00032231
5055.40412476,0.00035078
5057.33293213,0.00027415
5059.26173950,0.00033217
5061.19054687,0.00032884
5063.11935425,0.00031760
5065.04816162,0.00033342
5066.97696899,0.00033873
5068.90577637,0.00032275
5070.83458374,0.00031894
5072.76339111,0.00032619
5074.69219849,0.00027371
5076.62100586,0.00036609
5078.54981323,0.00029075
5080.47862061,0.00021589
5082.40742798,0.00028122
5084.33623535,0.00026502
5086.26504272,0.00035845
5088.19385010,0.00031655
5090.12265747,0.00028628
5092.05146484,0.00035802
5093.98027222,0.00029964
5095.90907959,0.00027585
5097.83788696,0.00030041
5099.76669434,0.00029280
5101.69550171,0.00029360
5103.62430908,0.00027646
5105.55311645,0.00025891
5107.48192383,0.00032002
5109.41073120,0.00027838
5111.33953857,0.00023714
5113.26834595,0.00028446
5115.19715332,0.00031378
5117.12596069,0.00034400
5119.05476807,0.00032053
5120.98357544,0.00032478
5122.91238281,0.00031907
5124.84119019,0.00034423
5126.76999756,0.00029634
5128.69880493,0.00022041
5130.62761230,0.00027701
5132.55641968,0.00022089
5134.48522705,0.00023925
5136.41403442,0.00029926
5138.34284180,0.00028513
5140.27164917,0.00032805
5142.20045654,0.00027161
5144.12926392,0.00021427
5146.05807129,0.00029299
5147.98687866,0.00030267
5149.91568603,0.00025810
5151.84449341,0.00033883
5153.77330078,0.00033775
5155.70210815,0.00029001
5157.63091553,0.00027408
5159.55972290,0.00028133
5161.48853027,0.00031186
5163.41733765,0.00024621
5165.34614502,0.00031704
5167.27495239,0.00028697
5169.20375977,0.00022734
5171.13256714,0.00033089
5173.06137451,0.00024103
5174.99018188,0.00025772
5176.91898926,0.00031000
5178.84779663,0.00022182
5180.77660400,0.00024782
5182.70541138,0.00030709
5184.63421875,0.00030188
5186.56302612,0.00027455
5188.49183350,0.00030241
5190.42064087,0.00030337
5192.34944824,0.00027773
5194.27825562,0.00029462
5196.20706299,0.00025515
5198.13587036,0.00023840
5200.06467773,0.00027967
5201.99348511,0.00025315
5203.92229248,0.00026507
5205.85109985,0.00024410
5207.77990723,0.00021467
5209.70871460,0.00027390
5211.63752197,0.00022879
5213.56632935,0.00024590
5215.49513672,0.00027293
5217.42394409,0.00024202
5219.35275146,0.00022482
5221.28155884,0.00021133
5223.21036621,0.00025031
5225.13917358,0.00020870
5227.06798096,0.00026529
5228.99678833,0.00029311
5230.92559570,0.00027911
5232.85440308,0.00030253
5234.78321045,0.00025180
5236.71201782,0.00032212
5238.64082520,0.00023893
5240.56963257,0.00019355
5242.49843994,0.00027697
5244.42724731,0.00021887
5246.35605469,0.00020852
5248.28486206,0.00019977
5250.21366943,0.00025442
5252.14247681,0.00032470
5254.07128418,0.00029007
5256.00009155,0.00026148
5257.92889893,0.00031273
5259.85770630,0.00027377
5261.78651367,0.00023108
5263.71532104,0.00027178
5265.64412842,0.00022546
5267.57293579,0.00026589
5269.50174316,0.00023142
5271.43055054,0.00024331
5273.35935791,0.00028604
5275.28816528,0.00025684
5277.21697266,0.00030365
5279.14578003,0.00020798
5281.07458740,0.00023527
5283.00339478,0.00021688
5284.93220215,0.00023792
5286.86100952,0.00032408
5288.78981689,0.00022043
5290.71862427,0.00025845
5292.64743164,0.00018038
5294.57623901,0.00016726
5296.50504639,0.00020764
5298.43385376,0.00019885
5300.36266113,0.00028815
5302.29146851,0.00021272
5304.22027588,0.00021636
5306.14908325,0.00025793
5308.07789062,0.00023360
5310.00669800,0.00024423
5311.93550537,0.00025065
5313.86431274,0.00019531
5315.79312012,0.00020620
5317.72192749,0.00025711
5319.65073486,0.00018187
5321.57954224,0.00022776
5323.50834961,0.00022264
5325.43715698,0.00019858
5327.36596436,0.00023091
5329.29477173,0.00024680
5331.22357910,0.00028266
5333.15238647,0.00023095
5335.08119385,0.00027949
5337.01000122,0.00021631
5338.93880859,0.00018079
5340.86761597,0.00021825
5342.79642334,0.00013794
5344.72523071,0.00020879
5346.65403809,0.00018979
5348.58284546,0.00014844
5350.51165283,0.00019997
5352.44046020,0.00021057
5354.36926758,0.00021002
5356.29807495,0.00022785
5358.22688232,0.00027626
5360.15568970,0.00029491
5362.08449707,0.00028976
5364.01330444,0.00022214
5365.94211182,0.00023486
5367.87091919,0.00026492
5369.79972656,0.00023425
5371.72853394,0.00021560
5373.65734131,0.00021918
5375.58614868,0.00022739
5377.51495605,0.00016886
5379.44376343,0.00020687
5381.37257080,0.00017822
5383.30137817,0.00017647
5385.23018555,0.00025198
5387.15899292,0.00022406
5389.08780029,0.00023548
5391.01660767,0.00017297
5392.94541504,0.00020123
5394.87422241,0.00019641
5396.80302978,0.00017748
5398.73183716,0.00024402
5400.66064453,0.00015598
5402.58945190,0.00021651
5404.51825928,0.00019873
5406.44706665,0.00012878
5408.37587402,0.00021442
5410.30468140,0.00019586
5412.23348877,0.00022574
5414.16229614,0.00021347
5416.09110352,0.00019426
5418.01991089,0.00023499
5419.94871826,0.00017868
5421.87752563,0.00022354
5423.80633301,0.00026070
5425.73514038,0.00017943
5427.66394775,0.00019939
5429.59275513,0.00020955
5431.52156250,0.00021192
5433.45036987,0.00021836
5435.37917725,0.00014261
5437.30798462,0.00016292
5439.23679199,0.00018762
5441.16559936,0.00022041
5443.09440674,0.00025189
5445.02321411,0.00018695
5446.95202148,0.00019947
5448.88082886,0.00018012
5450.80963623,0.00015789
5452.73844360,0.00022720
5454.66725098,0.00018043
5456.59605835,0.00011869
5458.52486572,0.00020462
5460.45367310,0.00017087
5462.38248047,0.00014698
5464.31128784,0.00024480
5466.24009521,0.00014639
5468.16890259,0.00015367
5470.09770996,0.00021892
5472.02651733,0.00017159
5473.95532471,0.00019070
5475.88413208,0.00016910
5477.81293945,0.00022534
5479.74174683,0.00024265
5481.67055420,0.00015774
5483.59936157,0.00016395
5485.52816895,0.00019642
5487.45697632,0.00020337
5489.38578369,0.00022019
5491.31459106,0.00017898
5493.24339844,0.00006074
5495.17220581,0.00012601
5497.10101318,0.00023485
5499.02982056,0.00018357
5500.95862793,0.00014518
5502.88743530,0.00017426
5504.81624268,0.00020514
5506.74505005,0.00018508
5508.67385742,0.00017561
5510.60266479,0.00013618
5512.53147217,0.00015601
5514.46027954,0.00022034
5516.38908691,0.00018198
5518.31789429,0.00019664
5520.24670166,0.00020853
5522.17550903,0.00016914
5524.10431641,0.00014541
5526.03312378,0.00015712
5527.96193115,0.00021096
5529.89073853,0.00018619
5531.81954590,0.00014233
5533.74835327,0.00013331
5535.67716064,0.00015471
5537.60596802,0.00021397
5539.53477539,0.00015693
5541.46358276,0.00007784
5543.39239014,0.00013277
5545.32119751,0.00017208
5547.25000488,0.00014393
5549.17881226,0.00015013
5551.10761963,0.00018149
5553.03642700,0.00017948
5554.96523437,0.00018393
5556.89404175,0.00016808
5558.82284912,0.00013754
5560.75165649,0.00016299
5562.68046387,0.00013332
5564.60927124,0.00013105
5566.53807861,0.00015243
5568.46688599,0.00009581
5570.39569336,0.00012684
5572.32450073,0.00013640
5574.25330811,0.00014250
5576.18211548,0.00020304
5578.11092285,0.00017076
5580.03973022,0.00016965
5581.96853760,0.00019112
5583.89734497,0.00014234
5585.82615234,0.00013235
5587.75495972,0.00015040
5589.68376709,0.00009074
5591.61257446,0.00010432
5593.54138184,0.00018074
5595.47018921,0.00017653
5597.39899658,0.00015536
5599.32780395,0.00008958
5601.25661133,0.00010235
5603.18541870,0.00015665
5605.11422607,0.00010724
5607.04303345,0.00008756
5608.97184082,0.00012809
5610.90064819,0.00018126
5612.82945557,0.00017026
5614.75826294,0.00012848
5616.68707031,0.00012029
5618.61587769,0.00013442
5620.54468506,0.00018688
5622.47349243,0.00020769
5624.40229980,0.00015992
5626.33110718,0.00013659
5628.25991455,0.00013813
5630.18872192,0.00014233
5632.11752930,0.00014133
5634.04633667,0.00011028
5635.97514404,0.00020606
5637.90395142,0.00016375
5639.83275879,0.00002690
5641.76156616,0.00015386
5643.69037353,0.00013963
5645.61918091,0.00015451
5647.54798828,0.00024104
5649.47679565,0.00015965
5651.40560303,0.00016310
5653.33441040,0.00011865
5655.26321777,0.00016779
5657.19202515,0.00018858
5659.12083252,0.00009442
5661.04963989,0.00017994
5662.97844727,0.00011476
5664.90725464,0.00007087
5666.83606201,0.00019697
5668.76486938,0.00014243
5670.69367676,0.00013069
5672.62248413,0.00019547
5674.55129150,0.00013961
5676.48009888,0.00013964
5678.40890625,0.00013860
5680.33771362,0.00011455
5682.26652100,0.00018744
5684.19532837,0.00020050
5686.12413574,0.00016837
5688.05294311,0.00010459
5689.98175049,0.00003730
5691.91055786,0.00007097
5693.83936523,0.00010737
5695.76817261,0.00014854
5697.69697998,0.00015446
5699.62578735,0.00008935
5701.55459473,0.00007498
5703.48340210,0.00012352
5705.41220947,0.00016528
5707.34101685,0.00015636
5709.26982422,0.00011699
5711.19863159,0.00007782
5713.12743896,0.00004965
5715.05624634,0.00006031
5716.98505371,0.00012855
5718.91386108,0.00020063
5720.84266846,0.00014390
5722.77147583,0.00009312
5724.70028320,0.00018827
5726.62909058,0.00015400
5728.55789795,0.00005755
5730.48670532,0.00008770
5732.41551270,0.00010711
5734.34432007,0.00010177
5736.27312744,0.00012426
5738.20193481,0.00018714
5740.13074219,0.00011536
5742.05954956,0.00004821
5743.98835693,0.00013159
5745.91716431,0.00010528
5747.84597168,0.00012935
5749.77477905,0.00015593
5751.70358643,0.00006530
5753.63239380,0.00006334
5755.56120117,0.00006068
5757.49000854,0.00008929
5759.41881592,0.00019727
5761.34762329,0.00015711
5763.27643066,0.00010012
5765.20523804,0.00018482
5767.13404541,0.00014195
5769.06285278,0.00013397
5770.99166016,0.00013681
5772.92046753,0.00006506
5774.84927490,0.00017156
5776.77808228,0.00014368
5778.70688965,0.00009458
5780.63569702,0.00010505
5782.56450439,0.00014260
5784.49331177,0.00021084
5786.42211914,0.00010758
5788.35092651,0.00018204
5790.27973389,0.00016435
5792.20854126,0.00009246
5794.13734863,0.00020983
5796.06615601,0.00017284
5797.99496338,0.00010588
5799.92377075,0.00006935
5801.85257812,0.00009283
5803.78138550,0.00007182
5805.71019287,0.00005861
5807.63900024,0.00009235
5809.56780762,0.00008330
5811.49661499,0.00010498
5813.42542236,0.00011284
5815.35422974,0.00017493
5817.28303711,0.00011039
5819.21184448,0.00007808
5821.14065186,0.00010849
5823.06945923,0.00011147
5824.99826660,0.00015179
5826.92707397,0.00002389
5828.85588135,0.00007176
5830.78468872,0.00013651
5832.71349609,0.00008768
5834.64230347,0.00009759
5836.57111084,0.00007853
5838.49991821,0.00013292
5840.42872559,0.00008666
5842.35753296,0.00008392
5844.28634033,0.00005652
5846.21514770,0.00000690
5848.14395508,0.00012513
5850.07276245,0.00010557
5852.00156982,0.00007756
5853.93037720,0.00012104
5855.85918457,0.00009246
5857.78799194,0.00006124
5859.71679932,0.00012408
5861.64560669,0.00014313
5863.57441406,0.00011501
5865.50322144,0.00013931
5867.43202881,0.00011261
5869.36083618,0.00014664
5871.28964355,0.00013760
5873.21845093,0.00006662
5875.14725830,0.00008958
5877.07606567,0.00011795
5879.00487305,0.00006904
5880.93368042,0.00004937
5882.86248779,0.00015311
5884.79129517,0.00014979
5886.72010254,0.00011160
5888.64890991,0.00013785
5890.57771728,0.00009720
5892.50652466,0.00007990
5894.43533203,0.00008242
5896.36413940,0.00004595
5898.29294678,0.00008246
5900.22175415,0.00013352
5902.15056152,0.00007567
5904.07936890,0.00008103
5906.00817627,0.00007089
5907.93698364,0.00003345
5909.86579102,0.00008508
5911.79459839,0.00008266
5913.72340576,0.00009365
5915.65221313,0.00010595
5917.58102051,0.00012686
5919.50982788,0.00012812
5921.43863525,0.00011385
5923.36744263,0.00011602
5925.29625000,0.00007589
5927.22505737,0.00014506
5929.15386475,0.00016074
5931.08267212,0.00011799
5933.01147949,0.00006526
5934.94028686,0.00009299
5936.86909424,0.00017023
5938.79790161,0.00002617
5940.72670898,0.00009564
5942.65551636,0.00013039
5944.58432373,0.00001106
5946.51313110,0.00009986
5948.44193848,0.00007958
5950.37074585,0.00010787
5952.29955322,0.00016286
5954.22836060,0.00010615
5956.15716797,0.00007809
5958.08597534,0.00006118
5960.01478271,0.00005612
5961.94359009,0.00006789
5963.87239746,0.00014557
5965.80120483,0.00015745
5967.73001221,0.00012681
5969.65881958,0.00009496
5971.58762695,0.00004857
5973.51643433,0.00008384
5975.44524170,0.00010377
5977.37404907,0.00006815
5979.30285645,0.00007047
5981.23166382,0.00014809
5983.16047119,0.00017888
5985.08927856,0.00011211
5987.01808594,0.00003258
5988.94689331,0.00006718
5990.87570068,0.00012639
5992.80450806,0.00003768
5994.73331543,0.00006036
5996.66212280,0.00014323
5998.59093018,0.00008969
6000.51973755,0.00012965
