399.26312622,0.00064219
401.19193359,0.00053864
403.12074097,0.00069601
405.04954834,0.00072013
406.97835571,0.00048977
408.90716309,0.00028260
410.83597046,0.00056482
412.76477783,0.00051670
414.69358521,0.00048831
416.62239258,0.00087616
418.55119995,0.00018572
420.48000732,-0.00019443
422.40881470,0.00049980
424.33762207,0.00066101
426.26642944,0.00080101
428.19523682,0.00057788
430.12404419,0.00048566
432.05285156,0.00066252
433.98165894,0.00053902
435.91046631,0.00108084
437.83927368,0.00066914
439.76808105,0.00044223
441.69688843,0.00092400
443.62569580,0.00069925
445.55450317,0.00098917
447.48331055,0.00059708
449.41211792,0.00027314
451.34092529,0.00051409
453.26973267,0.00008631
455.19854004,0.00013183
457.12734741,0.00020220
459.05615479,0.00008485
460.98496216,0.00045514
462.91376953,0.00037283
464.84257690,0.00019330
466.77138428,0.00050442
468.70019165,0.00009295
470.62899902,0.00017998
472.55780640,0.00069777
474.48661377,0.00029204
476.41542114,0.00010924
478.34422852,0.00034458
480.27303589,0.00066785
482.20184326,0.00021630
484.13065063,0.00016553
486.05945801,0.00038574
487.98826538,-0.00005242
489.91707275,0.00025977
491.84588013,0.00012560
493.77468750,0.00002173
495.70349487,0.00024819
497.63230225,0.00009327
499.56110962,0.00041123
501.48991699,0.00047782
503.41872437,0.00026436
505.34753174,0.00017844
507.27633911,0.00004062
509.20514648,0.00015356
511.13395386,0.00060211
513.06276123,0.00024505
514.99156860,-0.00006741
516.92037598,0.00022814
518.84918335,0.00003979
520.77799072,0.00030534
522.70679810,0.00048382
524.63560547,0.00049259
526.56441284,0.00059376
528.49322021,0.00022758
530.42202759,0.00013744
532.35083496,-0.00016054
534.27964233,0.00001061
536.20844971,0.00040579
538.13725708,-0.00004557
540.06606445,-0.00006716
541.99487183,0.00019826
543.92367920,0.00009339
545.85248657,0.00006468
547.78129395,0.00003581
549.71010132,0.00005297
551.63890869,0.00023291
553.56771606,-0.00003277
555.49652344,-0.00005393
557.42533081,0.00034449
559.35413818,0.00038890
561.28294556,0.00025031
563.21175293,0.00043140
565.14056030,0.00045296
567.06936768,0.00018887
568.99817505,0.00027281
570.92698242,-0.00003323
572.85578979,-0.00002691
574.78459717,-0.00019916
576.71340454,-0.00007267
578.64221191,0.00033850
580.57101929,-0.00020694
582.49982666,0.00025673
584.42863403,0.00038762
586.35744141,-0.00006891
588.28624878,-0.00006364
590.21505615,0.00017053
592.14386353,0.00059439
594.07267090,0.00019810
596.00147827,0.00021575
597.93028564,0.00020720
599.85909302,0.00010494
601.78790039,0.00005514
603.71670776,-0.00035376
605.64551514,0.00009117
607.57432251,0.00000446
609.50312988,0.00002961
611.43193726,0.00028923
613.36074463,0.00004235
615.28955200,0.00015887
617.21835938,0.00014309
619.14716675,0.00036670
621.07597412,0.00016397
623.00478149,-0.00016756
624.93358887,-0.00003257
626.86239624,0.00016173
628.79120361,0.00028080
630.72001099,0.00015485
632.64881836,0.00030050
634.57762573,0.00075154
636.50643311,0.00057178
638.43524048,-0.00009723
640.36404785,0.00058519
642.29285522,0.00085093
644.22166260,0.00036653
646.15046997,0.00100099
648.07927734,0.00067905
650.00808472,0.00046226
651.93689209,0.00110588
653.86569946,0.00101495
655.79450684,0.00093374
657.72331421,0.00086967
659.65212158,0.00096374
661.58092896,0.00112873
663.50973633,0.00115362
665.43854370,0.00115127
667.36735107,0.00088933
669.29615845,0.00126169
671.22496582,0.00156419
673.15377319,0.00124361
675.08258057,0.00149841
677.01138794,0.00165206
678.94019531,0.00167186
680.86900269,0.00178748
682.79781006,0.00148805
684.72661743,0.00142172
686.65542480,0.00154187
688.58423218,0.00173027
690.51303955,0.00169176
692.44184692,0.00167663
694.37065430,0.00200662
696.29946167,0.00209951
698.22826904,0.00245394
700.15707642,0.00266271
702.08588379,0.00251135
704.01469116,0.00237464
705.94349854,0.00221848
707.87230591,0.00192805
709.80111328,0.00144405
711.72992065,0.00106788
713.65872803,0.00032556
715.58753540,0.00006307
717.51634277,0.00023775
719.44515015,0.00008579
721.37395752,0.00005367
723.30276489,0.00005559
725.23157227,0.00032938
727.16037964,0.00017324
729.08918701,-0.00008996
731.01799438,-0.00018041
732.94680176,0.00002182
734.87560913,0.00020272
736.80441650,-0.00013807
738.73322388,0.00033833
740.66203125,0.00034837
742.59083862,0.00009731
744.51964600,0.00022692
746.44845337,-0.00003368
748.37726074,-0.00008348
750.30606812,0.00010071
752.23487549,0.00025247
754.16368286,0.00032476
756.09249023,0.00035784
758.02129761,0.00014131
759.95010498,0.00019865
761.87891235,0.00010398
763.80771973,0.00004752
765.73652710,0.00054443
767.66533447,0.00022257
769.59414185,0.00018177
771.52294922,0.00013089
773.45175659,0.00029985
775.38056396,0.00047008
777.30937134,0.00013345
779.23817871,0.00028162
781.16698608,-0.00006507
783.09579346,0.00016820
785.02460083,0.00040857
786.95340820,0.00033894
788.88221558,0.00030008
790.81102295,0.00005809
792.73983032,0.00022784
794.66863770,-0.00005204
796.59744507,0.00025642
798.52625244,0.00052755
800.45505981,0.00038356
802.38386719,0.00038550
804.31267456,0.00018270
806.24148193,0.00041780
808.17028931,0.00029786
810.09909668,0.00026515
812.02790405,0.00024388
813.95671143,0.00029415
815.88551880,0.00056223
817.81432617,0.00038008
819.74313354,0.00038253
821.67194092,0.00009010
823.60074829,0.00021211
825.52955566,0.00035227
827.45836304,0.00015452
829.38717041,0.00041296
831.31597778,0.00016431
833.24478516,0.00033875
835.17359253,0.00067657
837.10239990,0.00058602
839.03120728,0.00075166
840.96001465,0.00067322
842.88882202,0.00064046
844.81762939,0.00055709
846.74643677,0.00037442
848.67524414,0.00059704
850.60405151,0.00063393
852.53285889,0.00053466
854.46166626,0.00043899
856.39047363,0.00016103
858.31928101,0.00048959
860.24808838,0.00074680
862.17689575,0.00026026
864.10570313,0.00021748
866.03451050,0.00042641
867.96331787,0.00043927
869.89212524,0.00038750
871.82093262,0.00031055
873.74973999,0.00018565
875.67854736,0.00013691
877.60735474,0.00039590
879.53616211,0.00045862
881.46496948,0.00028874
883.39377686,0.00026164
885.32258423,0.00038830
887.25139160,0.00021120
889.18019897,0.00009871
891.10900635,0.00027666
893.03781372,0.00044914
894.96662109,0.00032531
896.89542847,-0.00011321
898.82423584,0.00031353
900.75304321,0.00060544
902.68185059,0.00034195
904.61065796,0.00021641
906.53946533,0.00010998
908.46827271,0.00034893
910.39708008,0.00030574
912.32588745,0.00042146
914.25469482,0.00057716
916.18350220,0.00050120
918.11230957,0.00060731
920.04111694,0.00067461
921.96992432,0.00072326
923.89873169,0.00052388
925.82753906,0.00058900
927.75634644,0.00074532
929.68515381,0.00073585
931.61396118,0.00082252
933.54276855,0.00097097
935.47157593,0.00091947
937.40038330,0.00085158
939.32919067,0.00112227
941.25799805,0.00089490
943.18680542,0.00093507
945.11561279,0.00115158
947.04442017,0.00098325
948.97322754,0.00099682
950.90203491,0.00101425
952.83084229,0.00114717
954.75964966,0.00092666
956.68845703,0.00096262
958.61726440,0.00100442
960.54607178,0.00088094
962.47487915,0.00109118
964.40368652,0.00083568
966.33249390,0.00094089
968.26130127,0.00112591
970.19010864,0.00117326
972.11891602,0.00124876
974.04772339,0.00127985
975.97653076,0.00145913
977.90533813,0.00119029
979.83414551,0.00158899
981.76295288,0.00201098
983.69176025,0.00181068
985.62056763,0.00199441
987.54937500,0.00211188
989.47818237,0.00234849
991.40698975,0.00259555
993.33579712,0.00282591
995.26460449,0.00335412
997.19341187,0.00359806
999.12221924,0.00364269
1001.05102661,0.00398928
1002.97983398,0.00431200
1004.90864136,0.00443487
1006.83744873,0.00476344
1008.76625610,0.00513847
1010.69506348,0.00525992
1012.62387085,0.00561128
1014.55267822,0.00619938
1016.48148560,0.00626155
1018.41029297,0.00658777
1020.33910034,0.00723973
1022.26790771,0.00726257
1024.19671509,0.00734284
1026.12552246,0.00766698
1028.05432983,0.00812845
1029.98313721,0.00849953
1031.91194458,0.00857404
1033.84075195,0.00860894
1035.76955933,0.00878865
1037.69836670,0.00902531
1039.62717407,0.00883117
1041.55598145,0.00883842
1043.48478882,0.00887923
1045.41359619,0.00863667
1047.34240356,0.00869611
1049.27121094,0.00877193
1051.20001831,0.00867379
1053.12882568,0.00841769
1055.05763306,0.00826590
1056.98644043,0.00809558
1058.91524780,0.00785599
1060.84405518,0.00738931
1062.77286255,0.00708668
1064.70166992,0.00715060
1066.63047729,0.00650296
1068.55928467,0.00633193
1070.48809204,0.00649681
1072.41689941,0.00608554
1074.34570679,0.00572411
1076.27451416,0.00529415
1078.20332153,0.00518924
1080.13212891,0.00494437
1082.06093628,0.00472555
1083.98974365,0.00450756
1085.91855103,0.00433568
1087.84735840,0.00445214
1089.77616577,0.00390382
1091.70497314,0.00391808
1093.63378052,0.00380471
1095.56258789,0.00333228
1097.49139526,0.00360395
1099.42020264,0.00336999
1101.34901001,0.00317408
1103.27781738,0.00320007
1105.20662476,0.00324658
1107.13543213,0.00317875
1109.06423950,0.00302196
1110.99304687,0.00321516
1112.92185425,0.00294820
1114.85066162,0.00285085
1116.77946899,0.00302863
1118.70827637,0.00313815
1120.63708374,0.00326556
1122.56589111,0.00320658
1124.49469849,0.00318142
1126.42350586,0.00299869
1128.35231323,0.00311570
1130.28112061,0.00318151
1132.20992798,0.00319489
1134.13873535,0.00362070
1136.06754272,0.00366243
1137.99635010,0.00367390
1139.92515747,0.00403517
1141.85396484,0.00424811
1143.78277222,0.00440593
1145.71157959,0.00485493
1147.64038696,0.00483778
1149.56919434,0.00495894
1151.49800171,0.00577565
1153.42680908,0.00590650
1155.35561646,0.00600402
1157.28442383,0.00626695
1159.21323120,0.00663088
1161.14203857,0.00705307
1163.07084595,0.00700247
1164.99965332,0.00735250
1166.92846069,0.00748600
1168.85726807,0.00771577
1170.78607544,0.00822025
1172.71488281,0.00833309
1174.64369019,0.00884138
1176.57249756,0.00913877
1178.50130493,0.00932021
1180.43011230,0.00969782
1182.35891968,0.01018749
1184.28772705,0.01075253
1186.21653442,0.01101829
1188.14534180,0.01166089
1190.07414917,0.01214978
1192.00295654,0.01259022
1193.93176392,0.01340367
1195.86057129,0.01392521
1197.78937866,0.01464885
1199.71818604,0.01537310
1201.64699341,0.01596099
1203.57580078,0.01664161
1205.50460815,0.01720105
1207.43341553,0.01774470
1209.36222290,0.01825638
1211.29103027,0.01886259
1213.21983765,0.01944738
1215.14864502,0.01996370
1217.07745239,0.02035843
1219.00625977,0.02074624
1220.93506714,0.02110703
1222.86387451,0.02115489
1224.79268188,0.02151493
1226.72148926,0.02174577
1228.65029663,0.02178154
1230.57910400,0.02201100
1232.50791138,0.02189372
1234.43671875,0.02201451
1236.36552612,0.02207096
1238.29433350,0.02208499
1240.22314087,0.02214019
1242.15194824,0.02169679
1244.08075562,0.02190511
1246.00956299,0.02204086
1247.93837036,0.02163843
1249.86717773,0.02154117
1251.79598511,0.02129104
1253.72479248,0.02117427
1255.65359985,0.02108568
1257.58240723,0.02079075
1259.51121460,0.02054622
1261.44002197,0.02033261
1263.36882935,0.02004544
1265.29763672,0.01968807
1267.22644409,0.01953014
1269.15525146,0.01918011
1271.08405884,0.01889901
1273.01286621,0.01880172
1274.94167358,0.01836484
1276.87048096,0.01798135
1278.79928833,0.01773636
1280.72809570,0.01747825
1282.65690308,0.01700193
1284.58571045,0.01657143
1286.51451782,0.01646082
1288.44332520,0.01625653
1290.37213257,0.01592388
1292.30093994,0.01558663
1294.22974731,0.01562817
1296.15855469,0.01571168
1298.08736206,0.01564183
1300.01616943,0.01577950
1301.94497681,0.01576404
1303.87378418,0.01586537
1305.80259155,0.01595730
1307.73139893,0.01601991
1309.66020630,0.01652233
1311.58901367,0.01688913
1313.51782104,0.01716197
1315.44662842,0.01758062
1317.37543579,0.01789239
1319.30424316,0.01836374
1321.23305054,0.01914852
1323.16185791,0.01970741
1325.09066528,0.02003166
1327.01947266,0.02065665
1328.94828003,0.02132205
1330.87708740,0.02182727
1332.80589478,0.02223474
1334.73470215,0.02260479
1336.66350952,0.02276693
1338.59231689,0.02249446
1340.52112427,0.02290140
1342.44993164,0.02391332
1344.37873901,0.02425249
1346.30754639,0.02425698
1348.23635376,0.02402808
1350.16516113,0.02391765
1352.09396851,0.02402104
1354.02277588,0.02362326
1355.95158325,0.02335486
1357.88039062,0.02328837
1359.80919800,0.02304319
1361.73800537,0.02175706
1363.66681274,0.02129735
1365.59562012,0.02277251
1367.52442749,0.02209063
1369.45323486,0.02181019
1371.38204224,0.02241113
1373.31084961,0.02093571
1375.23965698,0.02117255
1377.16846436,0.02180928
1379.09727173,0.02170365
1381.02607910,0.02197622
1382.95488647,0.02204507
1384.88369385,0.02198821
1386.81250122,0.02069141
1388.74130859,0.02091894
1390.67011597,0.02294240
1392.59892334,0.02241009
1394.52773071,0.02064313
1396.45653809,0.02157403
1398.38534546,0.02166990
1400.31415283,0.02163866
1402.24296021,0.02380625
1404.17176758,0.02225089
1406.10057495,0.02213682
1408.02938232,0.02327526
1409.95818970,0.02231868
1411.88699707,0.02300896
1413.81580444,0.02216461
1415.74461182,0.02257521
1417.67341919,0.02012832
1419.60222656,0.01747233
1421.53103394,0.02082247
1423.45984131,0.02022517
1425.38864868,0.01959832
1427.31745605,0.02009547
1429.24626343,0.01839658
1431.17507080,0.01803564
1433.10387817,0.01816527
1435.03268555,0.01636704
1436.96149292,0.01378572
1438.89030029,0.01620833
1440.81910767,0.01690611
1442.74791504,0.01523818
1444.67672241,0.01625045
1446.60552979,0.01481866
1448.53433716,0.01482189
1450.46314453,0.01564036
1452.39195190,0.01584209
1454.32075928,0.01637612
1456.24956665,0.01304018
1458.17837402,0.01340268
1460.10718140,0.01873916
1462.03598877,0.02015421
1463.96479614,0.01970705
1465.89360352,0.02029809
1467.82241089,0.02347020
1469.75121826,0.02543248
1471.68002563,0.02200107
1473.60883301,0.02306388
1475.53764038,0.02674038
1477.46644775,0.02905515
1479.39525513,0.03228531
1481.32406250,0.03255248
1483.25286987,0.03466092
1485.18167725,0.03581546
1487.11048462,0.03486442
1489.03929199,0.03430223
1490.96809937,0.03433016
1492.89690674,0.04114012
1494.82571411,0.04013320
1496.75452148,0.03503109
1498.68332886,0.04019637
1500.61213623,0.04152355
1502.54094360,0.04504573
1504.46975098,0.04257084
1506.39855835,0.02861996
1508.32736572,0.03576482
1510.25617310,0.04386722
1512.18498047,0.04235658
1514.11378784,0.04657635
1516.04259521,0.04120586
1517.97140259,0.04285777
1519.90020996,0.04157609
1521.82901733,0.03460738
1523.75782471,0.04392769
1525.68663208,0.04357657
1527.61543945,0.04312109
1529.54424683,0.04883572
1531.47305420,0.04674671
1533.40186157,0.04153194
1535.33066895,0.04438369
1537.25947632,0.04886038
1539.18828369,0.03272143
1541.11709106,0.03392274
1543.04589844,0.04279643
1544.97470581,0.04052321
1546.90351318,0.04973582
1548.83232056,0.04601076
1550.76112793,0.04751366
1552.68993530,0.04786912
1554.61874268,0.04208444
1556.54755005,0.04579163
1558.47635742,0.03030141
1560.40516479,0.03265227
1562.33397217,0.05041187
1564.26277954,0.04713349
1566.19158691,0.04874156
1568.12039429,0.04846678
1570.04920166,0.04157735
1571.97800903,0.04938199
1573.90681641,0.05065937
1575.83562378,0.03821643
1577.76443115,0.04387663
1579.69323853,0.05119236
1581.62204590,0.04883950
1583.55085327,0.05038355
1585.47966064,0.04958942
1587.40846802,0.05014437
1589.33727539,0.04965029
1591.26608276,0.04942698
1593.19489014,0.04974500
1595.12369751,0.04877548
1597.05250488,0.04964003
1598.98131226,0.04959103
1600.91011963,0.04975747
1602.83892700,0.04890351
1604.76773437,0.05000320
1606.69654175,0.04907093
1608.62534912,0.04883789
1610.55415649,0.04901113
1612.48296387,0.04936565
1614.41177124,0.05027977
1616.34057861,0.03976945
1618.26938599,0.04332937
1620.19819336,0.05220847
1622.12700073,0.04537496
1624.05580811,0.04532045
1625.98461548,0.04820039
1627.91342285,0.04778060
1629.84223022,0.04752527
1631.77103760,0.05150691
1633.69984497,0.04704039
1635.62865234,0.03701667
1637.55745972,0.04416647
1639.48626709,0.04996169
1641.41507446,0.04862375
1643.34388184,0.05023678
1645.27268921,0.04455979
1647.20149658,0.03758169
1649.13030396,0.04878368
1651.05911133,0.04694714
1652.98791870,0.02725145
1654.91672607,0.03883636
1656.84553345,0.05166608
1658.77434082,0.04917582
1660.70314819,0.05058968
1662.63195557,0.04524321
1664.56076294,0.04799960
1666.48957031,0.05269512
1668.41837769,0.04484299
1670.34718506,0.04299288
1672.27599243,0.05022431
1674.20479980,0.04575113
1676.13360718,0.04336482
1678.06241455,0.05133093
1679.99122192,0.04915651
1681.92002930,0.04855338
1683.84883667,0.03805323
1685.77764404,0.03726290
1687.70645142,0.05439043
1689.63525879,0.04624768
1691.56406616,0.05161448
1693.49287354,0.05322384
1695.42168091,0.03634698
1697.35048828,0.04675296
1699.27929565,0.04032104
1701.20810303,0.03480047
1703.13691040,0.05114429
1705.06571777,0.04633088
1706.99452515,0.04634751
1708.92333252,0.05180243
1710.85213989,0.04951020
1712.78094727,0.05039799
1714.70975464,0.04618536
1716.63856201,0.04065922
1718.56736938,0.03963759
1720.49617676,0.04848246
1722.42498413,0.05141547
1724.35379150,0.04691103
1726.28259888,0.05196322
1728.21140625,0.04762423
1730.14021362,0.04757451
1732.06902100,0.04675970
1733.99782837,0.03334769
1735.92663574,0.04325783
1737.85544312,0.04934898
1739.78425049,0.04266554
1741.71305786,0.04726169
1743.64186523,0.04800265
1745.57067261,0.04793909
1747.49947998,0.04840698
1749.42828735,0.04584768
1751.35709473,0.04339577
1753.28590210,0.04908449
1755.21470947,0.05209637
1757.14351685,0.04631605
1759.07232422,0.05201323
1761.00113159,0.04861552
1762.92993896,0.04608351
1764.85874634,0.05466738
1766.78755371,0.04833149
1768.71636108,0.04830523
1770.64516846,0.04832384
1772.57397583,0.04253719
1774.50278320,0.04830331
1776.43159058,0.05178436
1778.36039795,0.05106849
1780.28920532,0.05003021
1782.21801270,0.05064998
1784.14682007,0.05074901
1786.07562744,0.04934734
1788.00443481,0.05261623
1789.93324219,0.05094709
1791.86204956,0.04490446
1793.79085693,0.04744226
1795.71966431,0.05171656
1797.64847168,0.05093652
1799.57727905,0.04994715
1801.50608643,0.04883403
1803.43489380,0.05080973
1805.36370117,0.05221263
1807.29250854,0.05138854
1809.22131592,0.05162806
1811.15012329,0.05001798
1813.07893066,0.05189942
1815.00773804,0.05225676
1816.93654541,0.05169529
1818.86535278,0.05219402
1820.79416016,0.05185422
1822.72296753,0.05288443
1824.65177490,0.04854994
1826.58058228,0.05070703
1828.50938965,0.05096328
1830.43819702,0.04674745
1832.36700439,0.05207622
1834.29581177,0.05189652
1836.22461914,0.05174891
1838.15342651,0.05157369
1840.08223389,0.05179258
1842.01104126,0.05215790
1843.93984863,0.04495898
1845.86865601,0.04845323
1847.79746338,0.05202216
1849.72627075,0.05065154
1851.65507812,0.05265514
1853.58388550,0.05136674
1855.51269287,0.05185958
1857.44150024,0.05160005
1859.37030762,0.05117455
1861.29911499,0.05159596
1863.22792236,0.05107232
1865.15672974,0.05177241
1867.08553711,0.04959607
1869.01434448,0.04719352
1870.94315186,0.04945152
1872.87195923,0.05182599
1874.80076660,0.05084256
1876.72957397,0.05111013
1878.65838135,0.05099433
1880.58718872,0.05063499
1882.51599609,0.05138357
1884.44480347,0.05033464
1886.37361084,0.05124066
1888.30241821,0.04992387
1890.23122559,0.04859275
1892.16003296,0.05104611
1894.08884033,0.05014008
1896.01764771,0.04992474
1897.94645508,0.05067669
1899.87526245,0.05023298
1901.80406982,0.05049977
1903.73287720,0.05004584
1905.66168457,0.05040815
1907.59049194,0.04978050
1909.51929932,0.04924178
1911.44810669,0.04994409
1913.37691406,0.05009142
1915.30572144,0.05060680
1917.23452881,0.04794718
1919.16333618,0.04802727
1921.09214355,0.05047183
1923.02095093,0.04827227
1924.94975830,0.04943980
1926.87856567,0.05027765
1928.80737305,0.04947564
1930.73618042,0.05029264
1932.66498779,0.04935169
1934.59379517,0.05010503
1936.52260254,0.04961618
1938.45140991,0.04967514
1940.38021729,0.04984593
1942.30902466,0.04767686
1944.23783203,0.04892122
1946.16663940,0.04957736
1948.09544678,0.04950900
1950.02425415,0.04978444
1951.95306152,0.04939775
1953.88186890,0.04973558
1955.81067627,0.04932284
1957.73948364,0.04953527
1959.66829102,0.04960048
1961.59709839,0.04930648
1963.52590576,0.04956686
1965.45471313,0.04925843
1967.38352051,0.04866681
1969.31232788,0.04906362
1971.24113525,0.04955474
1973.16994263,0.04917816
1975.09875000,0.04938529
1977.02755737,0.04925881
1978.95636475,0.04934414
1980.88517212,0.04934673
1982.81397949,0.04911527
1984.74278687,0.04941536
1986.67159424,0.04871323
1988.60040161,0.04886640
1990.52920898,0.04856458
1992.45801636,0.04775825
1994.38682373,0.04866901
1996.31563110,0.04879160
1998.24443848,0.04852121
2000.17324585,0.04873482
2002.10205322,0.04867374
2004.03086060,0.04852261
2005.95966797,0.04836190
2007.88847534,0.04836804
2009.81728271,0.04829711
2011.74609009,0.04803072
2013.67489746,0.04812113
2015.60370483,0.04781506
2017.53251221,0.04735728
2019.46131958,0.04790764
2021.39012695,0.04789031
2023.31893433,0.04754208
2025.24774170,0.04762114
2027.17654907,0.04757521
2029.10535645,0.04753689
2031.03416382,0.04731398
2032.96297119,0.04728921
2034.89177856,0.04726768
2036.82058594,0.04718772
2038.74939331,0.04701957
2040.67820068,0.04672194
2042.60700806,0.04673183
2044.53581543,0.04675856
2046.46462280,0.04667334
2048.39343018,0.04660843
2050.32223755,0.04652331
2052.25104492,0.04631913
2054.17985229,0.04635713
2056.10865967,0.04632577
2058.03746704,0.04626190
2059.96627441,0.04626184
2061.89508179,0.04603091
2063.82388916,0.04589920
2065.75269653,0.04573580
2067.68150391,0.04591239
2069.61031128,0.04586726
2071.53911865,0.04568461
2073.46792603,0.04564338
2075.39673340,0.04544736
2077.32554077,0.04563939
2079.25434814,0.04539910
2081.18315552,0.04522439
2083.11196289,0.04535423
2085.04077026,0.04535419
2086.96957764,0.04522032
2088.89838501,0.04492557
2090.82719238,0.04504900
2092.75599976,0.04499205
2094.68480713,0.04497792
2096.61361450,0.04492947
2098.54242187,0.04477664
2100.47122925,0.04473802
2102.40003662,0.04463945
2104.32884399,0.04471581
2106.25765137,0.04452506
2108.18645874,0.04447890
2110.11526611,0.04450580
2112.04407349,0.04451017
2113.97288086,0.04443146
2115.90168823,0.04425097
2117.83049561,0.04425665
2119.75930298,0.04420415
2121.68811035,0.04430790
2123.61691772,0.04410584
2125.54572510,0.04411781
2127.47453247,0.04408529
2129.40333984,0.04385374
2131.33214722,0.04399391
2133.26095459,0.04382375
2135.18976196,0.04386057
2137.11856934,0.04373311
2139.04737671,0.04362816
2140.97618408,0.04376589
2142.90499146,0.04365297
2144.83379883,0.04362253
2146.76260620,0.04350272
2148.69141357,0.04356254
2150.62022095,0.04359505
2152.54902832,0.04349203
2154.47783569,0.04337767
2156.40664307,0.04344810
2158.33545044,0.04341951
2160.26425781,0.04318698
2162.19306519,0.04325207
2164.12187256,0.04325666
2166.05067993,0.04330159
2167.97948730,0.04306929
2169.90829468,0.04309186
2171.83710205,0.04319183
2173.76590942,0.04292870
2175.69471680,0.04307505
2177.62352417,0.04290381
2179.55233154,0.04282837
2181.48113892,0.04295154
2183.40994629,0.04294704
2185.33875366,0.04287202
2187.26756104,0.04274023
2189.19636841,0.04284726
2191.12517578,0.04265780
2193.05398315,0.04256218
2194.98279053,0.04253900
2196.91159790,0.04243483
2198.84040527,0.04244135
2200.76921265,0.04251665
2202.69802002,0.04246213
2204.62682739,0.04231026
2206.55563477,0.04240920
2208.48444214,0.04220119
2210.41324951,0.04228760
2212.34205688,0.04230995
2214.27086426,0.04210440
2216.19967163,0.04229466
2218.12847900,0.04210523
2220.05728638,0.04210363
2221.98609375,0.04211030
2223.91490112,0.04190239
2225.84370850,0.04186235
2227.77251587,0.04186211
2229.70132324,0.04183011
2231.63013062,0.04169142
2233.55893799,0.04179323
2235.48774536,0.04171269
2237.41655273,0.04161279
2239.34536011,0.04155754
2241.27416748,0.04139679
2243.20297485,0.04143628
2245.13178223,0.04131213
2247.06058960,0.04122114
2248.98939697,0.04122104
2250.91820435,0.04117502
2252.84701172,0.04117500
2254.77581909,0.04119299
2256.70462646,0.04113276
2258.63343384,0.04110550
2260.56224121,0.04112251
2262.49104858,0.04095539
2264.41985596,0.04088698
2266.34866333,0.04084238
2268.27747070,0.04082399
2270.20627808,0.04082425
2272.13508545,0.04067045
2274.06389282,0.04069310
2275.99270020,0.04073138
2277.92150757,0.04064378
2279.85031494,0.04070671
2281.77912231,0.04065196
2283.70792969,0.04047321
2285.63673706,0.04052686
2287.56554443,0.04043661
2289.49435181,0.04030910
2291.42315918,0.04030033
2293.35196655,0.04019435
2295.28077393,0.04004155
2297.20958130,0.03989510
2299.13838867,0.03981800
2301.06719604,0.03958112
2302.99600342,0.03958247
2304.92481079,0.03950845
2306.85361816,0.03915218
2308.78242554,0.03899040
2310.71123291,0.03858330
2312.64004028,0.03826255
2314.56884766,0.03793488
2316.49765503,0.03740634
2318.42646240,0.03699649
2320.35526978,0.03669126
2322.28407715,0.03621957
2324.21288452,0.03564927
2326.14169189,0.03542328
2328.07049927,0.03493380
2329.99930664,0.03454380
2331.92811401,0.03434052
2333.85692139,0.03413431
2335.78572876,0.03409406
2337.71453613,0.03381242
2339.64334351,0.03386606
2341.57215088,0.03404476
2343.50095825,0.03457693
2345.42976562,0.03539452
2347.35857300,0.03651591
2349.28738037,0.03774540
2351.21618774,0.03669195
2353.14499512,0.03476393
2355.07380249,0.03363131
2357.00260986,0.03257306
2358.93141724,0.03195905
2360.86022461,0.03158940
2362.78903198,0.03157857
2364.71783936,0.03182402
2366.64664673,0.03215280
2368.57545410,0.03286093
2370.50426147,0.03349824
2372.43306885,0.03429237
2374.36187622,0.03536619
2376.29068359,0.03621136
2378.21949097,0.03700356
2380.14829834,0.03758944
2382.07710571,0.03801161
2384.00591309,0.03824472
2385.93472046,0.03819565
2387.86352783,0.03839030
2389.79233521,0.03826757
2391.72114258,0.03822033
2393.64994995,0.03842283
2395.57875732,0.03824059
2397.50756470,0.03823331
2399.43637207,0.03819129
2401.36517944,0.03817185
2403.29398682,0.03812301
2405.22279419,0.03807670
2407.15160156,0.03810645
2409.08040894,0.03790785
2411.00921631,0.03787244
2412.93802368,0.03778021
2414.86683105,0.03780777
2416.79563843,0.03780921
2418.72444580,0.03766130
2420.65325317,0.03768717
2422.58206055,0.03762837
2424.51086792,0.03754606
2426.43967529,0.03751531
2428.36848267,0.03757446
2430.29729004,0.03742687
2432.22609741,0.03737732
2434.15490479,0.03740338
2436.08371216,0.03739263
2438.01251953,0.03742913
2439.94132690,0.03725826
2441.87013428,0.03745524
2443.79894165,0.03730375
2445.72774902,0.03709658
2447.65655640,0.03725491
2449.58536377,0.03702915
2451.51417114,0.03697833
2453.44297852,0.03689370
2455.37178589,0.03692652
2457.30059326,0.03696675
2459.22940063,0.03675305
2461.15820801,0.03680366
2463.08701538,0.03687287
2465.01582275,0.03686295
2466.94463013,0.03676740
2468.87343750,0.03669202
2470.80224487,0.03663120
2472.73105225,0.03660176
2474.65985962,0.03653482
2476.58866699,0.03645392
2478.51747437,0.03648355
2480.44628174,0.03646646
2482.37508911,0.03644451
2484.30389648,0.03622872
2486.23270386,0.03629803
2488.16151123,0.03642548
2490.09031860,0.03615370
2492.01912598,0.03619245
2493.94793335,0.03627102
2495.87674072,0.03614541
2497.80554810,0.03601870
2499.73435547,0.03596279
2501.66316284,0.03599925
2503.59197021,0.03595781
2505.52077759,0.03592668
2507.44958496,0.03593632
2509.37839233,0.03588904
2511.30719971,0.03578801
2513.23600708,0.03567215
2515.16481445,0.03568659
2517.09362183,0.03573037
2519.02242920,0.03558107
2520.95123657,0.03561987
2522.88004395,0.03563509
2524.80885132,0.03545056
2526.73765869,0.03546073
2528.66646606,0.03539760
2530.59527344,0.03539180
2532.52408081,0.03548693
2534.45288818,0.03546429
2536.38169556,0.03536174
2538.31050293,0.03530709
2540.23931030,0.03531858
2542.16811768,0.03523647
2544.09692505,0.03529827
2546.02573242,0.03519787
2547.95453979,0.03497348
2549.88334717,0.03505144
2551.81215454,0.03503349
2553.74096191,0.03496129
2555.66976929,0.03495179
2557.59857666,0.03479009
2559.52738403,0.03483552
2561.45619141,0.03494800
2563.38499878,0.03478337
2565.31380615,0.03481444
2567.24261353,0.03477322
2569.17142090,0.03468223
2571.10022827,0.03466301
2573.02903564,0.03458492
2574.95784302,0.03471058
2576.88665039,0.03452512
2578.81545776,0.03439377
2580.74426514,0.03434610
2582.67307251,0.03432889
2584.60187988,0.03449951
2586.53068726,0.03428982
2588.45949463,0.03426464
2590.38830200,0.03424455
2592.31710937,0.03421786
2594.24591675,0.03422999
2596.17472412,0.03411303
2598.10353149,0.03415436
2600.03233887,0.03399682
2601.96114624,0.03405297
2603.88995361,0.03407304
2605.81876099,0.03399181
2607.74756836,0.03394565
2609.67637573,0.03375953
2611.60518311,0.03375236
2613.53399048,0.03362699
2615.46279785,0.03373405
2617.39160522,0.03387760
2619.32041260,0.03374766
2621.24921997,0.03368429
2623.17802734,0.03364965
2625.10683472,0.03358615
2627.03564209,0.03350840
2628.96444946,0.03357049
2630.89325684,0.03346339
2632.82206421,0.03334197
2634.75087158,0.03334559
2636.67967895,0.03333993
2638.60848633,0.03322929
2640.53729370,0.03312122
2642.46610107,0.03318371
2644.39490845,0.03306244
2646.32371582,0.03305212
2648.25252319,0.03296739
2650.18133057,0.03303143
2652.11013794,0.03316858
2654.03894531,0.03287197
2655.96775269,0.03287219
2657.89656006,0.03288054
2659.82536743,0.03292325
2661.75417480,0.03287888
2663.68298218,0.03266694
2665.61178955,0.03275055
2667.54059692,0.03267433
2669.46940430,0.03261570
2671.39821167,0.03261224
2673.32701904,0.03260047
2675.25582642,0.03255920
2677.18463379,0.03247240
2679.11344116,0.03246257
2681.04224854,0.03241921
2682.97105591,0.03242439
2684.89986328,0.03239322
2686.82867065,0.03233891
2688.75747803,0.03221049
2690.68628540,0.03222883
2692.61509277,0.03221419
2694.54390015,0.03206731
2696.47270752,0.03209598
2698.40151489,0.03195291
2700.33032227,0.03191069
2702.25912964,0.03193953
2704.18793701,0.03194027
2706.11674438,0.03194481
2708.04555176,0.03180562
2709.97435913,0.03181121
2711.90316650,0.03171202
2713.83197388,0.03164124
2715.76078125,0.03169670
2717.68958862,0.03162009
2719.61839600,0.03155367
2721.54720337,0.03154027
2723.47601074,0.03154506
2725.40481812,0.03148978
2727.33362549,0.03148239
2729.26243286,0.03150864
2731.19124023,0.03139170
2733.12004761,0.03126025
2735.04885498,0.03124916
2736.97766235,0.03116789
2738.90646973,0.03108625
2740.83527710,0.03118748
2742.76408447,0.03120921
2744.69289185,0.03111203
2746.62169922,0.03100797
2748.55050659,0.03094444
2750.47931396,0.03098497
2752.40812134,0.03096863
2754.33692871,0.03090952
2756.26573608,0.03092524
2758.19454346,0.03079439
2760.12335083,0.03070515
2762.05215820,0.03063697
2763.98096558,0.03050197
2765.90977295,0.03063621
2767.83858032,0.03051853
2769.76738770,0.03038241
2771.69619507,0.03045719
2773.62500244,0.03045021
2775.55380981,0.03048711
2777.48261719,0.03030173
2779.41142456,0.03028271
2781.34023193,0.03018849
2783.26903931,0.03007414
2785.19784668,0.03016075
2787.12665405,0.03001800
2789.05546143,0.03002923
2790.98426880,0.02991577
2792.91307617,0.02989439
2794.84188354,0.02984021
2796.77069092,0.02965735
2798.69949829,0.02977304
2800.62830566,0.02965654
2802.55711304,0.02963743
2804.48592041,0.02957962
2806.41472778,0.02945474
2808.34353516,0.02953584
2810.27234253,0.02946846
2812.20114990,0.02935932
2814.12995728,0.02938633
2816.05876465,0.02940183
2817.98757202,0.02913314
2819.91637939,0.02916669
2821.84518677,0.02920322
2823.77399414,0.02897880
2825.70280151,0.02902789
2827.63160889,0.02895913
2829.56041626,0.02888520
2831.48922363,0.02883020
2833.41803101,0.02875619
2835.34683838,0.02869236
2837.27564575,0.02856096
2839.20445312,0.02850004
2841.13326050,0.02840984
2843.06206787,0.02823110
2844.99087524,0.02797897
2846.91968262,0.02783177
2848.84848999,0.02767677
2850.77729736,0.02773109
2852.70610474,0.02777939
2854.63491211,0.02766297
2856.56371948,0.02778389
2858.49252686,0.02765915
2860.42133423,0.02767515
2862.35014160,0.02780675
2864.27894897,0.02771826
2866.20775635,0.02776809
2868.13656372,0.02770074
2870.06537109,0.02760728
2871.99417847,0.02750657
2873.92298584,0.02752186
2875.85179321,0.02759312
2877.78060059,0.02746931
2879.70940796,0.02740139
2881.63821533,0.02737119
2883.56702270,0.02736028
2885.49583008,0.02728773
2887.42463745,0.02717666
2889.35344482,0.02716858
2891.28225220,0.02708847
2893.21105957,0.02686629
2895.13986694,0.02680884
2897.06867432,0.02685429
2898.99748169,0.02678563
2900.92628906,0.02682559
2902.85509644,0.02679536
2904.78390381,0.02663529
2906.71271118,0.02659632
2908.64151855,0.02649308
2910.57032593,0.02627081
2912.49913330,0.02620892
2914.42794067,0.02606941
2916.35674805,0.02582181
2918.28555542,0.02586190
2920.21436279,0.02582568
2922.14317017,0.02578693
2924.07197754,0.02583208
2926.00078491,0.02580844
2927.92959229,0.02597084
2929.85839966,0.02594258
2931.78720703,0.02585902
2933.71601440,0.02597122
2935.64482178,0.02601440
2937.57362915,0.02613009
2939.50243652,0.02617084
2941.43124390,0.02604129
2943.36005127,0.02601248
2945.28885864,0.02603946
2947.21766602,0.02601594
2949.14647339,0.02597095
2951.07528076,0.02594215
2953.00408813,0.02588778
2954.93289551,0.02573277
2956.86170288,0.02574073
2958.79051025,0.02577398
2960.71931763,0.02560944
2962.64812500,0.02561938
2964.57693237,0.02567123
2966.50573975,0.02561912
2968.43454712,0.02561516
2970.36335449,0.02556719
2972.29216187,0.02552090
2974.22096924,0.02561342
2976.14977661,0.02566709
2978.07858398,0.02564938
2980.00739136,0.02565770
2981.93619873,0.02560974
2983.86500610,0.02569079
2985.79381348,0.02568406
2987.72262085,0.02559338
2989.65142822,0.02560757
2991.58023560,0.02553781
2993.50904297,0.02550589
2995.43785034,0.02536634
2997.36665771,0.02532815
2999.29546509,0.02538283
3001.22427246,0.02527692
3003.15307983,0.02526219
3005.08188721,0.02528327
3007.01069458,0.02525371
3008.93950195,0.02517300
3010.86830933,0.02513336
3012.79711670,0.02499960
3014.72592407,0.02497036
3016.65473145,0.02497809
3018.58353882,0.02482961
3020.51234619,0.02491081
3022.44115356,0.02488126
3024.36996094,0.02478124
3026.29876831,0.02466792
3028.22757568,0.02466644
3030.15638306,0.02470562
3032.08519043,0.02442550
3034.01399780,0.02445518
3035.94280518,0.02455445
3037.87161255,0.02450218
3039.80041992,0.02435451
3041.72922729,0.02423774
3043.65803467,0.02431566
3045.58684204,0.02416219
3047.51564941,0.02414824
3049.44445679,0.02420155
3051.37326416,0.02409411
3053.30207153,0.02406061
3055.23087891,0.02402701
3057.15968628,0.02396272
3059.08849365,0.02397635
3061.01730103,0.02397322
3062.94610840,0.02384267
3064.87491577,0.02386031
3066.80372314,0.02377960
3068.73253052,0.02371689
3070.66133789,0.02371951
3072.59014526,0.02364605
3074.51895264,0.02368117
3076.44776001,0.02351731
3078.37656738,0.02344804
3080.30537476,0.02346471
3082.23418213,0.02343448
3084.16298950,0.02340372
3086.09179687,0.02339044
3088.02060425,0.02345227
3089.94941162,0.02329885
3091.87821899,0.02328045
3093.80702637,0.02321419
3095.73583374,0.02310153
3097.66464111,0.02309036
3099.59344849,0.02299194
3101.52225586,0.02301342
3103.45106323,0.02290872
3105.37987061,0.02292188
3107.30867798,0.02288136
3109.23748535,0.02267056
3111.16629272,0.02271142
3113.09510010,0.02273877
3115.02390747,0.02267227
3116.95271484,0.02248690
3118.88152222,0.02244915
3120.81032959,0.02253442
3122.73913696,0.02237383
3124.66794434,0.02230680
3126.59675171,0.02236332
3128.52555908,0.02233103
3130.45436645,0.02235117
3132.38317383,0.02223026
3134.31198120,0.02209089
3136.24078857,0.02209910
3138.16959595,0.02203223
3140.09840332,0.02201173
3142.02721069,0.02184570
3143.95601807,0.02185681
3145.88482544,0.02186122
3147.81363281,0.02158167
3149.74244019,0.02166945
3151.67124756,0.02166264
3153.60005493,0.02162184
3155.52886230,0.02152628
3157.45766968,0.02144676
3159.38647705,0.02153767
3161.31528442,0.02126381
3163.24409180,0.02130548
3165.17289917,0.02138383
3167.10170654,0.02120466
3169.03051392,0.02113292
3170.95932129,0.02112667
3172.88812866,0.02116289
3174.81693604,0.02100829
3176.74574341,0.02101431
3178.67455078,0.02100350
3180.60335815,0.02092663
3182.53216553,0.02088136
3184.46097290,0.02071631
3186.38978027,0.02069865
3188.31858765,0.02067566
3190.24739502,0.02058031
3192.17620239,0.02055440
3194.10500977,0.02062606
3196.03381714,0.02045817
3197.96262451,0.02025278
3199.89143188,0.02028039
3201.82023926,0.02022321
3203.74904663,0.02016557
3205.67785400,0.02017955
3207.60666138,0.02026106
3209.53546875,0.02020716
3211.46427612,0.02007208
3213.39308350,0.01994590
3215.32189087,0.01996609
3217.25069824,0.02009606
3219.17950562,0.01993142
3221.10831299,0.01985967
3223.03712036,0.01989792
3224.96592773,0.01988052
3226.89473511,0.01985697
3228.82354248,0.01983150
3230.75234985,0.01980552
3232.68115723,0.01970093
3234.60996460,0.01967031
3236.53877197,0.01967124
3238.46757935,0.01968242
3240.39638672,0.01962712
3242.32519409,0.01960246
3244.25400146,0.01953772
3246.18280884,0.01950685
3248.11161621,0.01952451
3250.04042358,0.01948021
3251.96923096,0.01960099
3253.89803833,0.01944751
3255.82684570,0.01939749
3257.75565308,0.01942374
3259.68446045,0.01935210
3261.61326782,0.01936474
3263.54207520,0.01922937
3265.47088257,0.01940664
3267.39968994,0.01936168
3269.32849731,0.01932959
3271.25730469,0.01930630
3273.18611206,0.01915740
3275.11491943,0.01934708
3277.04372681,0.01912919
3278.97253418,0.01919593
3280.90134155,0.01931424
3282.83014893,0.01913038
3284.75895630,0.01921025
3286.68776367,0.01912570
3288.61657104,0.01902836
3290.54537842,0.01901327
3292.47418579,0.01899197
3294.40299316,0.01894676
3296.33180054,0.01908451
3298.26060791,0.01898478
3300.18941528,0.01885023
3302.11822266,0.01901604
3304.04703003,0.01894182
3305.97583740,0.01896789
3307.90464478,0.01880964
3309.83345215,0.01878789
3311.76225952,0.01888662
3313.69106689,0.01871651
3315.61987427,0.01879595
3317.54868164,0.01877999
3319.47748901,0.01869586
3321.40629639,0.01866056
3323.33510376,0.01871203
3325.26391113,0.01865540
3327.19271851,0.01859927
3329.12152588,0.01866615
3331.05033325,0.01852808
3332.97914062,0.01857392
3334.90794800,0.01853538
3336.83675537,0.01845964
3338.76556274,0.01853552
3340.69437012,0.01844363
3342.62317749,0.01839612
3344.55198486,0.01848578
3346.48079224,0.01848406
3348.40959961,0.01837640
3350.33840698,0.01826261
3352.26721436,0.01817722
3354.19602173,0.01825649
3356.12482910,0.01816910
3358.05363647,0.01816984
3359.98244385,0.01821074
3361.91125122,0.01808770
3363.84005859,0.01815595
3365.76886597,0.01801198
3367.69767334,0.01797851
3369.62648071,0.01808661
3371.55528809,0.01807450
3373.48409546,0.01794256
3375.41290283,0.01791240
3377.34171020,0.01800679
3379.27051758,0.01785230
3381.19932495,0.01788655
3383.12813232,0.01780451
3385.05693970,0.01783393
3386.98574707,0.01782060
3388.91455444,0.01771265
3390.84336182,0.01779198
3392.77216919,0.01751496
3394.70097656,0.01764437
3396.62978394,0.01756625
3398.55859131,0.01748048
3400.48739868,0.01769110
3402.41620605,0.01748643
3404.34501343,0.01752517
3406.27382080,0.01742640
3408.20262817,0.01742796
3410.13143555,0.01748691
3412.06024292,0.01737938
3413.98905029,0.01739305
3415.91785767,0.01737288
3417.84666504,0.01733541
3419.77547241,0.01711372
3421.70427979,0.01713797
3423.63308716,0.01728717
3425.56189453,0.01727688
3427.49070190,0.01718881
3429.41950928,0.01717363
3431.34831665,0.01703108
3433.27712402,0.01699611
3435.20593140,0.01718178
3437.13473877,0.01690639
3439.06354614,0.01695737
3440.99235352,0.01691952
3442.92116089,0.01683749
3444.84996826,0.01696922
3446.77877563,0.01663446
3448.70758301,0.01672306
3450.63639038,0.01687251
3452.56519775,0.01684856
3454.49400513,0.01681477
3456.42281250,0.01678089
3458.35161987,0.01676904
3460.28042725,0.01664318
3462.20923462,0.01667565
3464.13804199,0.01666001
3466.06684937,0.01672289
3467.99565674,0.01663763
3469.92446411,0.01659254
3471.85327148,0.01658194
3473.78207886,0.01650907
3475.71088623,0.01657892
3477.63969360,0.01660893
3479.56850098,0.01658614
3481.49730835,0.01624598
3483.42611572,0.01642635
3485.35492310,0.01656627
3487.28373047,0.01640241
3489.21253784,0.01653872
3491.14134521,0.01641903
3493.07015259,0.01649556
3494.99895996,0.01644247
3496.92776733,0.01635229
3498.85657471,0.01641437
3500.78538208,0.01641301
3502.71418945,0.01615325
3504.64299683,0.01610877
3506.57180420,0.01654449
3508.50061157,0.01619435
3510.42941895,0.01616121
3512.35822632,0.01632447
3514.28703369,0.01629275
3516.21584106,0.01643345
3518.14464844,0.01615968
3520.07345581,0.01632152
3522.00226318,0.01620037
3523.93107056,0.01597212
3525.85987793,0.01614051
3527.78868530,0.01601369
3529.71749268,0.01603843
3531.64630005,0.01626243
3533.57510742,0.01634531
3535.50391479,0.01606278
3537.43272217,0.01604170
3539.36152954,0.01628918
3541.29033691,0.01629231
3543.21914429,0.01618829
3545.14795166,0.01574386
3547.07675903,0.01547871
3549.00556641,0.01615341
3550.93437378,0.01626079
3552.86318115,0.01580388
3554.79198853,0.01620579
3556.72079590,0.01617566
3558.64960327,0.01604884
3560.57841064,0.01599026
3562.50721802,0.01590359
3564.43602539,0.01601471
3566.36483276,0.01475453
3568.29364014,0.01430960
3570.22244751,0.01570041
3572.15125488,0.01627532
3574.08006226,0.01597565
3576.00886963,0.01608708
3577.93767700,0.01610294
3579.86648437,0.01596420
3581.79529175,0.01606957
3583.72409912,0.01609328
3585.65290649,0.01569801
3587.58171387,0.01413561
3589.51052124,0.01454479
3591.43932861,0.01623762
3593.36813599,0.01558892
3595.29694336,0.01533119
3597.22575073,0.01582294
3599.15455811,0.01586578
3601.08336548,0.01574318
3603.01217285,0.01588437
3604.94098022,0.01609076
3606.86978760,0.01542579
3608.79859497,0.01444609
3610.72740234,0.01479562
3612.65620972,0.01513182
3614.58501709,0.01468078
3616.51382446,0.01586255
3618.44263184,0.01446688
3620.37143921,0.01390254
3622.30024658,0.01601754
3624.22905395,0.01559583
3626.15786133,0.01633572
3628.08666870,0.01345889
3630.01547607,0.01209974
3631.94428345,0.01580473
3633.87309082,0.01548271
3635.80189819,0.01574218
3637.73070557,0.01592081
3639.65951294,0.01577388
3641.58832031,0.01595825
3643.51712769,0.01568520
3645.44593506,0.01588297
3647.37474243,0.01393779
3649.30354980,0.01261442
3651.23235718,0.01273901
3653.16116455,0.01565202
3655.08997192,0.01557470
3657.01877930,0.01363683
3658.94758667,0.01609488
3660.87639404,0.01572852
3662.80520142,0.01587061
3664.73400879,0.01585931
3666.66281616,0.01566796
3668.59162354,0.01502188
3670.52043091,0.01189558
3672.44923828,0.01491114
3674.37804565,0.01399519
3676.30685303,0.01124286
3678.23566040,0.01476800
3680.16446777,0.01526306
3682.09327515,0.01535751
3684.02208252,0.01570377
3685.95088989,0.01545080
3687.87969727,0.01384477
3689.80850464,0.01241581
3691.73731201,0.01440943
3693.66611938,0.01494219
3695.59492676,0.01537046
3697.52373413,0.01547060
3699.45254150,0.01525662
3701.38134888,0.01472068
3703.31015625,0.01411579
3705.23896362,0.01578616
3707.16777100,0.01489557
3709.09657837,0.01445439
3711.02538574,0.01347273
3712.95419312,0.01241125
3714.88300049,0.01504395
3716.81180786,0.01484151
3718.74061523,0.01490607
3720.66942261,0.01459278
3722.59822998,0.01395856
3724.52703735,0.01464761
3726.45584473,0.01351331
3728.38465210,0.01480016
3730.31345947,0.01461138
3732.24226685,0.01315538
3734.17107422,0.01277257
3736.09988159,0.01202221
3738.02868896,0.01287929
3739.95749634,0.01415059
3741.88630371,0.01493151
3743.81511108,0.01111638
3745.74391846,0.01032398
3747.67272583,0.01411862
3749.60153320,0.01185519
3751.53034058,0.01078950
3753.45914795,0.01272707
3755.38795532,0.01380979
3757.31676270,0.01445145
3759.24557007,0.01317895
3761.17437744,0.01380311
3763.10318481,0.01489002
3765.03199219,0.01369773
3766.96079956,0.01394068
3768.88960693,0.01380041
3770.81841431,0.01311590
3772.74722168,0.01435506
3774.67602905,0.01445960
3776.60483643,0.01451290
3778.53364380,0.01395939
3780.46245117,0.01328604
3782.39125854,0.01439017
3784.32006592,0.01399500
3786.24887329,0.01395604
3788.17768066,0.01430101
3790.10648804,0.01417544
3792.03529541,0.01410600
3793.96410278,0.01427196
3795.89291016,0.01341305
3797.82171753,0.01319021
3799.75052490,0.01393434
3801.67933228,0.01069669
3803.60813965,0.01279373
3805.53694702,0.01416477
3807.46575439,0.01116476
3809.39456177,0.01396513
3811.32336914,0.01369882
3813.25217651,0.01415529
3815.18098389,0.01269596
3817.10979126,0.01089409
3819.03859863,0.01420009
3820.96740601,0.01106917
3822.89621338,0.01186608
3824.82502075,0.01416219
3826.75382812,0.01245384
3828.68263550,0.01374750
3830.61144287,0.01311823
3832.54025024,0.01251351
3834.46905762,0.01292936
3836.39786499,0.01217069
3838.32667236,0.01085019
3840.25547974,0.01191056
3842.18428711,0.01284701
3844.11309448,0.01220478
3846.04190186,0.01340465
3847.97070923,0.01317970
3849.89951660,0.01331436
3851.82832397,0.01169768
3853.75713135,0.00833827
3855.68593872,0.01028728
3857.61474609,0.01325715
3859.54355347,0.01294022
3861.47236084,0.01269742
3863.40116821,0.01236035
3865.32997559,0.01144237
3867.25878296,0.01306149
3869.18759033,0.01170786
3871.11639770,0.01058087
3873.04520508,0.01297220
3874.97401245,0.01167638
3876.90281982,0.01287188
3878.83162720,0.01320745
3880.76043457,0.01094382
3882.68924194,0.01299676
3884.61804932,0.01200917
3886.54685669,0.01081930
3888.47566406,0.01302476
3890.40447144,0.01224225
3892.33327881,0.01131546
3894.26208618,0.01258901
3896.19089355,0.01294551
3898.11970093,0.01217694
3900.04850830,0.01137710
3901.97731567,0.01128743
3903.90612305,0.01115416
3905.83493042,0.01138242
3907.76373779,0.01269413
3909.69254517,0.01269921
3911.62135254,0.01254714
3913.55015991,0.01276364
3915.47896728,0.01227228
3917.40777466,0.01183742
3919.33658203,0.01170962
3921.26538940,0.01238435
3923.19419678,0.01229308
3925.12300415,0.01200724
3927.05181152,0.01228559
3928.98061890,0.01232590
3930.90942627,0.01211649
3932.83823364,0.01166804
3934.76704102,0.01215156
3936.69584839,0.01225640
3938.62465576,0.01225742
3940.55346313,0.01239797
3942.48227051,0.01175272
3944.41107788,0.01194344
3946.33988525,0.01215364
3948.26869263,0.01181507
3950.19750000,0.01175470
3952.12630737,0.01203209
3954.05511475,0.01218219
3955.98392212,0.01202546
3957.91272949,0.01198665
3959.84153687,0.01198420
3961.77034424,0.01189490
3963.69915161,0.01185199
3965.62795898,0.01203787
3967.55676636,0.01195300
3969.48557373,0.01191149
3971.41438110,0.01194542
3973.34318848,0.01182428
3975.27199585,0.01182342
3977.20080322,0.01175121
3979.12961060,0.01184005
3981.05841797,0.01179225
3982.98722534,0.01183357
3984.91603271,0.01183843
3986.84484009,0.01172665
3988.77364746,0.01173664
3990.70245483,0.01155806
3992.63126221,0.01163674
3994.56006958,0.01159399
3996.48887695,0.01150541
3998.41768433,0.01154114
4000.34649170,0.01162584
4002.27529907,0.01163549
4004.20410645,0.01150607
4006.13291382,0.01158947
4008.06172119,0.01140907
4009.99052856,0.01149854
4011.91933594,0.01151561
4013.84814331,0.01129072
4015.77695068,0.01140006
4017.70575806,0.01135761
4019.63456543,0.01142120
4021.56337280,0.01140017
4023.49218018,0.01135577
4025.42098755,0.01132121
4027.34979492,0.01125109
4029.27860229,0.01129655
4031.20740967,0.01121226
4033.13621704,0.01122061
4035.06502441,0.01115643
4036.99383179,0.01111860
4038.92263916,0.01121026
4040.85144653,0.01117916
4042.78025391,0.01103343
4044.70906128,0.01100818
4046.63786865,0.01107666
4048.56667603,0.01105374
4050.49548340,0.01107454
4052.42429077,0.01097782
4054.35309814,0.01088292
4056.28190552,0.01094443
4058.21071289,0.01100356
4060.13952026,0.01087721
4062.06832764,0.01082937
4063.99713501,0.01084835
4065.92594238,0.01074714
4067.85474976,0.01081188
4069.78355713,0.01071683
4071.71236450,0.01072696
4073.64117187,0.01073516
4075.56997925,0.01065150
4077.49878662,0.01079773
4079.42759399,0.01072180
4081.35640137,0.01066871
4083.28520874,0.01066051
4085.21401611,0.01067836
4087.14282349,0.01059089
4089.07163086,0.01047231
4091.00043823,0.01055804
4092.92924561,0.01050282
4094.85805298,0.01052930
4096.78686035,0.01055480
4098.71566772,0.01051095
4100.64447510,0.01042159
4102.57328247,0.01039928
4104.50208984,0.01038857
4106.43089722,0.01030428
4108.35970459,0.01036636
4110.28851196,0.01034648
4112.21731934,0.01035204
4114.14612671,0.01021098
4116.07493408,0.01017570
4118.00374145,0.01027815
4119.93254883,0.01022209
4121.86135620,0.01023946
4123.79016357,0.01011092
4125.71897095,0.01016600
4127.64777832,0.01021626
4129.57658569,0.01015645
4131.50539307,0.01018158
4133.43420044,0.01012947
4135.36300781,0.01013644
4137.29181519,0.01006057
4139.22062256,0.01002999
4141.14942993,0.00998078
4143.07823730,0.00996815
4145.00704468,0.00992102
4146.93585205,0.00986891
4148.86465942,0.00999362
4150.79346680,0.00991240
4152.72227417,0.00984612
4154.65108154,0.00984546
4156.57988892,0.00986838
4158.50869629,0.00982966
4160.43750366,0.00977330
4162.36631103,0.00980937
4164.29511841,0.00973407
4166.22392578,0.00975267
4168.15273315,0.00972262
4170.08154053,0.00968976
4172.01034790,0.00967409
4173.93915527,0.00964315
4175.86796265,0.00963813
4177.79677002,0.00954503
4179.72557739,0.00960696
4181.65438477,0.00964379
4183.58319214,0.00955581
4185.51199951,0.00948645
4187.44080688,0.00955189
4189.36961426,0.00951485
4191.29842163,0.00942373
4193.22722900,0.00953706
4195.15603638,0.00937728
4197.08484375,0.00934852
4199.01365112,0.00948050
4200.94245850,0.00936833
4202.87126587,0.00936288
4204.80007324,0.00931571
4206.72888062,0.00928401
4208.65768799,0.00932720
4210.58649536,0.00928985
4212.51530273,0.00929852
4214.44411011,0.00926123
4216.37291748,0.00924020
4218.30172485,0.00929248
4220.23053223,0.00918756
4222.15933960,0.00909619
4224.08814697,0.00918466
4226.01695435,0.00918615
4227.94576172,0.00904936
4229.87456909,0.00907506
4231.80337646,0.00913502
4233.73218384,0.00900775
4235.66099121,0.00905391
4237.58979858,0.00905776
4239.51860596,0.00896716
4241.44741333,0.00902374
4243.37622070,0.00891891
4245.30502808,0.00888467
4247.23383545,0.00891436
4249.16264282,0.00888441
4251.09145020,0.00890940
4253.02025757,0.00889120
4254.94906494,0.00885985
4256.87787231,0.00879762
4258.80667969,0.00880001
4260.73548706,0.00879230
4262.66429443,0.00877025
4264.59310181,0.00882236
4266.52190918,0.00879722
4268.45071655,0.00869094
4270.37952393,0.00868224
4272.30833130,0.00869626
4274.23713867,0.00861591
4276.16594604,0.00868143
4278.09475342,0.00868325
4280.02356079,0.00864250
4281.95236816,0.00865250
4283.88117554,0.00853893
4285.80998291,0.00857909
4287.73879028,0.00859438
4289.66759766,0.00853295
4291.59640503,0.00849377
4293.52521240,0.00843876
4295.45401978,0.00850565
4297.38282715,0.00852586
4299.31163452,0.00843328
4301.24044189,0.00835140
4303.16924927,0.00844443
4305.09805664,0.00848156
4307.02686401,0.00830535
4308.95567139,0.00836056
4310.88447876,0.00841754
4312.81328613,0.00825383
4314.74209351,0.00832126
4316.67090088,0.00835089
4318.59970825,0.00825288
4320.52851562,0.00827947
4322.45732300,0.00820220
4324.38613037,0.00823694
4326.31493774,0.00824609
4328.24374512,0.00816182
4330.17255249,0.00820981
4332.10135986,0.00812820
4334.03016724,0.00809306
4335.95897461,0.00811400
4337.88778198,0.00809613
4339.81658936,0.00806742
4341.74539673,0.00803299
4343.67420410,0.00805025
4345.60301147,0.00802189
4347.53181885,0.00802023
4349.46062622,0.00796833
4351.38943359,0.00794506
4353.31824097,0.00798061
4355.24704834,0.00794017
4357.17585571,0.00791371
4359.10466309,0.00784917
4361.03347046,0.00781876
4362.96227783,0.00793451
4364.89108520,0.00787098
4366.81989258,0.00772728
4368.74869995,0.00788480
4370.67750732,0.00783755
4372.60631470,0.00776878
4374.53512207,0.00780865
4376.46392944,0.00764885
4378.39273682,0.00776405
4380.32154419,0.00777013
4382.25035156,0.00767487
4384.17915894,0.00766760
4386.10796631,0.00758956
4388.03677368,0.00767326
4389.96558105,0.00764640
4391.89438843,0.00762088
4393.82319580,0.00764624
4395.75200317,0.00763867
4397.68081055,0.00759420
4399.60961792,0.00755105
4401.53842529,0.00758330
4403.46723267,0.00753094
4405.39604004,0.00755272
4407.32484741,0.00749528
4409.25365478,0.00744582
4411.18246216,0.00747636
4413.11126953,0.00745702
4415.04007690,0.00749654
4416.96888428,0.00742936
4418.89769165,0.00741771
4420.82649902,0.00745838
4422.75530640,0.00741862
4424.68411377,0.00736587
4426.61292114,0.00731367
4428.54172852,0.00732785
4430.47053589,0.00737678
4432.39934326,0.00733813
4434.32815063,0.00724921
4436.25695801,0.00726887
4438.18576538,0.00726434
4440.11457275,0.00721580
4442.04338013,0.00711702
4443.97218750,0.00707876
4445.90099487,0.00716836
4447.82980225,0.00714839
4449.75860962,0.00714487
4451.68741699,0.00712567
4453.61622437,0.00701932
4455.54503174,0.00706291
4457.47383911,0.00713356
4459.40264648,0.00697954
4461.33145386,0.00700916
4463.26026123,0.00709349
4465.18906860,0.00696782
4467.11787598,0.00701782
4469.04668335,0.00697441
4470.97549072,0.00698002
4472.90429810,0.00697035
4474.83310547,0.00683486
4476.76191284,0.00688680
4478.69072021,0.00687475
4480.61952759,0.00689960
4482.54833496,0.00687751
4484.47714233,0.00686895
4486.40594971,0.00682256
4488.33475708,0.00681637
4490.26356445,0.00693155
4492.19237183,0.00680661
4494.12117920,0.00680107
4496.04998657,0.00676010
4497.97879395,0.00677760
4499.90760132,0.00681846
4501.83640869,0.00671306
4503.76521606,0.00677121
4505.69402344,0.00671539
4507.62283081,0.00673324
4509.55163818,0.00667676
4511.48044556,0.00662196
4513.40925293,0.00672047
4515.33806030,0.00663579
4517.26686768,0.00661738
4519.19567505,0.00664330
4521.12448242,0.00658228
4523.05328979,0.00650884
4524.98209717,0.00658630
4526.91090454,0.00658281
4528.83971191,0.00654438
4530.76851929,0.00661276
4532.69732666,0.00652611
4534.62613403,0.00650173
4536.55494141,0.00648301
4538.48374878,0.00644862
4540.41255615,0.00646236
4542.34136353,0.00644799
4544.27017090,0.00635426
4546.19897827,0.00632769
4548.12778564,0.00638903
4550.05659302,0.00631150
4551.98540039,0.00634526
4553.91420776,0.00633817
4555.84301514,0.00632588
4557.77182251,0.00631567
4559.70062988,0.00629134
4561.62943726,0.00637656
4563.55824463,0.00621738
4565.48705200,0.00621251
4567.41585937,0.00625504
4569.34466675,0.00618398
4571.27347412,0.00626205
4573.20228149,0.00619114
4575.13108887,0.00615097
4577.05989624,0.00624469
4578.98870361,0.00621877
4580.91751099,0.00614695
4582.84631836,0.00623278
4584.77512573,0.00623148
4586.70393311,0.00609761
4588.63274048,0.00604196
4590.56154785,0.00601906
4592.49035522,0.00599671
4594.41916260,0.00602969
4596.34796997,0.00606735
4598.27677734,0.00593708
4600.20558472,0.00598759
4602.13439209,0.00599956
4604.06319946,0.00592200
4605.99200684,0.00604285
4607.92081421,0.00598277
4609.84962158,0.00596083
4611.77842895,0.00590566
4613.70723633,0.00590034
4615.63604370,0.00592510
4617.56485107,0.00580093
4619.49365845,0.00585897
4621.42246582,0.00584188
4623.35127319,0.00582817
4625.28008057,0.00578488
4627.20888794,0.00576380
4629.13769531,0.00580906
4631.06650269,0.00573884
4632.99531006,0.00579688
4634.92411743,0.00580370
4636.85292480,0.00575680
4638.78173218,0.00573980
4640.71053955,0.00575268
4642.63934692,0.00569754
4644.56815430,0.00569162
4646.49696167,0.00578447
4648.42576904,0.00562274
4650.35457642,0.00555804
4652.28338379,0.00561587
4654.21219116,0.00563487
4656.14099853,0.00564673
4658.06980591,0.00561247
4659.99861328,0.00558880
4661.92742065,0.00556130
4663.85622803,0.00559577
4665.78503540,0.00557595
4667.71384277,0.00561962
4669.64265015,0.00559915
4671.57145752,0.00545120
4673.50026489,0.00545271
4675.42907227,0.00552857
4677.35787964,0.00553516
4679.28668701,0.00542525
4681.21549438,0.00545521
4683.14430176,0.00539099
4685.07310913,0.00531273
4687.00191650,0.00546356
4688.93072388,0.00542630
4690.85953125,0.00534804
4692.78833862,0.00529613
4694.71714600,0.00531431
4696.64595337,0.00535831
4698.57476074,0.00534358
4700.50356812,0.00540343
4702.43237549,0.00534672
4704.36118286,0.00529486
4706.28999023,0.00520788
4708.21879761,0.00522104
4710.14760498,0.00532850
4712.07641235,0.00520043
4714.00521973,0.00529083
4715.93402710,0.00532421
4717.86283447,0.00519656
4719.79164185,0.00530208
4721.72044922,0.00524359
4723.64925659,0.00524309
4725.57806396,0.00526171
4727.50687134,0.00515144
4729.43567871,0.00522154
4731.36448608,0.00518264
4733.29329346,0.00509071
4735.22210083,0.00507000
4737.15090820,0.00510422
4739.07971558,0.00508377
4741.00852295,0.00502997
4742.93733032,0.00515571
4744.86613770,0.00509174
4746.79494507,0.00502792
4748.72375244,0.00505379
4750.65255981,0.00497058
4752.58136719,0.00502949
4754.51017456,0.00502995
4756.43898193,0.00497320
4758.36778931,0.00501299
4760.29659668,0.00499519
4762.22540405,0.00500520
4764.15421143,0.00502527
4766.08301880,0.00489721
4768.01182617,0.00491206
4769.94063354,0.00494602
4771.86944092,0.00485197
4773.79824829,0.00491852
4775.72705566,0.00492005
4777.65586304,0.00490364
4779.58467041,0.00489360
4781.51347778,0.00491145
4783.44228516,0.00487183
4785.37109253,0.00474010
4787.29989990,0.00483982
4789.22870728,0.00479611
4791.15751465,0.00483306
4793.08632202,0.00487785
4795.01512939,0.00473184
4796.94393677,0.00475473
4798.87274414,0.00476879
4800.80155151,0.00485194
4802.73035889,0.00475982
4804.65916626,0.00469155
4806.58797363,0.00472180
4808.51678101,0.00466663
4810.44558838,0.00475263
4812.37439575,0.00469447
4814.30320312,0.00469781
4816.23201050,0.00467720
4818.16081787,0.00461047
4820.08962524,0.00469178
4822.01843262,0.00468520
4823.94723999,0.00461236
4825.87604736,0.00454760
4827.80485474,0.00458786
4829.73366211,0.00456076
4831.66246948,0.00458661
4833.59127686,0.00457959
4835.52008423,0.00450915
4837.44889160,0.00460300
4839.37769897,0.00453383
4841.30650635,0.00448707
4843.23531372,0.00451269
4845.16412109,0.00447139
4847.09292847,0.00452572
4849.02173584,0.00455102
4850.95054321,0.00446735
4852.87935059,0.00445903
4854.80815796,0.00442422
4856.73696533,0.00436501
4858.66577270,0.00446939
4860.59458008,0.00447636
4862.52338745,0.00445874
4864.45219482,0.00437719
4866.38100220,0.00435957
4868.30980957,0.00439599
4870.23861694,0.00428943
4872.16742432,0.00438403
4874.09623169,0.00431998
4876.02503906,0.00428447
4877.95384644,0.00436558
4879.88265381,0.00434871
4881.81146118,0.00432830
4883.74026855,0.00419235
4885.66907593,0.00427888
4887.59788330,0.00425589
4889.52669067,0.00425141
4891.45549805,0.00433762
4893.38430542,0.00426028
4895.31311279,0.00432727
4897.24192017,0.00431374
4899.17072754,0.00427741
4901.09953491,0.00420945
4903.02834228,0.00424890
4904.95714966,0.00420978
4906.88595703,0.00408136
4908.81476440,0.00423441
4910.74357178,0.00414611
4912.67237915,0.00407337
4914.60118652,0.00411943
4916.52999390,0.00414215
4918.45880127,0.00422091
4920.38760864,0.00413513
4922.31641602,0.00407852
4924.24522339,0.00408635
4926.17403076,0.00409967
4928.10283813,0.00409417
4930.03164551,0.00407704
4931.96045288,0.00404373
4933.88926025,0.00405122
4935.81806763,0.00405823
4937.74687500,0.00402847
4939.67568237,0.00399359
4941.60448975,0.00392242
4943.53329712,0.00404296
4945.46210449,0.00398985
4947.39091187,0.00389858
4949.31971924,0.00399999
4951.24852661,0.00395021
4953.17733398,0.00400464
4955.10614136,0.00394374
4957.03494873,0.00380956
4958.96375610,0.00391087
4960.89256348,0.00395761
4962.82137085,0.00386926
4964.75017822,0.00384082
4966.67898560,0.00386748
4968.60779297,0.00384064
4970.53660034,0.00386518
4972.46540771,0.00387202
4974.39421509,0.00390711
4976.32302246,0.00384635
4978.25182983,0.00372702
4980.18063721,0.00379156
4982.10944458,0.00374887
4984.03825195,0.00374494
4985.96705933,0.00381549
4987.89586670,0.00371930
4989.82467407,0.00372436
4991.75348145,0.00384805
4993.68228882,0.00379665
4995.61109619,0.00377553
4997.53990356,0.00380735
4999.46871094,0.00375432
5001.39751831,0.00381788
5003.32632568,0.00376602
5005.25513306,0.00372670
5007.18394043,0.00371337
5009.11274780,0.00360889
5011.04155518,0.00368567
5012.97036255,0.00368566
5014.89916992,0.00366012
5016.82797729,0.00367665
5018.75678467,0.00368498
5020.68559204,0.00365074
5022.61439941,0.00356586
5024.54320679,0.00362587
5026.47201416,0.00363360
5028.40082153,0.00359901
5030.32962891,0.00354739
5032.25843628,0.00353748
5034.18724365,0.00360478
5036.11605103,0.00357740
5038.04485840,0.00355349
5039.97366577,0.00356602
5041.90247314,0.00355232
5043.83128052,0.00352866
5045.76008789,0.00355300
5047.68889526,0.00344966
5049.61770264,0.00342683
5051.54651001,0.00354985
5053.47531738,0.00352669
5055.40412476,0.00353527
5057.33293213,0.00350717
5059.26173950,0.00348162
5061.19054687,0.00342320
5063.11935425,0.00339532
5065.04816162,0.00344063
5066.97696899,0.00337409
5068.90577637,0.00345011
5070.83458374,0.00339349
5072.76339111,0.00333495
5074.69219849,0.00343546
5076.62100586,0.00337552
5078.54981323,0.00339069
5080.47862061,0.00337656
5082.40742798,0.00333712
5084.33623535,0.00339669
5086.26504272,0.00335371
5088.19385010,0.00325623
5090.12265747,0.00335385
5092.05146484,0.00344669
5093.98027222,0.00333718
5095.90907959,0.00336001
5097.83788696,0.00336886
5099.76669434,0.00331555
5101.69550171,0.00329765
5103.62430908,0.00322226
5105.55311645,0.00328276
5107.48192383,0.00329397
5109.41073120,0.00320034
5111.33953857,0.00321041
5113.26834595,0.00320882
5115.19715332,0.00320028
5117.12596069,0.00325327
5119.05476807,0.00323088
5120.98357544,0.00315405
5122.91238281,0.00316480
5124.84119019,0.00318027
5126.76999756,0.00315734
5128.69880493,0.00316886
5130.62761230,0.00318447
5132.55641968,0.00314115
5134.48522705,0.00314857
5136.41403442,0.00317242
5138.34284180,0.00313278
5140.27164917,0.00313114
5142.20045654,0.00309319
5144.12926392,0.00313286
5146.05807129,0.00316678
5147.98687866,0.00306323
5149.91568603,0.00312186
5151.84449341,0.00316980
5153.77330078,0.00307961
5155.70210815,0.00306838
5157.63091553,0.00311353
5159.55972290,0.00307705
5161.48853027,0.00302981
5163.41733765,0.00310056
5165.34614502,0.00306514
5167.27495239,0.00297801
5169.20375977,0.00299691
5171.13256714,0.00300130
5173.06137451,0.00300525
5174.99018188,0.00302395
5176.91898926,0.00306421
5178.84779663,0.00302018
5180.77660400,0.00298393
5182.70541138,0.00297594
5184.63421875,0.00284623
5186.56302612,0.00290935
5188.49183350,0.00300460
5190.42064087,0.00289907
5192.34944824,0.00289198
5194.27825562,0.00292465
5196.20706299,0.00287341
5198.13587036,0.00287004
5200.06467773,0.00295768
5201.99348511,0.00295256
5203.92229248,0.00285149
5205.85109985,0.00276352
5207.77990723,0.00279666
5209.70871460,0.00287331
5211.63752197,0.00279533
5213.56632935,0.00285921
5215.49513672,0.00286996
5217.42394409,0.00275857
5219.35275146,0.00287154
5221.28155884,0.00291547
5223.21036621,0.00285076
5225.13917358,0.00273728
5227.06798096,0.00273650
5228.99678833,0.00279209
5230.92559570,0.00276360
5232.85440308,0.00283507
5234.78321045,0.00276761
5236.71201782,0.00277475
5238.64082520,0.00278583
5240.56963257,0.00272806
5242.49843994,0.00284672
5244.42724731,0.00275294
5246.35605469,0.00269514
5248.28486206,0.00268062
5250.21366943,0.00263742
5252.14247681,0.00274684
5254.07128418,0.00267272
5256.00009155,0.00264495
5257.92889893,0.00274554
5259.85770630,0.00274182
5261.78651367,0.00268054
5263.71532104,0.00267320
5265.64412842,0.00268332
5267.57293579,0.00263794
5269.50174316,0.00264170
5271.43055054,0.00261567
5273.35935791,0.00269387
5275.28816528,0.00275170
5277.21697266,0.00264408
5279.14578003,0.00261537
5281.07458740,0.00260147
5283.00339478,0.00262416
5284.93220215,0.00258968
5286.86100952,0.00263296
5288.78981689,0.00269813
5290.71862427,0.00254101
5292.64743164,0.00256591
5294.57623901,0.00259056
5296.50504639,0.00254672
5298.43385376,0.00262389
5300.36266113,0.00259072
5302.29146851,0.00256980
5304.22027588,0.00262969
5306.14908325,0.00258000
5308.07789062,0.00246809
5310.00669800,0.00252432
5311.93550537,0.00250640
5313.86431274,0.00248493
5315.79312012,0.00257193
5317.72192749,0.00244429
5319.65073486,0.00251511
5321.57954224,0.00257461
5323.50834961,0.00246535
5325.43715698,0.00249792
5327.36596436,0.00236244
5329.29477173,0.00241602
5331.22357910,0.00251026
5333.15238647,0.00239083
5335.08119385,0.00250977
5337.01000122,0.00245980
5338.93880859,0.00226139
5340.86761597,0.00240881
5342.79642334,0.00247436
5344.72523071,0.00234155
5346.65403809,0.00236661
5348.58284546,0.00235057
5350.51165283,0.00234775
5352.44046020,0.00236373
5354.36926758,0.00227489
5356.29807495,0.00239249
5358.22688232,0.00244332
5360.15568970,0.00237058
5362.08449707,0.00240154
5364.01330444,0.00236161
5365.94211182,0.00235134
5367.87091919,0.00238627
5369.79972656,0.00236923
5371.72853394,0.00235606
5373.65734131,0.00233631
5375.58614868,0.00224499
5377.51495605,0.00227152
5379.44376343,0.00236283
5381.37257080,0.00232816
5383.30137817,0.00232533
5385.23018555,0.00223020
5387.15899292,0.00221017
5389.08780029,0.00233622
5391.01660767,0.00229621
5392.94541504,0.00221969
5394.87422241,0.00222574
5396.80302978,0.00229750
5398.73183716,0.00230646
5400.66064453,0.00230454
5402.58945190,0.00224805
5404.51825928,0.00214445
5406.44706665,0.00222829
5408.37587402,0.00220788
5410.30468140,0.00216282
5412.23348877,0.00219743
5414.16229614,0.00214715
5416.09110352,0.00220590
5418.01991089,0.00225055
5419.94871826,0.00221480
5421.87752563,0.00222454
5423.80633301,0.00220543
5425.73514038,0.00214094
5427.66394775,0.00208532
5429.59275513,0.00208329
5431.52156250,0.00218128
5433.45036987,0.00221141
5435.37917725,0.00211498
5437.30798462,0.00215556
5439.23679199,0.00216666
5441.16559936,0.00207299
5443.09440674,0.00207233
5445.02321411,0.00208233
5446.95202148,0.00209908
5448.88082886,0.00208051
5450.80963623,0.00205775
5452.73844360,0.00207006
5454.66725098,0.00208417
5456.59605835,0.00210437
5458.52486572,0.00205454
5460.45367310,0.00207324
5462.38248047,0.00210961
5464.31128784,0.00208810
5466.24009521,0.00213705
5468.16890259,0.00209615
5470.09770996,0.00203449
5472.02651733,0.00209628
5473.95532471,0.00208983
5475.88413208,0.00199190
5477.81293945,0.00199443
5479.74174683,0.00208698
5481.67055420,0.00205284
5483.59936157,0.00205019
5485.52816895,0.00212151
5487.45697632,0.00200336
5489.38578369,0.00197777
5491.31459106,0.00199617
5493.24339844,0.00192031
5495.17220581,0.00201147
5497.10101318,0.00200661
5499.02982056,0.00202721
5500.95862793,0.00208995
5502.88743530,0.00197682
5504.81624268,0.00201191
5506.74505005,0.00196844
5508.67385742,0.00194749
5510.60266479,0.00203912
5512.53147217,0.00193141
5514.46027954,0.00194913
5516.38908691,0.00196240
5518.31789429,0.00193839
5520.24670166,0.00199066
5522.17550903,0.00191880
5524.10431641,0.00190908
5526.03312378,0.00193870
5527.96193115,0.00197008
5529.89073853,0.00195150
5531.81954590,0.00193014
5533.74835327,0.00198399
5535.67716064,0.00190536
5537.60596802,0.00192464
5539.53477539,0.00189614
5541.46358276,0.00174033
5543.39239014,0.00180756
5545.32119751,0.00183781
5547.25000488,0.00183755
5549.17881226,0.00187181
5551.10761963,0.00186148
5553.03642700,0.00185166
5554.96523437,0.00174228
5556.89404175,0.00179013
5558.82284912,0.00191658
5560.75165649,0.00187770
5562.68046387,0.00187005
5564.60927124,0.00183628
5566.53807861,0.00181922
5568.46688599,0.00185332
5570.39569336,0.00178667
5572.32450073,0.00180996
5574.25330811,0.00187374
5576.18211548,0.00177752
5578.11092285,0.00181295
5580.03973022,0.00186900
5581.96853760,0.00175552
5583.89734497,0.00180046
5585.82615234,0.00178639
5587.75495972,0.00174144
5589.68376709,0.00183160
5591.61257446,0.00177996
5593.54138184,0.00181869
5595.47018921,0.00186487
5597.39899658,0.00185182
5599.32780395,0.00184976
5601.25661133,0.00172111
5603.18541870,0.00174616
5605.11422607,0.00177711
5607.04303345,0.00175258
5608.97184082,0.00175663
5610.90064819,0.00168710
5612.82945557,0.00170852
5614.75826294,0.00170608
5616.68707031,0.00166463
5618.61587769,0.00165688
5620.54468506,0.00169646
5622.47349243,0.00172684
5624.40229980,0.00168836
5626.33110718,0.00171950
5628.25991455,0.00171037
5630.18872192,0.00174241
5632.11752930,0.00176751
5634.04633667,0.00169258
5635.97514404,0.00174817
5637.90395142,0.00171881
5639.83275879,0.00161743
5641.76156616,0.00166643
5643.69037353,0.00169044
5645.61918091,0.00164366
5647.54798828,0.00162386
5649.47679565,0.00164404
5651.40560303,0.00165701
5653.33441040,0.00167966
5655.26321777,0.00167659
5657.19202515,0.00160869
5659.12083252,0.00164773
5661.04963989,0.00168338
5662.97844727,0.00163411
5664.90725464,0.00167531
5666.83606201,0.00162083
5668.76486938,0.00157355
5670.69367676,0.00167264
5672.62248413,0.00163278
5674.55129150,0.00155007
5676.48009888,0.00158143
5678.40890625,0.00161002
5680.33771362,0.00158099
5682.26652100,0.00158217
5684.19532837,0.00156824
5686.12413574,0.00154593
5688.05294311,0.00158981
5689.98175049,0.00159062
5691.91055786,0.00154726
5693.83936523,0.00150732
5695.76817261,0.00152815
5697.69697998,0.00149549
5699.62578735,0.00154220
5701.55459473,0.00160420
5703.48340210,0.00148706
5705.41220947,0.00159468
5707.34101685,0.00153369
5709.26982422,0.00145584
5711.19863159,0.00160942
5713.12743896,0.00146295
5715.05624634,0.00148152
5716.98505371,0.00151007
5718.91386108,0.00146181
5720.84266846,0.00152789
5722.77147583,0.00143272
5724.70028320,0.00147809
5726.62909058,0.00149566
5728.55789795,0.00145075
5730.48670532,0.00148684
5732.41551270,0.00148014
5734.34432007,0.00150157
5736.27312744,0.00146932
5738.20193481,0.00146465
5740.13074219,0.00146777
5742.05954956,0.00142792
5743.98835693,0.00143572
5745.91716431,0.00146142
5747.84597168,0.00144997
5749.77477905,0.00139109
5751.70358643,0.00140287
5753.63239380,0.00143757
5755.56120117,0.00141419
5757.49000854,0.00143711
5759.41881592,0.00144331
5761.34762329,0.00140068
5763.27643066,0.00141532
5765.20523804,0.00140505
5767.13404541,0.00140796
5769.06285278,0.00141203
5770.99166016,0.00136533
5772.92046753,0.00140158
5774.84927490,0.00142563
5776.77808228,0.00141245
5778.70688965,0.00138818
5780.63569702,0.00137415
5782.56450439,0.00134000
5784.49331177,0.00130372
5786.42211914,0.00139231
5788.35092651,0.00138720
5790.27973389,0.00136021
5792.20854126,0.00141224
5794.13734863,0.00133591
5796.06615601,0.00125567
5797.99496338,0.00132110
5799.92377075,0.00131843
5801.85257812,0.00130492
5803.78138550,0.00140632
5805.71019287,0.00131459
5807.63900024,0.00128513
5809.56780762,0.00134282
5811.49661499,0.00129869
5813.42542236,0.00133922
5815.35422974,0.00131762
5817.28303711,0.00133516
5819.21184448,0.00134982
5821.14065186,0.00132078
5823.06945923,0.00125554
5824.99826660,0.00121179
5826.92707397,0.00124653
5828.85588135,0.00120302
5830.78468872,0.00133832
5832.71349609,0.00132491
5834.64230347,0.00125979
5836.57111084,0.00132938
5838.49991821,0.00121684
5840.42872559,0.00125049
5842.35753296,0.00126181
5844.28634033,0.00129949
5846.21514770,0.00133100
5848.14395508,0.00123693
5850.07276245,0.00124645
5852.00156982,0.00115796
5853.93037720,0.00117437
5855.85918457,0.00124164
5857.78799194,0.00124476
5859.71679932,0.00125641
5861.64560669,0.00121851
5863.57441406,0.00124130
5865.50322144,0.00123841
5867.43202881,0.00125135
5869.36083618,0.00119853
5871.28964355,0.00110907
5873.21845093,0.00116898
5875.14725830,0.00121093
5877.07606567,0.00119862
5879.00487305,0.00117013
5880.93368042,0.00112918
5882.86248779,0.00117641
5884.79129517,0.00122551
5886.72010254,0.00117177
5888.64890991,0.00115830
5890.57771728,0.00114497
5892.50652466,0.00114909
5894.43533203,0.00119468
5896.36413940,0.00119219
5898.29294678,0.00120587
5900.22175415,0.00113190
5902.15056152,0.00110130
5904.07936890,0.00114529
5906.00817627,0.00110669
5907.93698364,0.00111140
5909.86579102,0.00112399
5911.79459839,0.00114735
5913.72340576,0.00115580
5915.65221313,0.00110669
5917.58102051,0.00118767
5919.50982788,0.00125512
5921.43863525,0.00114373
5923.36744263,0.00114589
5925.29625000,0.00118206
5927.22505737,0.00112342
5929.15386475,0.00113406
5931.08267212,0.00112329
5933.01147949,0.00113378
5934.94028686,0.00111489
5936.86909424,0.00107739
5938.79790161,0.00109312
5940.72670898,0.00107184
5942.65551636,0.00109113
5944.58432373,0.00109380
5946.51313110,0.00108373
5948.44193848,0.00106956
5950.37074585,0.00111651
5952.29955322,0.00110343
5954.22836060,0.00102057
5956.15716797,0.00112037
5958.08597534,0.00109819
5960.01478271,0.00104612
5961.94359009,0.00106001
5963.87239746,0.00104717
5965.80120483,0.00111458
5967.73001221,0.00107253
5969.65881958,0.00104590
5971.58762695,0.00109302
5973.51643433,0.00109096
5975.44524170,0.00106168
5977.37404907,0.00105625
5979.30285645,0.00104068
5981.23166382,0.00100845
5983.16047119,0.00104262
5985.08927856,0.00101796
5987.01808594,0.00101919
5988.94689331,0.00103309
5990.87570068,0.00100993
5992.80450806,0.00104684
5994.73331543,0.00102158
5996.66212280,0.00101043
5998.59093018,0.00105722
6000.51973755,0.00102167
