399.26312622,0.00012495
401.19193359,0.00058510
403.12074097,0.00081180
405.04954834,0.00081976
406.97835571,0.00094687
408.90716309,0.00105117
410.83597046,0.00102996
412.76477783,0.00099496
414.69358521,0.00109190
416.62239258,0.00101257
418.55119995,0.00105690
420.48000732,0.00123343
422.40881470,0.00145442
424.33762207,0.00124533
426.26642944,0.00085451
428.19523682,0.00095476
430.12404419,0.00105963
432.05285156,0.00130321
433.98165894,0.00114328
435.91046631,0.00099436
437.83927368,0.00124103
439.76808105,0.00139818
441.69688843,0.00145372
443.62569580,0.00077046
445.55450317,0.00075383
447.48331055,0.00112135
449.41211792,0.00086189
451.34092529,0.00103503
453.26973267,0.00106303
455.19854004,0.00085573
457.12734741,0.00067647
459.05615479,0.00064742
460.98496216,0.00076088
462.91376953,0.00046784
464.84257690,0.00011342
466.77138428,0.00041875
468.70019165,0.00096035
470.62899902,0.00056690
472.55780640,0.00037121
474.48661377,0.00046627
476.41542114,0.00008206
478.34422852,0.00042844
480.27303589,0.00060106
482.20184326,0.00004070
484.13065063,-0.00014335
486.05945801,-0.00006776
487.98826538,0.00010169
489.91707275,0.00009067
491.84588013,0.00010666
493.77468750,0.00017648
495.70349487,0.00006982
497.63230225,0.00005171
499.56110962,0.00010876
501.48991699,0.00009235
503.41872437,0.00060237
505.34753174,0.00072474
507.27633911,0.00022674
509.20514648,0.00005866
511.13395386,0.00033252
513.06276123,0.00044999
514.99156860,0.00007841
516.92037598,-0.00003587
518.84918335,0.00023016
520.77799072,0.00024726
522.70679810,0.00005553
524.63560547,0.00032449
526.56441284,0.00054124
528.49322021,0.00000738
530.42202759,0.00016181
532.35083496,0.00044510
534.27964233,0.00002087
536.20844971,0.00012255
538.13725708,0.00002835
540.06606445,-0.00000248
541.99487183,0.00040431
543.92367920,0.00032328
545.85248657,0.00026781
547.78129395,0.00032906
549.71010132,0.00002241
551.63890869,-0.00013922
553.56771606,0.00022630
555.49652344,0.00031145
557.42533081,-0.00008383
559.35413818,0.00006224
561.28294556,0.00032193
563.21175293,-0.00001338
565.14056030,-0.00001401
567.06936768,0.00011894
568.99817505,0.00008437
570.92698242,0.00025900
572.85578979,-0.00007463
574.78459717,-0.00005998
576.71340454,0.00031271
578.64221191,0.00010067
580.57101929,0.00008493
582.49982666,-0.00024027
584.42863403,-0.00017963
586.35744141,0.00024359
588.28624878,0.00017722
590.21505615,0.00008758
592.14386353,-0.00008574
594.07267090,0.00019552
596.00147827,0.00019971
597.93028564,0.00004040
599.85909302,-0.00008647
601.78790039,0.00001719
603.71670776,0.00048458
605.64551514,0.00033322
607.57432251,0.00025617
609.50312988,0.00012907
611.43193726,-0.00004387
613.36074463,-0.00003471
615.28955200,-0.00014797
617.21835938,0.00000897
619.14716675,0.00026399
621.07597412,-0.00009060
623.00478149,-0.00029603
624.93358887,0.00027116
626.86239624,0.00046976
628.79120361,-0.00001360
630.72001099,0.00007073
632.64881836,0.00072479
634.57762573,0.00057052
636.50643311,0.00046193
638.43524048,0.00075200
640.36404785,0.00105353
642.29285522,0.00090697
644.22166260,0.00074391
646.15046997,0.00153407
648.07927734,0.00152056
650.00808472,0.00128914
651.93689209,0.00137568
653.86569946,0.00142371
655.79450684,0.00180692
657.72331421,0.00145924
659.65212158,0.00150472
661.58092896,0.00182575
663.50973633,0.00184449
665.43854370,0.00194207
667.36735107,0.00171725
669.29615845,0.00168061
671.22496582,0.00183729
673.15377319,0.00201916
675.08258057,0.00220277
677.01138794,0.00221535
678.94019531,0.00193385
680.86900269,0.00232052
682.79781006,0.00232848
684.72661743,0.00176153
686.65542480,0.00252207
688.58423218,0.00244946
690.51303955,0.00223700
692.44184692,0.00277907
694.37065430,0.00262083
696.29946167,0.00285521
698.22826904,0.00339996
700.15707642,0.00370077
702.08588379,0.00336223
704.01469116,0.00307963
705.94349854,0.00291757
707.87230591,0.00239781
709.80111328,0.00195561
711.72992065,0.00126505
713.65872803,0.00087927
715.58753540,0.00063642
717.51634277,0.00045855
719.44515015,0.00031841
721.37395752,0.00003919
723.30276489,0.00003945
725.23157227,0.00015488
727.16037964,0.00035775
729.08918701,0.00027899
731.01799438,0.00037590
732.94680176,0.00026590
734.87560913,0.00001475
736.80441650,0.00023976
738.73322388,-0.00013470
740.66203125,-0.00004524
742.59083862,0.00035535
744.51964600,0.00003427
746.44845337,-0.00006219
748.37726074,0.00015996
750.30606812,0.00025657
752.23487549,0.00001610
754.16368286,0.00007515
756.09249023,0.00019367
758.02129761,0.00023273
759.95010498,0.00031333
761.87891235,0.00026332
763.80771973,0.00030674
765.73652710,0.00017131
767.66533447,0.00021527
769.59414185,0.00034645
771.52294922,0.00019251
773.45175659,0.00013715
775.38056396,0.00044424
777.30937134,0.00041802
779.23817871,0.00024104
781.16698608,0.00026317
783.09579346,0.00016302
785.02460083,0.00022777
786.95340820,0.00019795
788.88221558,0.00031460
790.81102295,0.00006879
792.73983032,0.00005322
794.66863770,0.00050535
796.59744507,0.00038195
798.52625244,0.00055198
800.45505981,0.00034869
802.38386719,0.00041763
804.31267456,0.00064323
806.24148193,0.00022833
808.17028931,0.00024484
810.09909668,0.00029618
812.02790405,0.00063222
813.95671143,0.00047441
815.88551880,0.00022946
817.81432617,0.00026463
819.74313354,0.00020588
821.67194092,0.00045282
823.60074829,0.00020351
825.52955566,0.00048332
827.45836304,0.00042673
829.38717041,0.00023352
831.31597778,0.00070421
833.24478516,0.00052835
835.17359253,0.00075590
837.10239990,0.00081489
839.03120728,0.00069661
840.96001465,0.00086463
842.88882202,0.00076050
844.81762939,0.00077717
846.74643677,0.00063656
848.67524414,0.00051795
850.60405151,0.00062241
852.53285889,0.00064256
854.46166626,0.00052418
856.39047363,0.00055406
858.31928101,0.00047489
860.24808838,0.00033894
862.17689575,0.00041495
864.10570313,0.00027509
866.03451050,0.00016833
867.96331787,0.00038713
869.89212524,0.00047869
871.82093262,0.00025677
873.74973999,0.00042577
875.67854736,0.00030510
877.60735474,0.00010749
879.53616211,0.00036058
881.46496948,0.00021914
883.39377686,0.00052048
885.32258423,0.00051582
887.25139160,0.00035400
889.18019897,0.00059409
891.10900635,0.00037847
893.03781372,0.00053553
894.96662109,0.00043786
896.89542847,0.00031672
898.82423584,0.00033381
900.75304321,0.00005594
902.68185059,0.00006892
904.61065796,0.00025977
906.53946533,0.00075850
908.46827271,0.00067288
910.39708008,0.00050656
912.32588745,0.00057256
914.25469482,0.00040780
916.18350220,0.00066455
918.11230957,0.00070001
920.04111694,0.00072778
921.96992432,0.00090923
923.89873169,0.00091477
925.82753906,0.00084454
927.75634644,0.00094679
929.68515381,0.00098482
931.61396118,0.00088053
933.54276855,0.00119701
935.47157593,0.00100730
937.40038330,0.00112835
939.32919067,0.00164069
941.25799805,0.00116041
943.18680542,0.00103209
945.11561279,0.00130823
947.04442017,0.00113106
948.97322754,0.00115605
950.90203491,0.00136745
952.83084229,0.00118640
954.75964966,0.00109899
956.68845703,0.00120025
958.61726440,0.00128497
960.54607178,0.00132981
962.47487915,0.00117834
964.40368652,0.00127549
966.33249390,0.00126018
968.26130127,0.00112060
970.19010864,0.00122160
972.11891602,0.00153328
974.04772339,0.00164034
975.97653076,0.00145015
977.90533813,0.00171282
979.83414551,0.00184237
981.76295288,0.00206169
983.69176025,0.00237254
985.62056763,0.00228703
987.54937500,0.00258796
989.47818237,0.00287773
991.40698975,0.00294252
993.33579712,0.00338167
995.26460449,0.00403012
997.19341187,0.00415193
999.12221924,0.00451199
1001.05102661,0.00511385
1002.97983398,0.00519874
1004.90864136,0.00560635
1006.83744873,0.00583107
1008.76625610,0.00613616
1010.69506348,0.00672253
1012.62387085,0.00702837
1014.55267822,0.00741162
1016.48148560,0.00772680
1018.41029297,0.00819407
1020.33910034,0.00841541
1022.26790771,0.00871008
1024.19671509,0.00921782
1026.12552246,0.00948711
1028.05432983,0.00972492
1029.98313721,0.00967390
1031.91194458,0.01020321
1033.84075195,0.01061818
1035.76955933,0.01051552
1037.69836670,0.01093681
1039.62717407,0.01088797
1041.55598145,0.01064064
1043.48478882,0.01060777
1045.41359619,0.01043929
1047.34240356,0.01048559
1049.27121094,0.01028842
1051.20001831,0.01007066
1053.12882568,0.00996839
1055.05763306,0.00957742
1056.98644043,0.00940252
1058.91524780,0.00911411
1060.84405518,0.00885090
1062.77286255,0.00880226
1064.70166992,0.00821492
1066.63047729,0.00790971
1068.55928467,0.00794434
1070.48809204,0.00759480
1072.41689941,0.00699776
1074.34570679,0.00660924
1076.27451416,0.00658945
1078.20332153,0.00621025
1080.13212891,0.00591034
1082.06093628,0.00573279
1083.98974365,0.00543038
1085.91855103,0.00532641
1087.84735840,0.00499322
1089.77616577,0.00476427
1091.70497314,0.00454470
1093.63378052,0.00434277
1095.56258789,0.00428478
1097.49139526,0.00394981
1099.42020264,0.00390794
1101.34901001,0.00396837
1103.27781738,0.00377267
1105.20662476,0.00370641
1107.13543213,0.00363185
1109.06423950,0.00358529
1110.99304687,0.00374725
1112.92185425,0.00359877
1114.85066162,0.00327284
1116.77946899,0.00353955
1118.70827637,0.00373901
1120.63708374,0.00339470
1122.56589111,0.00343689
1124.49469849,0.00377151
1126.42350586,0.00365054
1128.35231323,0.00362786
1130.28112061,0.00376323
1132.20992798,0.00373877
1134.13873535,0.00403353
1136.06754272,0.00428170
1137.99635010,0.00440247
1139.92515747,0.00478848
1141.85396484,0.00498963
1143.78277222,0.00510721
1145.71157959,0.00563776
1147.64038696,0.00594066
1149.56919434,0.00589970
1151.49800171,0.00626589
1153.42680908,0.00670758
1155.35561646,0.00705063
1157.28442383,0.00724520
1159.21323120,0.00736460
1161.14203857,0.00779074
1163.07084595,0.00817307
1164.99965332,0.00842330
1166.92846069,0.00869600
1168.85726807,0.00911366
1170.78607544,0.00928526
1172.71488281,0.00946405
1174.64369019,0.01014596
1176.57249756,0.01043945
1178.50130493,0.01071456
1180.43011230,0.01138701
1182.35891968,0.01163512
1184.28772705,0.01190328
1186.21653442,0.01268558
1188.14534180,0.01326323
1190.07414917,0.01380537
1192.00295654,0.01436657
1193.93176392,0.01484961
1195.86057129,0.01592165
1197.78937866,0.01659973
1199.71818604,0.01718043
1201.64699341,0.01810138
1203.57580078,0.01854401
1205.50460815,0.01946032
1207.43341553,0.02040727
1209.36222290,0.02094325
1211.29103027,0.02144437
1213.21983765,0.02200498
1215.14864502,0.02265126
1217.07745239,0.02286618
1219.00625977,0.02335085
1220.93506714,0.02363583
1222.86387451,0.02372565
1224.79268188,0.02423584
1226.72148926,0.02418840
1228.65029663,0.02434227
1230.57910400,0.02460096
1232.50791138,0.02439915
1234.43671875,0.02452133
1236.36552612,0.02450693
1238.29433350,0.02435188
1240.22314087,0.02434145
1242.15194824,0.02423857
1244.08075562,0.02416117
1246.00956299,0.02388391
1247.93837036,0.02362566
1249.86717773,0.02361526
1251.79598511,0.02340289
1253.72479248,0.02317501
1255.65359985,0.02293229
1257.58240723,0.02244317
1259.51121460,0.02204467
1261.44002197,0.02184044
1263.36882935,0.02165773
1265.29763672,0.02130631
1267.22644409,0.02101862
1269.15525146,0.02091970
1271.08405884,0.02047760
1273.01286621,0.02000060
1274.94167358,0.01989875
1276.87048096,0.01943920
1278.79928833,0.01888489
1280.72809570,0.01862425
1282.65690308,0.01828289
1284.58571045,0.01809132
1286.51451782,0.01762566
1288.44332520,0.01721411
1290.37213257,0.01703263
1292.30093994,0.01665309
1294.22974731,0.01680746
1296.15855469,0.01675216
1298.08736206,0.01664090
1300.01616943,0.01678248
1301.94497681,0.01653742
1303.87378418,0.01678175
1305.80259155,0.01695553
1307.73139893,0.01709356
1309.66020630,0.01760672
1311.58901367,0.01772389
1313.51782104,0.01794618
1315.44662842,0.01833419
1317.37543579,0.01881839
1319.30424316,0.01945710
1321.23305054,0.01999559
1323.16185791,0.02061617
1325.09066528,0.02114306
1327.01947266,0.02161532
1328.94828003,0.02222098
1330.87708740,0.02288000
1332.80589478,0.02347903
1334.73470215,0.02363313
1336.66350952,0.02358468
1338.59231689,0.02344233
1340.52112427,0.02378789
1342.44993164,0.02494288
1344.37873901,0.02504093
1346.30754639,0.02490894
1348.23635376,0.02508820
1350.16516113,0.02468077
1352.09396851,0.02473975
1354.02277588,0.02441102
1355.95158325,0.02411750
1357.88039062,0.02419605
1359.80919800,0.02371092
1361.73800537,0.02258034
1363.66681274,0.02216949
1365.59562012,0.02343409
1367.52442749,0.02288817
1369.45323486,0.02269039
1371.38204224,0.02313485
1373.31084961,0.02152393
1375.23965698,0.02176583
1377.16846436,0.02245672
1379.09727173,0.02255553
1381.02607910,0.02252388
1382.95488647,0.02233629
1384.88369385,0.02248699
1386.81250122,0.02113422
1388.74130859,0.02153058
1390.67011597,0.02357608
1392.59892334,0.02266976
1394.52773071,0.02104719
1396.45653809,0.02231435
1398.38534546,0.02209240
1400.31415283,0.02196409
1402.24296021,0.02418185
1404.17176758,0.02260054
1406.10057495,0.02289738
1408.02938232,0.02388170
1409.95818970,0.02280717
1411.88699707,0.02331513
1413.81580444,0.02247431
1415.74461182,0.02315412
1417.67341919,0.02026330
1419.60222656,0.01796472
1421.53103394,0.02122490
1423.45984131,0.02036791
1425.38864868,0.02013343
1427.31745605,0.02048822
1429.24626343,0.01877100
1431.17507080,0.01816094
1433.10387817,0.01858085
1435.03268555,0.01662301
1436.96149292,0.01353837
1438.89030029,0.01621478
1440.81910767,0.01669311
1442.74791504,0.01540376
1444.67672241,0.01637081
1446.60552979,0.01473545
1448.53433716,0.01503004
1450.46314453,0.01549464
1452.39195190,0.01584975
1454.32075928,0.01640555
1456.24956665,0.01297967
1458.17837402,0.01354403
1460.10718140,0.01878615
1462.03598877,0.02017652
1463.96479614,0.01964130
1465.89360352,0.02028286
1467.82241089,0.02362743
1469.75121826,0.02532551
1471.68002563,0.02168702
1473.60883301,0.02297309
1475.53764038,0.02652810
1477.46644775,0.02866946
1479.39525513,0.03176229
1481.32406250,0.03183276
1483.25286987,0.03410755
1485.18167725,0.03514073
1487.11048462,0.03399332
1489.03929199,0.03335198
1490.96809937,0.03354122
1492.89690674,0.04015765
1494.82571411,0.03861523
1496.75452148,0.03402334
1498.68332886,0.03911570
1500.61213623,0.04036181
1502.54094360,0.04402379
1504.46975098,0.04061510
1506.39855835,0.02756038
1508.32736572,0.03523831
1510.25617310,0.04228286
1512.18498047,0.04103569
1514.11378784,0.04477738
1516.04259521,0.03937785
1517.97140259,0.04136284
1519.90020996,0.03959872
1521.82901733,0.03351019
1523.75782471,0.04246784
1525.68663208,0.04150280
1527.61543945,0.04153609
1529.54424683,0.04676123
1531.47305420,0.04431368
1533.40186157,0.03981715
1535.33066895,0.04315052
1537.25947632,0.04632927
1539.18828369,0.03104391
1541.11709106,0.03315377
1543.04589844,0.04067411
1544.97470581,0.03908866
1546.90351318,0.04764890
1548.83232056,0.04368086
1550.76112793,0.04542357
1552.68993530,0.04479529
1554.61874268,0.04018566
1556.54755005,0.04331720
1558.47635742,0.02809716
1560.40516479,0.03170788
1562.33397217,0.04775941
1564.26277954,0.04435841
1566.19158691,0.04628109
1568.12039429,0.04541135
1570.04920166,0.03936185
1571.97800903,0.04693652
1573.90681641,0.04719308
1575.83562378,0.03622095
1577.76443115,0.04210002
1579.69323853,0.04799543
1581.62204590,0.04571585
1583.55085327,0.04695594
1585.47966064,0.04623093
1587.40846802,0.04675925
1589.33727539,0.04616815
1591.26608276,0.04621565
1593.19489014,0.04609568
1595.12369751,0.04547823
1597.05250488,0.04629981
1598.98131226,0.04585592
1600.91011963,0.04618195
1602.83892700,0.04518896
1604.76773437,0.04598309
1606.69654175,0.04523432
1608.62534912,0.04509567
1610.55415649,0.04499160
1612.48296387,0.04549797
1614.41177124,0.04593488
1616.34057861,0.03625610
1618.26938599,0.04036365
1620.19819336,0.04768354
1622.12700073,0.04124226
1624.05580811,0.04174958
1625.98461548,0.04417323
1627.91342285,0.04372889
1629.84223022,0.04362183
1631.77103760,0.04708845
1633.69984497,0.04246357
1635.62865234,0.03388626
1637.55745972,0.04089076
1639.48626709,0.04570081
1641.41507446,0.04437527
1643.34388184,0.04563438
1645.27268921,0.04006010
1647.20149658,0.03439771
1649.13030396,0.04482802
1651.05911133,0.04170083
1652.98791870,0.02461086
1654.91672607,0.03611323
1656.84553345,0.04658248
1658.77434082,0.04451347
1660.70314819,0.04590815
1662.63195557,0.04085812
1664.56076294,0.04359995
1666.48957031,0.04737192
1668.41837769,0.04006849
1670.34718506,0.03883350
1672.27599243,0.04516657
1674.20479980,0.04085889
1676.13360718,0.03919996
1678.06241455,0.04609155
1679.99122192,0.04398505
1681.92002930,0.04309171
1683.84883667,0.03360010
1685.77764404,0.03424018
1687.70645142,0.04862865
1689.63525879,0.04091923
1691.56406616,0.04630817
1693.49287354,0.04660676
1695.42168091,0.03244950
1697.35048828,0.04171699
1699.27929565,0.03514676
1701.20810303,0.03158164
1703.13691040,0.04537567
1705.06571777,0.04068437
1706.99452515,0.04151377
1708.92333252,0.04558742
1710.85213989,0.04353783
1712.78094727,0.04434665
1714.70975464,0.04038334
1716.63856201,0.03574945
1718.56736938,0.03522237
1720.49617676,0.04295372
1722.42498413,0.04462102
1724.35379150,0.04111642
1726.28259888,0.04554912
1728.21140625,0.04130320
1730.14021362,0.04171697
1732.06902100,0.04029564
1733.99782837,0.02927165
1735.92663574,0.03846212
1737.85544312,0.04274725
1739.78425049,0.03727643
1741.71305786,0.04134313
1743.64186523,0.04170514
1745.57067261,0.04169707
1747.49947998,0.04189914
1749.42828735,0.03951506
1751.35709473,0.03776942
1753.28590210,0.04285194
1755.21470947,0.04477162
1757.14351685,0.04015884
1759.07232422,0.04497857
1761.00113159,0.04152884
1762.92993896,0.04005708
1764.85874634,0.04692800
1766.78755371,0.04127841
1768.71636108,0.04183294
1770.64516846,0.04130250
1772.57397583,0.03644434
1774.50278320,0.04165183
1776.43159058,0.04426714
1778.36039795,0.04368536
1780.28920532,0.04293127
1782.21801270,0.04334756
1784.14682007,0.04320152
1786.07562744,0.04209044
1788.00443481,0.04494034
1789.93324219,0.04322103
1791.86204956,0.03821658
1793.79085693,0.04056913
1795.71966431,0.04398462
1797.64847168,0.04332754
1799.57727905,0.04252361
1801.50608643,0.04153817
1803.43489380,0.04322321
1805.36370117,0.04439924
1807.29250854,0.04367619
1809.22131592,0.04363843
1811.15012329,0.04229717
1813.07893066,0.04389688
1815.00773804,0.04403141
1816.93654541,0.04354500
1818.86535278,0.04385098
1820.79416016,0.04372185
1822.72296753,0.04441312
1824.65177490,0.04087646
1826.58058228,0.04281770
1828.50938965,0.04247689
1830.43819702,0.03952693
1832.36700439,0.04392414
1834.29581177,0.04331001
1836.22461914,0.04350791
1838.15342651,0.04323561
1840.08223389,0.04362072
1842.01104126,0.04348624
1843.93984863,0.03750696
1845.86865601,0.04089151
1847.79746338,0.04337050
1849.72627075,0.04219922
1851.65507812,0.04370513
1853.58388550,0.04274060
1855.51269287,0.04316479
1857.44150024,0.04271650
1859.37030762,0.04272580
1861.29911499,0.04285373
1863.22792236,0.04223353
1865.15672974,0.04292073
1867.08553711,0.04090764
1869.01434448,0.03885124
1870.94315186,0.04096513
1872.87195923,0.04272737
1874.80076660,0.04180990
1876.72957397,0.04229084
1878.65838135,0.04192130
1880.58718872,0.04175695
1882.51599609,0.04227673
1884.44480347,0.04118478
1886.37361084,0.04204855
1888.30241821,0.04076342
1890.23122559,0.03993379
1892.16003296,0.04176812
1894.08884033,0.04079887
1896.01764771,0.04081115
1897.94645508,0.04139499
1899.87526245,0.04116054
1901.80406982,0.04118071
1903.73287720,0.04084997
1905.66168457,0.04113130
1907.59049194,0.04046459
1909.51929932,0.04024053
1911.44810669,0.04055312
1913.37691406,0.04046241
1915.30572144,0.04092348
1917.23452881,0.03895006
1919.16333618,0.03907443
1921.09214355,0.04076437
1923.02095093,0.03914485
1924.94975830,0.04017811
1926.87856567,0.04065374
1928.80737305,0.03979381
1930.73618042,0.04041240
1932.66498779,0.03982448
1934.59379517,0.04017013
1936.52260254,0.03988716
1938.45140991,0.04010165
1940.38021729,0.04001089
1942.30902466,0.03841133
1944.23783203,0.03927922
1946.16663940,0.03968148
1948.09544678,0.03955535
1950.02425415,0.03975948
1951.95306152,0.03955525
1953.88186890,0.03961033
1955.81067627,0.03944706
1957.73948364,0.03955018
1959.66829102,0.03947552
1961.59709839,0.03942424
1963.52590576,0.03946289
1965.45471313,0.03912143
1967.38352051,0.03871912
1969.31232788,0.03922509
1971.24113525,0.03943842
1973.16994263,0.03890195
1975.09875000,0.03916480
1977.02755737,0.03902419
1978.95636475,0.03895851
1980.88517212,0.03890248
1982.81397949,0.03879711
1984.74278687,0.03888185
1986.67159424,0.03842247
1988.60040161,0.03851039
1990.52920898,0.03806427
1992.45801636,0.03769935
1994.38682373,0.03840144
1996.31563110,0.03849139
1998.24443848,0.03811000
2000.17324585,0.03813544
2002.10205322,0.03815491
2004.03086060,0.03794150
2005.95966797,0.03781214
2007.88847534,0.03762626
2009.81728271,0.03777238
2011.74609009,0.03758350
2013.67489746,0.03745440
2015.60370483,0.03735599
2017.53251221,0.03684592
2019.46131958,0.03716704
2021.39012695,0.03717259
2023.31893433,0.03709996
2025.24774170,0.03700430
2027.17654907,0.03681032
2029.10535645,0.03689404
2031.03416382,0.03642031
2032.96297119,0.03650323
2034.89177856,0.03648876
2036.82058594,0.03626985
2038.74939331,0.03628492
2040.67820068,0.03605487
2042.60700806,0.03608068
2044.53581543,0.03602230
2046.46462280,0.03588637
2048.39343018,0.03572986
2050.32223755,0.03572084
2052.25104492,0.03560721
2054.17985229,0.03543724
2056.10865967,0.03553964
2058.03746704,0.03543123
2059.96627441,0.03533383
2061.89508179,0.03522525
2063.82388916,0.03496175
2065.75269653,0.03487378
2067.68150391,0.03498454
2069.61031128,0.03492457
2071.53911865,0.03490848
2073.46792603,0.03476128
2075.39673340,0.03463748
2077.32554077,0.03475363
2079.25434814,0.03455031
2081.18315552,0.03453000
2083.11196289,0.03439327
2085.04077026,0.03436689
2086.96957764,0.03429330
2088.89838501,0.03398346
2090.82719238,0.03412148
2092.75599976,0.03388645
2094.68480713,0.03391499
2096.61361450,0.03398441
2098.54242187,0.03375164
2100.47122925,0.03373291
2102.40003662,0.03357705
2104.32884399,0.03368300
2106.25765137,0.03359540
2108.18645874,0.03341368
2110.11526611,0.03341059
2112.04407349,0.03328744
2113.97288086,0.03314437
2115.90168823,0.03304277
2117.83049561,0.03307631
2119.75930298,0.03300260
2121.68811035,0.03288986
2123.61691772,0.03294281
2125.54572510,0.03299303
2127.47453247,0.03280114
2129.40333984,0.03272186
2131.33214722,0.03275330
2133.26095459,0.03268874
2135.18976196,0.03250381
2137.11856934,0.03244843
2139.04737671,0.03261004
2140.97618408,0.03241638
2142.90499146,0.03243501
2144.83379883,0.03225892
2146.76260620,0.03211296
2148.69141357,0.03228638
2150.62022095,0.03201463
2152.54902832,0.03210915
2154.47783569,0.03198478
2156.40664307,0.03182389
2158.33545044,0.03194559
2160.26425781,0.03191333
2162.19306519,0.03184243
2164.12187256,0.03164639
2166.05067993,0.03180412
2167.97948730,0.03166776
2169.90829468,0.03155949
2171.83710205,0.03160658
2173.76590942,0.03151135
2175.69471680,0.03148254
2177.62352417,0.03134038
2179.55233154,0.03143099
2181.48113892,0.03126492
2183.40994629,0.03126168
2185.33875366,0.03119855
2187.26756104,0.03099639
2189.19636841,0.03118930
2191.12517578,0.03108620
2193.05398315,0.03095384
2194.98279053,0.03083419
2196.91159790,0.03088095
2198.84040527,0.03084314
2200.76921265,0.03077244
2202.69802002,0.03089799
2204.62682739,0.03082825
2206.55563477,0.03070714
2208.48444214,0.03054194
2210.41324951,0.03072314
2212.34205688,0.03069412
2214.27086426,0.03049422
2216.19967163,0.03039129
2218.12847900,0.03031400
2220.05728638,0.03039554
2221.98609375,0.03019427
2223.91490112,0.03032401
2225.84370850,0.03023368
2227.77251587,0.03004244
2229.70132324,0.03013190
2231.63013062,0.02990188
2233.55893799,0.02993729
2235.48774536,0.02989422
2237.41655273,0.02975592
2239.34536011,0.02975509
2241.27416748,0.02971942
2243.20297485,0.02966873
2245.13178223,0.02962025
2247.06058960,0.02950767
2248.98939697,0.02936319
2250.91820435,0.02942457
2252.84701172,0.02929694
2254.77581909,0.02928757
2256.70462646,0.02929818
2258.63343384,0.02914906
2260.56224121,0.02919550
2262.49104858,0.02912712
2264.41985596,0.02901493
2266.34866333,0.02891401
2268.27747070,0.02891821
2270.20627808,0.02888854
2272.13508545,0.02874468
2274.06389282,0.02873275
2275.99270020,0.02880569
2277.92150757,0.02872081
2279.85031494,0.02861613
2281.77912231,0.02866293
2283.70792969,0.02849235
2285.63673706,0.02855014
2287.56554443,0.02859320
2289.49435181,0.02832143
2291.42315918,0.02827713
2293.35196655,0.02821769
2295.28077393,0.02811487
2297.20958130,0.02804219
2299.13838867,0.02796277
2301.06719604,0.02784713
2302.99600342,0.02768824
2304.92481079,0.02747471
2306.85361816,0.02735237
2308.78242554,0.02714732
2310.71123291,0.02688923
2312.64004028,0.02679111
2314.56884766,0.02641404
2316.49765503,0.02621674
2318.42646240,0.02588863
2320.35526978,0.02546895
2322.28407715,0.02522178
2324.21288452,0.02472174
2326.14169189,0.02463374
2328.07049927,0.02437053
2329.99930664,0.02400810
2331.92811401,0.02389884
2333.85692139,0.02372365
2335.78572876,0.02367811
2337.71453613,0.02355761
2339.64334351,0.02351526
2341.57215088,0.02362266
2343.50095825,0.02399641
2345.42976562,0.02436743
2347.35857300,0.02530536
2349.28738037,0.02608030
2351.21618774,0.02515352
2353.14499512,0.02405702
2355.07380249,0.02321035
2357.00260986,0.02250128
2358.93141724,0.02206232
2360.86022461,0.02174602
2362.78903198,0.02169074
2364.71783936,0.02164125
2366.64664673,0.02204094
2368.57545410,0.02259160
2370.50426147,0.02304459
2372.43306885,0.02360628
2374.36187622,0.02426526
2376.29068359,0.02482595
2378.21949097,0.02522950
2380.14829834,0.02575928
2382.07710571,0.02597552
2384.00591309,0.02598800
2385.93472046,0.02604666
2387.86352783,0.02610298
2389.79233521,0.02606777
2391.72114258,0.02602368
2393.64994995,0.02602202
2395.57875732,0.02589072
2397.50756470,0.02591657
2399.43637207,0.02583234
2401.36517944,0.02581208
2403.29398682,0.02584563
2405.22279419,0.02570155
2407.15160156,0.02565777
2409.08040894,0.02557943
2411.00921631,0.02554899
2412.93802368,0.02544256
2414.86683105,0.02549524
2416.79563843,0.02554264
2418.72444580,0.02534551
2420.65325317,0.02532209
2422.58206055,0.02532075
2424.51086792,0.02528717
2426.43967529,0.02520940
2428.36848267,0.02517238
2430.29729004,0.02508501
2432.22609741,0.02502079
2434.15490479,0.02498752
2436.08371216,0.02493224
2438.01251953,0.02509853
2439.94132690,0.02492649
2441.87013428,0.02472544
2443.79894165,0.02488410
2445.72774902,0.02485713
2447.65655640,0.02476879
2449.58536377,0.02471883
2451.51417114,0.02462927
2453.44297852,0.02458679
2455.37178589,0.02456957
2457.30059326,0.02458696
2459.22940063,0.02447514
2461.15820801,0.02432119
2463.08701538,0.02443014
2465.01582275,0.02438333
2466.94463013,0.02434005
2468.87343750,0.02433692
2470.80224487,0.02409632
2472.73105225,0.02416354
2474.65985962,0.02419096
2476.58866699,0.02405835
2478.51747437,0.02403984
2480.44628174,0.02402976
2482.37508911,0.02397863
2484.30389648,0.02392484
2486.23270386,0.02397544
2488.16151123,0.02387816
2490.09031860,0.02388896
2492.01912598,0.02386159
2493.94793335,0.02377921
2495.87674072,0.02380013
2497.80554810,0.02365189
2499.73435547,0.02364052
2501.66316284,0.02351906
2503.59197021,0.02342094
2505.52077759,0.02350249
2507.44958496,0.02347755
2509.37839233,0.02346585
2511.30719971,0.02335910
2513.23600708,0.02321373
2515.16481445,0.02322551
2517.09362183,0.02323830
2519.02242920,0.02312269
2520.95123657,0.02323796
2522.88004395,0.02320959
2524.80885132,0.02304494
2526.73765869,0.02309569
2528.66646606,0.02305234
2530.59527344,0.02306511
2532.52408081,0.02287745
2534.45288818,0.02278874
2536.38169556,0.02283298
2538.31050293,0.02281943
2540.23931030,0.02288041
2542.16811768,0.02268522
2544.09692505,0.02271361
2546.02573242,0.02270347
2547.95453979,0.02259129
2549.88334717,0.02257749
2551.81215454,0.02250548
2553.74096191,0.02255926
2555.66976929,0.02242822
2557.59857666,0.02237889
2559.52738403,0.02234033
2561.45619141,0.02225430
2563.38499878,0.02228751
2565.31380615,0.02229968
2567.24261353,0.02236712
2569.17142090,0.02224002
2571.10022827,0.02217048
2573.02903564,0.02219898
2574.95784302,0.02210611
2576.88665039,0.02210519
2578.81545776,0.02210703
2580.74426514,0.02194185
2582.67307251,0.02187051
2584.60187988,0.02197532
2586.53068726,0.02191595
2588.45949463,0.02172374
2590.38830200,0.02165667
2592.31710937,0.02176906
2594.24591675,0.02173046
2596.17472412,0.02168704
2598.10353149,0.02167993
2600.03233887,0.02157603
2601.96114624,0.02162035
2603.88995361,0.02151585
2605.81876099,0.02140748
2607.74756836,0.02137980
2609.67637573,0.02145451
2611.60518311,0.02144723
2613.53399048,0.02124193
2615.46279785,0.02128482
2617.39160522,0.02118793
2619.32041260,0.02115382
2621.24921997,0.02111362
2623.17802734,0.02103045
2625.10683472,0.02115002
2627.03564209,0.02106657
2628.96444946,0.02111367
2630.89325684,0.02107287
2632.82206421,0.02096636
2634.75087158,0.02098199
2636.67967895,0.02092213
2638.60848633,0.02088557
2640.53729370,0.02080093
2642.46610107,0.02080186
2644.39490845,0.02074173
2646.32371582,0.02067523
2648.25252319,0.02061038
2650.18133057,0.02056069
2652.11013794,0.02053194
2654.03894531,0.02048765
2655.96775269,0.02062424
2657.89656006,0.02057352
2659.82536743,0.02051272
2661.75417480,0.02041093
2663.68298218,0.02029233
2665.61178955,0.02038138
2667.54059692,0.02028962
2669.46940430,0.02022918
2671.39821167,0.02014035
2673.32701904,0.02008033
2675.25582642,0.02011295
2677.18463379,0.02009303
2679.11344116,0.02011197
2681.04224854,0.01993879
2682.97105591,0.01988493
2684.89986328,0.01999047
2686.82867065,0.01997833
2688.75747803,0.01992984
2690.68628540,0.01983564
2692.61509277,0.01978544
2694.54390015,0.01968533
2696.47270752,0.01965342
2698.40151489,0.01973981
2700.33032227,0.01968253
2702.25912964,0.01962588
2704.18793701,0.01946182
2706.11674438,0.01936866
2708.04555176,0.01954860
2709.97435913,0.01943872
2711.90316650,0.01936980
2713.83197388,0.01946180
2715.76078125,0.01930716
2717.68958862,0.01928578
2719.61839600,0.01934711
2721.54720337,0.01924029
2723.47601074,0.01914586
2725.40481812,0.01919838
2727.33362549,0.01912863
2729.26243286,0.01906793
2731.19124023,0.01915783
2733.12004761,0.01904623
2735.04885498,0.01906642
2736.97766235,0.01897782
2738.90646973,0.01877782
2740.83527710,0.01892582
2742.76408447,0.01883862
2744.69289185,0.01874039
2746.62169922,0.01887194
2748.55050659,0.01880214
2750.47931396,0.01870306
2752.40812134,0.01871024
2754.33692871,0.01864009
2756.26573608,0.01848588
2758.19454346,0.01853674
2760.12335083,0.01861065
2762.05215820,0.01847371
2763.98096558,0.01849222
2765.90977295,0.01842121
2767.83858032,0.01820979
2769.76738770,0.01831977
2771.69619507,0.01829468
2773.62500244,0.01814902
2775.55380981,0.01822333
2777.48261719,0.01825331
2779.41142456,0.01819476
2781.34023193,0.01802988
2783.26903931,0.01799655
2785.19784668,0.01804891
2787.12665405,0.01793494
2789.05546143,0.01786959
2790.98426880,0.01784308
2792.91307617,0.01781527
2794.84188354,0.01778752
2796.77069092,0.01771061
2798.69949829,0.01763581
2800.62830566,0.01758392
2802.55711304,0.01756947
2804.48592041,0.01756935
2806.41472778,0.01755949
2808.34353516,0.01760345
2810.27234253,0.01748617
2812.20114990,0.01739628
2814.12995728,0.01753815
2816.05876465,0.01731839
2817.98757202,0.01728261
2819.91637939,0.01746598
2821.84518677,0.01731466
2823.77399414,0.01731166
2825.70280151,0.01714524
2827.63160889,0.01709301
2829.56041626,0.01721662
2831.48922363,0.01709852
2833.41803101,0.01714267
2835.34683838,0.01709807
2837.27564575,0.01698460
2839.20445312,0.01689329
2841.13326050,0.01674361
2843.06206787,0.01672333
2844.99087524,0.01670796
2846.91968262,0.01655237
2848.84848999,0.01650611
2850.77729736,0.01659115
2852.70610474,0.01644336
2854.63491211,0.01636623
2856.56371948,0.01627093
2858.49252686,0.01612782
2860.42133423,0.01630706
2862.35014160,0.01639735
2864.27894897,0.01628943
2866.20775635,0.01620743
2868.13656372,0.01621221
2870.06537109,0.01616290
2871.99417847,0.01607757
2873.92298584,0.01605389
2875.85179321,0.01605246
2877.78060059,0.01603391
2879.70940796,0.01597296
2881.63821533,0.01607442
2883.56702270,0.01601498
2885.49583008,0.01580004
2887.42463745,0.01588266
2889.35344482,0.01594018
2891.28225220,0.01578908
2893.21105957,0.01573508
2895.13986694,0.01568338
2897.06867432,0.01564229
2898.99748169,0.01572643
2900.92628906,0.01552099
2902.85509644,0.01548374
2904.78390381,0.01557705
2906.71271118,0.01539731
2908.64151855,0.01544432
2910.57032593,0.01543331
2912.49913330,0.01545851
2914.42794067,0.01542266
2916.35674805,0.01525924
2918.28555542,0.01534769
2920.21436279,0.01527134
2922.14317017,0.01519389
2924.07197754,0.01517925
2926.00078491,0.01512129
2927.92959229,0.01510811
2929.85839966,0.01513293
2931.78720703,0.01513905
2933.71601440,0.01504737
2935.64482178,0.01506821
2937.57362915,0.01502502
2939.50243652,0.01499251
2941.43124390,0.01502659
2943.36005127,0.01493203
2945.28885864,0.01488466
2947.21766602,0.01493354
2949.14647339,0.01497229
2951.07528076,0.01496470
2953.00408813,0.01488803
2954.93289551,0.01470591
2956.86170288,0.01471605
2958.79051025,0.01471577
2960.71931763,0.01461971
2962.64812500,0.01459844
2964.57693237,0.01442617
2966.50573975,0.01449786
2968.43454712,0.01457354
2970.36335449,0.01451609
2972.29216187,0.01463757
2974.22096924,0.01456858
2976.14977661,0.01448208
2978.07858398,0.01453105
2980.00739136,0.01446625
2981.93619873,0.01436464
2983.86500610,0.01447697
2985.79381348,0.01449689
2987.72262085,0.01437424
2989.65142822,0.01451415
2991.58023560,0.01440978
2993.50904297,0.01412838
2995.43785034,0.01426434
2997.36665771,0.01436229
2999.29546509,0.01421416
3001.22427246,0.01415935
3003.15307983,0.01416264
3005.08188721,0.01412221
3007.01069458,0.01405217
3008.93950195,0.01406022
3010.86830933,0.01407873
3012.79711670,0.01398486
3014.72592407,0.01393788
3016.65473145,0.01393196
3018.58353882,0.01395760
3020.51234619,0.01384716
3022.44115356,0.01372945
3024.36996094,0.01375822
3026.29876831,0.01368158
3028.22757568,0.01369548
3030.15638306,0.01361947
3032.08519043,0.01354892
3034.01399780,0.01361458
3035.94280518,0.01352613
3037.87161255,0.01348036
3039.80041992,0.01337449
3041.72922729,0.01335954
3043.65803467,0.01348035
3045.58684204,0.01348709
3047.51564941,0.01344879
3049.44445679,0.01335690
3051.37326416,0.01331502
3053.30207153,0.01332559
3055.23087891,0.01323963
3057.15968628,0.01316347
3059.08849365,0.01328507
3061.01730103,0.01320680
3062.94610840,0.01304589
3064.87491577,0.01308053
3066.80372314,0.01301771
3068.73253052,0.01304855
3070.66133789,0.01304701
3072.59014526,0.01297034
3074.51895264,0.01285164
3076.44776001,0.01282898
3078.37656738,0.01300645
3080.30537476,0.01286609
3082.23418213,0.01276861
3084.16298950,0.01288927
3086.09179687,0.01291226
3088.02060425,0.01284505
3089.94941162,0.01273399
3091.87821899,0.01266336
3093.80702637,0.01259372
3095.73583374,0.01260628
3097.66464111,0.01257536
3099.59344849,0.01248808
3101.52225586,0.01246791
3103.45106323,0.01252262
3105.37987061,0.01252392
3107.30867798,0.01238349
3109.23748535,0.01232509
3111.16629272,0.01238698
3113.09510010,0.01243593
3115.02390747,0.01227810
3116.95271484,0.01222030
3118.88152222,0.01222611
3120.81032959,0.01210275
3122.73913696,0.01213983
3124.66794434,0.01206344
3126.59675171,0.01199471
3128.52555908,0.01201166
3130.45436645,0.01201225
3132.38317383,0.01195375
3134.31198120,0.01177858
3136.24078857,0.01183345
3138.16959595,0.01184160
3140.09840332,0.01176233
3142.02721069,0.01178070
3143.95601807,0.01177352
3145.88482544,0.01173495
3147.81363281,0.01172308
3149.74244019,0.01169476
3151.67124756,0.01155017
3153.60005493,0.01162265
3155.52886230,0.01161586
3157.45766968,0.01147278
3159.38647705,0.01148183
3161.31528442,0.01140363
3163.24409180,0.01143542
3165.17289917,0.01139824
3167.10170654,0.01131027
3169.03051392,0.01130254
3170.95932129,0.01119007
3172.88812866,0.01121335
3174.81693604,0.01124614
3176.74574341,0.01117279
3178.67455078,0.01107351
3180.60335815,0.01101157
3182.53216553,0.01104552
3184.46097290,0.01105596
3186.38978027,0.01104930
3188.31858765,0.01100959
3190.24739502,0.01094867
3192.17620239,0.01089183
3194.10500977,0.01082406
3196.03381714,0.01087144
3197.96262451,0.01091313
3199.89143188,0.01080657
3201.82023926,0.01080792
3203.74904663,0.01086191
3205.67785400,0.01075704
3207.60666138,0.01062691
3209.53546875,0.01059345
3211.46427612,0.01066762
3213.39308350,0.01066480
3215.32189087,0.01059538
3217.25069824,0.01061898
3219.17950562,0.01057158
3221.10831299,0.01050587
3223.03712036,0.01046955
3224.96592773,0.01038176
3226.89473511,0.01047117
3228.82354248,0.01044835
3230.75234985,0.01026343
3232.68115723,0.01035319
3234.60996460,0.01038913
3236.53877197,0.01032858
3238.46757935,0.01024142
3240.39638672,0.01025212
3242.32519409,0.01030833
3244.25400146,0.01013962
3246.18280884,0.01030903
3248.11161621,0.01030420
3250.04042358,0.01015153
3251.96923096,0.01025717
3253.89803833,0.01008557
3255.82684570,0.01022449
3257.75565308,0.01026767
3259.68446045,0.01009409
3261.61326782,0.01015657
3263.54207520,0.01003475
3265.47088257,0.01007520
3267.39968994,0.01005194
3269.32849731,0.00993703
3271.25730469,0.01006863
3273.18611206,0.01005279
3275.11491943,0.00991152
3277.04372681,0.00996643
3278.97253418,0.01000894
3280.90134155,0.00993384
3282.83014893,0.00995597
3284.75895630,0.00989015
3286.68776367,0.00993254
3288.61657104,0.00987180
3290.54537842,0.00975030
3292.47418579,0.00989660
3294.40299316,0.00980612
3296.33180054,0.00985424
3298.26060791,0.00988853
3300.18941528,0.00973811
3302.11822266,0.00982987
3304.04703003,0.00980019
3305.97583740,0.00965550
3307.90464478,0.00964756
3309.83345215,0.00966152
3311.76225952,0.00951734
3313.69106689,0.00955028
3315.61987427,0.00964847
3317.54868164,0.00964760
3319.47748901,0.00958420
3321.40629639,0.00945444
3323.33510376,0.00966248
3325.26391113,0.00955671
3327.19271851,0.00941455
3329.12152588,0.00958632
3331.05033325,0.00947405
3332.97914062,0.00947518
3334.90794800,0.00942083
3336.83675537,0.00935662
3338.76556274,0.00940518
3340.69437012,0.00938643
3342.62317749,0.00937496
3344.55198486,0.00930256
3346.48079224,0.00934866
3348.40959961,0.00936931
3350.33840698,0.00929847
3352.26721436,0.00924452
3354.19602173,0.00926343
3356.12482910,0.00925337
3358.05363647,0.00922148
3359.98244385,0.00922793
3361.91125122,0.00915674
3363.84005859,0.00916852
3365.76886597,0.00912303
3367.69767334,0.00912440
3369.62648071,0.00911103
3371.55528809,0.00910208
3373.48409546,0.00921307
3375.41290283,0.00902901
3377.34171020,0.00898017
3379.27051758,0.00907843
3381.19932495,0.00898968
3383.12813232,0.00891893
3385.05693970,0.00891745
3386.98574707,0.00894141
3388.91455444,0.00896931
3390.84336182,0.00897157
3392.77216919,0.00886531
3394.70097656,0.00891194
3396.62978394,0.00888352
3398.55859131,0.00875988
3400.48739868,0.00880035
3402.41620605,0.00867390
3404.34501343,0.00860566
3406.27382080,0.00870604
3408.20262817,0.00867740
3410.13143555,0.00857926
3412.06024292,0.00870137
3413.98905029,0.00876804
3415.91785767,0.00863171
3417.84666504,0.00858324
3419.77547241,0.00853257
3421.70427979,0.00856210
3423.63308716,0.00857561
3425.56189453,0.00855504
3427.49070190,0.00851890
3429.41950928,0.00851092
3431.34831665,0.00849398
3433.27712402,0.00837638
3435.20593140,0.00840990
3437.13473877,0.00831511
3439.06354614,0.00833069
3440.99235352,0.00835722
3442.92116089,0.00830726
3444.84996826,0.00840060
3446.77877563,0.00818750
3448.70758301,0.00830188
3450.63639038,0.00844204
3452.56519775,0.00826345
3454.49400513,0.00833525
3456.42281250,0.00828895
3458.35161987,0.00828931
3460.28042725,0.00830487
3462.20923462,0.00815773
3464.13804199,0.00820416
3466.06684937,0.00823449
3467.99565674,0.00808593
3469.92446411,0.00810401
3471.85327148,0.00810510
3473.78207886,0.00797859
3475.71088623,0.00806058
3477.63969360,0.00815996
3479.56850098,0.00809711
3481.49730835,0.00796799
3483.42611572,0.00801234
3485.35492310,0.00806216
3487.28373047,0.00806529
3489.21253784,0.00807569
3491.14134521,0.00796275
3493.07015259,0.00800824
3494.99895996,0.00796496
3496.92776733,0.00795537
3498.85657471,0.00803335
3500.78538208,0.00794993
3502.71418945,0.00776751
3504.64299683,0.00772709
3506.57180420,0.00801663
3508.50061157,0.00783951
3510.42941895,0.00778372
3512.35822632,0.00798749
3514.28703369,0.00783665
3516.21584106,0.00792300
3518.14464844,0.00790741
3520.07345581,0.00790877
3522.00226318,0.00780651
3523.93107056,0.00758368
3525.85987793,0.00770474
3527.78868530,0.00765981
3529.71749268,0.00763311
3531.64630005,0.00784354
3533.57510742,0.00798353
3535.50391479,0.00778127
3537.43272217,0.00769779
3539.36152954,0.00785015
3541.29033691,0.00779483
3543.21914429,0.00773952
3545.14795166,0.00750266
3547.07675903,0.00746172
3549.00556641,0.00774072
3550.93437378,0.00765084
3552.86318115,0.00757758
3554.79198853,0.00778018
3556.72079590,0.00779176
3558.64960327,0.00768563
3560.57841064,0.00766698
3562.50721802,0.00763207
3564.43602539,0.00752131
3566.36483276,0.00702386
3568.29364014,0.00675405
3570.22244751,0.00736209
3572.15125488,0.00777363
3574.08006226,0.00763509
3576.00886963,0.00754625
3577.93767700,0.00754787
3579.86648437,0.00754420
3581.79529175,0.00748381
3583.72409912,0.00760615
3585.65290649,0.00742531
3587.58171387,0.00666692
3589.51052124,0.00693351
3591.43932861,0.00768892
3593.36813599,0.00740980
3595.29694336,0.00719933
3597.22575073,0.00744219
3599.15455811,0.00748960
3601.08336548,0.00741047
3603.01217285,0.00751642
3604.94098022,0.00765001
3606.86978760,0.00729621
3608.79859497,0.00671893
3610.72740234,0.00695735
3612.65620972,0.00711928
3614.58501709,0.00690379
3616.51382446,0.00747337
3618.44263184,0.00681564
3620.37143921,0.00656457
3622.30024658,0.00750960
3624.22905395,0.00737796
3626.15786133,0.00768441
3628.08666870,0.00627914
3630.01547607,0.00564574
3631.94428345,0.00746121
3633.87309082,0.00722873
3635.80189819,0.00724147
3637.73070557,0.00750451
3639.65951294,0.00739510
3641.58832031,0.00753223
3643.51712769,0.00732627
3645.44593506,0.00728656
3647.37474243,0.00650725
3649.30354980,0.00580483
3651.23235718,0.00601096
3653.16116455,0.00735956
3655.08997192,0.00709257
3657.01877930,0.00631843
3658.94758667,0.00750284
3660.87639404,0.00725729
3662.80520142,0.00735662
3664.73400879,0.00739706
3666.66281616,0.00734469
3668.59162354,0.00698097
3670.52043091,0.00538713
3672.44923828,0.00687267
3674.37804565,0.00651104
3676.30685303,0.00515210
3678.23566040,0.00682386
3680.16446777,0.00702877
3682.09327515,0.00699983
3684.02208252,0.00730485
3685.95088989,0.00726739
3687.87969727,0.00632714
3689.80850464,0.00567337
3691.73731201,0.00664357
3693.66611938,0.00690646
3695.59492676,0.00708555
3697.52373413,0.00694156
3699.45254150,0.00697306
3701.38134888,0.00683737
3703.31015625,0.00649993
3705.23896362,0.00720032
3707.16777100,0.00679971
3709.09657837,0.00659542
3711.02538574,0.00606451
3712.95419312,0.00577357
3714.88300049,0.00692855
3716.81180786,0.00679297
3718.74061523,0.00682612
3720.66942261,0.00656843
3722.59822998,0.00643286
3724.52703735,0.00669653
3726.45584473,0.00615355
3728.38465210,0.00670380
3730.31345947,0.00657964
3732.24226685,0.00599650
3734.17107422,0.00576161
3736.09988159,0.00546229
3738.02868896,0.00588807
3739.95749634,0.00643655
3741.88630371,0.00667506
3743.81511108,0.00499441
3745.74391846,0.00470205
3747.67272583,0.00636856
3749.60153320,0.00535129
3751.53034058,0.00477407
3753.45914795,0.00581601
3755.38795532,0.00637313
3757.31676270,0.00653706
3759.24557007,0.00598188
3761.17437744,0.00619496
3763.10318481,0.00658895
3765.03199219,0.00608893
3766.96079956,0.00635547
3768.88960693,0.00624065
3770.81841431,0.00589179
3772.74722168,0.00645695
3774.67602905,0.00646149
3776.60483643,0.00653001
3778.53364380,0.00624373
3780.46245117,0.00596025
3782.39125854,0.00647946
3784.32006592,0.00634668
3786.24887329,0.00625381
3788.17768066,0.00637063
3790.10648804,0.00643696
3792.03529541,0.00636499
3793.96410278,0.00647102
3795.89291016,0.00593088
3797.82171753,0.00577916
3799.75052490,0.00627961
3801.67933228,0.00473280
3803.60813965,0.00569671
3805.53694702,0.00636768
3807.46575439,0.00499141
3809.39456177,0.00617967
3811.32336914,0.00603588
3813.25217651,0.00627108
3815.18098389,0.00557254
3817.10979126,0.00480842
3819.03859863,0.00628874
3820.96740601,0.00487213
3822.89621338,0.00525057
3824.82502075,0.00627416
3826.75382812,0.00547130
3828.68263550,0.00602408
3830.61144287,0.00586895
3832.54025024,0.00553351
3834.46905762,0.00560864
3836.39786499,0.00537545
3838.32667236,0.00481623
3840.25547974,0.00529772
3842.18428711,0.00564255
3844.11309448,0.00529867
3846.04190186,0.00592866
3847.97070923,0.00581316
3849.89951660,0.00587058
3851.82832397,0.00518826
3853.75713135,0.00362984
3855.68593872,0.00446772
3857.61474609,0.00580390
3859.54355347,0.00563695
3861.47236084,0.00556043
3863.40116821,0.00548057
3865.32997559,0.00495859
3867.25878296,0.00561794
3869.18759033,0.00514180
3871.11639770,0.00469738
3873.04520508,0.00572647
3874.97401245,0.00510972
3876.90281982,0.00564122
3878.83162720,0.00572048
3880.76043457,0.00470976
3882.68924194,0.00568379
3884.61804932,0.00519639
3886.54685669,0.00469432
3888.47566406,0.00563981
3890.40447144,0.00524765
3892.33327881,0.00495848
3894.26208618,0.00550572
3896.19089355,0.00551024
3898.11970093,0.00520570
3900.04850830,0.00493002
3901.97731567,0.00484142
3903.90612305,0.00484969
3905.83493042,0.00492419
3907.76373779,0.00536744
3909.69254517,0.00541086
3911.62135254,0.00537059
3913.55015991,0.00543025
3915.47896728,0.00521943
3917.40777466,0.00512058
3919.33658203,0.00509226
3921.26538940,0.00531422
3923.19419678,0.00525636
3925.12300415,0.00512926
3927.05181152,0.00527959
3928.98061890,0.00534249
3930.90942627,0.00522585
3932.83823364,0.00495183
3934.76704102,0.00523022
3936.69584839,0.00533882
3938.62465576,0.00519604
3940.55346313,0.00522078
3942.48227051,0.00495411
3944.41107788,0.00505530
3946.33988525,0.00526739
3948.26869263,0.00510382
3950.19750000,0.00504220
3952.12630737,0.00517166
3954.05511475,0.00514397
3955.98392212,0.00509794
3957.91272949,0.00511727
3959.84153687,0.00504479
3961.77034424,0.00504955
3963.69915161,0.00502102
3965.62795898,0.00507549
3967.55676636,0.00506544
3969.48557373,0.00497696
3971.41438110,0.00504864
3973.34318848,0.00498525
3975.27199585,0.00490366
3977.20080322,0.00499518
3979.12961060,0.00498657
3981.05841797,0.00489719
3982.98722534,0.00496142
3984.91603271,0.00490311
3986.84484009,0.00491810
3988.77364746,0.00496640
3990.70245483,0.00487917
3992.63126221,0.00496586
3994.56006958,0.00490076
3996.48887695,0.00489437
3998.41768433,0.00491990
4000.34649170,0.00480227
4002.27529907,0.00478838
4004.20410645,0.00484256
4006.13291382,0.00488717
4008.06172119,0.00480147
4009.99052856,0.00486310
4011.91933594,0.00485478
4013.84814331,0.00476867
4015.77695068,0.00474521
4017.70575806,0.00470244
4019.63456543,0.00480054
4021.56337280,0.00472988
4023.49218018,0.00470637
4025.42098755,0.00476468
4027.34979492,0.00466409
4029.27860229,0.00460642
4031.20740967,0.00472636
4033.13621704,0.00471481
4035.06502441,0.00450234
4036.99383179,0.00464214
4038.92263916,0.00470779
4040.85144653,0.00454016
4042.78025391,0.00454540
4044.70906128,0.00462033
4046.63786865,0.00459840
4048.56667603,0.00451480
4050.49548340,0.00454465
4052.42429077,0.00450546
4054.35309814,0.00448227
4056.28190552,0.00448227
4058.21071289,0.00449339
4060.13952026,0.00454721
4062.06832764,0.00446520
4063.99713501,0.00439267
4065.92594238,0.00444152
4067.85474976,0.00453686
4069.78355713,0.00443931
4071.71236450,0.00442148
4073.64117187,0.00446326
4075.56997925,0.00433758
4077.49878662,0.00429895
4079.42759399,0.00429808
4081.35640137,0.00436304
4083.28520874,0.00432349
4085.21401611,0.00429383
4087.14282349,0.00437635
4089.07163086,0.00431132
4091.00043823,0.00425060
4092.92924561,0.00428359
4094.85805298,0.00428424
4096.78686035,0.00421683
4098.71566772,0.00425099
4100.64447510,0.00425868
4102.57328247,0.00423480
4104.50208984,0.00417323
4106.43089722,0.00415255
4108.35970459,0.00428610
4110.28851196,0.00423890
4112.21731934,0.00421306
4114.14612671,0.00417320
4116.07493408,0.00413959
4118.00374145,0.00423545
4119.93254883,0.00419900
4121.86135620,0.00414111
4123.79016357,0.00416459
4125.71897095,0.00416796
4127.64777832,0.00404715
4129.57658569,0.00410271
4131.50539307,0.00412281
4133.43420044,0.00406033
4135.36300781,0.00410215
4137.29181519,0.00397479
4139.22062256,0.00403581
4141.14942993,0.00407190
4143.07823730,0.00392643
4145.00704468,0.00391495
4146.93585205,0.00403267
4148.86465942,0.00407508
4150.79346680,0.00399632
4152.72227417,0.00404794
4154.65108154,0.00392775
4156.57988892,0.00393870
4158.50869629,0.00404148
4160.43750366,0.00391688
4162.36631103,0.00394637
4164.29511841,0.00387270
4166.22392578,0.00383875
4168.15273315,0.00391103
4170.08154053,0.00384990
4172.01034790,0.00383425
4173.93915527,0.00385693
4175.86796265,0.00380417
4177.79677002,0.00374659
4179.72557739,0.00384720
4181.65438477,0.00391180
4183.58319214,0.00384977
4185.51199951,0.00375510
4187.44080688,0.00368510
4189.36961426,0.00371394
4191.29842163,0.00377394
4193.22722900,0.00376808
4195.15603638,0.00378614
4197.08484375,0.00379862
4199.01365112,0.00368328
4200.94245850,0.00370927
4202.87126587,0.00369929
4204.80007324,0.00362358
4206.72888062,0.00373232
4208.65768799,0.00368272
4210.58649536,0.00363322
4212.51530273,0.00377321
4214.44411011,0.00370174
4216.37291748,0.00356795
4218.30172485,0.00364037
4220.23053223,0.00356851
4222.15933960,0.00358556
4224.08814697,0.00365082
4226.01695435,0.00347695
4227.94576172,0.00353319
4229.87456909,0.00353149
4231.80337646,0.00348324
4233.73218384,0.00356508
4235.66099121,0.00358066
4237.58979858,0.00357514
4239.51860596,0.00345559
4241.44741333,0.00347866
4243.37622070,0.00348541
4245.30502808,0.00350435
4247.23383545,0.00356640
4249.16264282,0.00343277
4251.09145020,0.00342598
4253.02025757,0.00339155
4254.94906494,0.00337726
4256.87787231,0.00348321
4258.80667969,0.00346174
4260.73548706,0.00343438
4262.66429443,0.00349765
4264.59310181,0.00349031
4266.52190918,0.00334801
4268.45071655,0.00330224
4270.37952393,0.00340884
4272.30833130,0.00347883
4274.23713867,0.00335838
4276.16594604,0.00332304
4278.09475342,0.00341020
4280.02356079,0.00338015
4281.95236816,0.00335311
4283.88117554,0.00330981
4285.80998291,0.00335383
4287.73879028,0.00332306
4289.66759766,0.00321127
4291.59640503,0.00331851
4293.52521240,0.00331446
4295.45401978,0.00323142
4297.38282715,0.00325867
4299.31163452,0.00322206
4301.24044189,0.00320589
4303.16924927,0.00323729
4305.09805664,0.00324212
4307.02686401,0.00321604
4308.95567139,0.00311275
4310.88447876,0.00317498
4312.81328613,0.00326544
4314.74209351,0.00314049
4316.67090088,0.00316015
4318.59970825,0.00320320
4320.52851562,0.00315780
4322.45732300,0.00311258
4324.38613037,0.00311331
4326.31493774,0.00315934
4328.24374512,0.00308014
4330.17255249,0.00314272
4332.10135986,0.00320379
4334.03016724,0.00308771
4335.95897461,0.00302598
4337.88778198,0.00311377
4339.81658936,0.00321631
4341.74539673,0.00306556
4343.67420410,0.00300100
4345.60301147,0.00308647
4347.53181885,0.00307030
4349.46062622,0.00298169
4351.38943359,0.00293693
4353.31824097,0.00300028
4355.24704834,0.00297412
4357.17585571,0.00295757
4359.10466309,0.00300039
4361.03347046,0.00304820
4362.96227783,0.00303937
4364.89108520,0.00297253
4366.81989258,0.00300301
4368.74869995,0.00301537
4370.67750732,0.00303102
4372.60631470,0.00297860
4374.53512207,0.00289320
4376.46392944,0.00292995
4378.39273682,0.00297121
4380.32154419,0.00293138
4382.25035156,0.00281283
4384.17915894,0.00285652
4386.10796631,0.00294320
4388.03677368,0.00289791
4389.96558105,0.00285801
4391.89438843,0.00287672
4393.82319580,0.00294827
4395.75200317,0.00287142
4397.68081055,0.00278936
4399.60961792,0.00280731
4401.53842529,0.00282766
4403.46723267,0.00287978
4405.39604004,0.00283541
4407.32484741,0.00280204
4409.25365478,0.00278570
4411.18246216,0.00277202
4413.11126953,0.00280123
4415.04007690,0.00277907
4416.96888428,0.00279546
4418.89769165,0.00272036
4420.82649902,0.00265442
4422.75530640,0.00274851
4424.68411377,0.00274970
4426.61292114,0.00269029
4428.54172852,0.00272844
4430.47053589,0.00274061
4432.39934326,0.00265617
4434.32815063,0.00270065
4436.25695801,0.00269521
4438.18576538,0.00262382
4440.11457275,0.00266056
4442.04338013,0.00261352
4443.97218750,0.00267932
4445.90099487,0.00268888
4447.82980225,0.00263206
4449.75860962,0.00267753
4451.68741699,0.00259907
4453.61622437,0.00259540
4455.54503174,0.00257925
4457.47383911,0.00255522
4459.40264648,0.00263005
4461.33145386,0.00266364
4463.26026123,0.00260257
4465.18906860,0.00255961
4467.11787598,0.00263988
4469.04668335,0.00258233
4470.97549072,0.00259105
4472.90429810,0.00262196
4474.83310547,0.00252410
4476.76191284,0.00250910
4478.69072021,0.00251901
4480.61952759,0.00255176
4482.54833496,0.00245511
4484.47714233,0.00242833
4486.40594971,0.00250771
4488.33475708,0.00251952
4490.26356445,0.00248951
4492.19237183,0.00241751
4494.12117920,0.00247258
4496.04998657,0.00250381
4497.97879395,0.00249414
4499.90760132,0.00240899
4501.83640869,0.00242783
4503.76521606,0.00250409
4505.69402344,0.00241506
4507.62283081,0.00250427
4509.55163818,0.00244007
4511.48044556,0.00238173
4513.40925293,0.00245993
4515.33806030,0.00236772
4517.26686768,0.00240624
4519.19567505,0.00241813
4521.12448242,0.00240750
4523.05328979,0.00242311
4524.98209717,0.00232868
4526.91090454,0.00235582
4528.83971191,0.00243564
4530.76851929,0.00234039
4532.69732666,0.00231540
4534.62613403,0.00235925
4536.55494141,0.00233603
4538.48374878,0.00237655
4540.41255615,0.00230170
4542.34136353,0.00229880
4544.27017090,0.00232974
4546.19897827,0.00226126
4548.12778564,0.00227765
4550.05659302,0.00225761
4551.98540039,0.00230183
4553.91420776,0.00227883
4555.84301514,0.00221331
4557.77182251,0.00221763
4559.70062988,0.00222738
4561.62943726,0.00224688
4563.55824463,0.00225755
4565.48705200,0.00228036
4567.41585937,0.00218158
4569.34466675,0.00220219
4571.27347412,0.00220346
4573.20228149,0.00217006
4575.13108887,0.00219654
4577.05989624,0.00213682
4578.98870361,0.00225360
4580.91751099,0.00219918
4582.84631836,0.00216218
4584.77512573,0.00224022
4586.70393311,0.00215804
4588.63274048,0.00218730
4590.56154785,0.00216455
4592.49035522,0.00214282
4594.41916260,0.00212272
4596.34796997,0.00214408
4598.27677734,0.00220579
4600.20558472,0.00211133
4602.13439209,0.00208698
4604.06319946,0.00214275
4605.99200684,0.00213389
4607.92081421,0.00210599
4609.84962158,0.00213095
4611.77842895,0.00207803
4613.70723633,0.00203530
4615.63604370,0.00205255
4617.56485107,0.00202356
4619.49365845,0.00200125
4621.42246582,0.00199752
4623.35127319,0.00202718
4625.28008057,0.00200686
4627.20888794,0.00202579
4629.13769531,0.00199483
4631.06650269,0.00202974
4632.99531006,0.00209595
4634.92411743,0.00197852
4636.85292480,0.00202014
4638.78173218,0.00203321
4640.71053955,0.00205591
4642.63934692,0.00200243
4644.56815430,0.00188107
4646.49696167,0.00200958
4648.42576904,0.00196826
4650.35457642,0.00195024
4652.28338379,0.00192906
4654.21219116,0.00186531
4656.14099853,0.00198474
4658.06980591,0.00194499
4659.99861328,0.00188182
4661.92742065,0.00191896
4663.85622803,0.00197002
4665.78503540,0.00193520
4667.71384277,0.00182586
4669.64265015,0.00185872
4671.57145752,0.00190604
4673.50026489,0.00189594
4675.42907227,0.00193826
4677.35787964,0.00187867
4679.28668701,0.00182972
4681.21549438,0.00190038
4683.14430176,0.00182152
4685.07310913,0.00181585
4687.00191650,0.00184017
4688.93072388,0.00177678
4690.85953125,0.00186669
4692.78833862,0.00191330
4694.71714600,0.00185877
4696.64595337,0.00182978
4698.57476074,0.00186199
4700.50356812,0.00183289
4702.43237549,0.00175655
4704.36118286,0.00172313
4706.28999023,0.00176153
4708.21879761,0.00182655
4710.14760498,0.00177046
4712.07641235,0.00180603
4714.00521973,0.00182437
4715.93402710,0.00179882
4717.86283447,0.00177476
4719.79164185,0.00171069
4721.72044922,0.00175826
4723.64925659,0.00172385
4725.57806396,0.00173900
4727.50687134,0.00177525
4729.43567871,0.00178788
4731.36448608,0.00179673
4733.29329346,0.00175640
4735.22210083,0.00179197
4737.15090820,0.00170363
4739.07971558,0.00173785
4741.00852295,0.00172261
4742.93733032,0.00158180
4744.86613770,0.00165735
4746.79494507,0.00169669
4748.72375244,0.00176774
4750.65255981,0.00173127
4752.58136719,0.00163607
4754.51017456,0.00169375
4756.43898193,0.00169262
4758.36778931,0.00166318
4760.29659668,0.00164936
4762.22540405,0.00165408
4764.15421143,0.00167486
4766.08301880,0.00171107
4768.01182617,0.00169824
4769.94063354,0.00166272
4771.86944092,0.00162795
4773.79824829,0.00160118
4775.72705566,0.00160101
4777.65586304,0.00156980
4779.58467041,0.00164689
4781.51347778,0.00163731
4783.44228516,0.00152013
4785.37109253,0.00156426
4787.29989990,0.00161881
4789.22870728,0.00161620
4791.15751465,0.00164243
4793.08632202,0.00164140
4795.01512939,0.00158946
4796.94393677,0.00164548
4798.87274414,0.00164339
4800.80155151,0.00154979
4802.73035889,0.00156760
4804.65916626,0.00155680
4806.58797363,0.00157376
4808.51678101,0.00156583
4810.44558838,0.00147286
4812.37439575,0.00144572
4814.30320312,0.00151912
4816.23201050,0.00159858
4818.16081787,0.00149936
4820.08962524,0.00148142
4822.01843262,0.00155676
4823.94723999,0.00152541
4825.87604736,0.00155632
4827.80485474,0.00151569
4829.73366211,0.00149237
4831.66246948,0.00151419
4833.59127686,0.00141732
4835.52008423,0.00145147
4837.44889160,0.00151700
4839.37769897,0.00151888
4841.30650635,0.00146158
4843.23531372,0.00142288
4845.16412109,0.00151287
4847.09292847,0.00142240
4849.02173584,0.00142196
4850.95054321,0.00154729
4852.87935059,0.00146997
4854.80815796,0.00140177
4856.73696533,0.00138886
4858.66577270,0.00147407
4860.59458008,0.00146263
4862.52338745,0.00140043
4864.45219482,0.00150968
4866.38100220,0.00147444
4868.30980957,0.00141628
4870.23861694,0.00147647
4872.16742432,0.00144755
4874.09623169,0.00140278
4876.02503906,0.00143234
4877.95384644,0.00143111
4879.88265381,0.00140112
4881.81146118,0.00133853
4883.74026855,0.00132909
4885.66907593,0.00140572
4887.59788330,0.00136408
4889.52669067,0.00139536
4891.45549805,0.00140493
4893.38430542,0.00131040
4895.31311279,0.00137056
4897.24192017,0.00140155
4899.17072754,0.00137274
4901.09953491,0.00134114
4903.02834228,0.00133578
4904.95714966,0.00127611
4906.88595703,0.00126358
4908.81476440,0.00137205
4910.74357178,0.00128613
4912.67237915,0.00129187
4914.60118652,0.00131389
4916.52999390,0.00124602
4918.45880127,0.00134468
4920.38760864,0.00129588
4922.31641602,0.00124629
4924.24522339,0.00128268
4926.17403076,0.00127858
4928.10283813,0.00133217
4930.03164551,0.00129525
4931.96045288,0.00127903
4933.88926025,0.00129202
4935.81806763,0.00123713
4937.74687500,0.00122010
4939.67568237,0.00119782
4941.60448975,0.00122867
4943.53329712,0.00128137
4945.46210449,0.00124304
4947.39091187,0.00122041
4949.31971924,0.00126891
4951.24852661,0.00126621
4953.17733398,0.00120056
4955.10614136,0.00125656
4957.03494873,0.00130846
4958.96375610,0.00123688
4960.89256348,0.00122447
4962.82137085,0.00124206
4964.75017822,0.00120688
4966.67898560,0.00121450
4968.60779297,0.00124740
4970.53660034,0.00119218
4972.46540771,0.00121481
4974.39421509,0.00122564
4976.32302246,0.00116588
4978.25182983,0.00125527
4980.18063721,0.00121845
4982.10944458,0.00112572
4984.03825195,0.00112813
4985.96705933,0.00114081
4987.89586670,0.00117299
4989.82467407,0.00114977
4991.75348145,0.00121144
4993.68228882,0.00118994
4995.61109619,0.00116468
4997.53990356,0.00120122
4999.46871094,0.00113757
5001.39751831,0.00120288
5003.32632568,0.00119821
5005.25513306,0.00115729
5007.18394043,0.00119456
5009.11274780,0.00114976
5011.04155518,0.00112237
5012.97036255,0.00110753
5014.89916992,0.00104235
5016.82797729,0.00104704
5018.75678467,0.00114912
5020.68559204,0.00107507
5022.61439941,0.00112303
5024.54320679,0.00122308
5026.47201416,0.00104877
5028.40082153,0.00106939
5030.32962891,0.00111117
5032.25843628,0.00114568
5034.18724365,0.00116530
5036.11605103,0.00102488
5038.04485840,0.00111358
5039.97366577,0.00109993
5041.90247314,0.00102969
5043.83128052,0.00113167
5045.76008789,0.00106721
5047.68889526,0.00103167
5049.61770264,0.00109727
5051.54651001,0.00111441
5053.47531738,0.00109024
5055.40412476,0.00106495
5057.33293213,0.00110963
5059.26173950,0.00110125
5061.19054687,0.00104084
5063.11935425,0.00101140
5065.04816162,0.00101564
5066.97696899,0.00105245
5068.90577637,0.00100096
5070.83458374,0.00103626
5072.76339111,0.00110718
5074.69219849,0.00094978
5076.62100586,0.00093645
5078.54981323,0.00103427
5080.47862061,0.00099401
5082.40742798,0.00097876
5084.33623535,0.00092256
5086.26504272,0.00093956
5088.19385010,0.00104356
5090.12265747,0.00101267
5092.05146484,0.00101597
5093.98027222,0.00102930
5095.90907959,0.00097672
5097.83788696,0.00099064
5099.76669434,0.00093627
5101.69550171,0.00090236
5103.62430908,0.00100283
5105.55311645,0.00102074
5107.48192383,0.00095810
5109.41073120,0.00093486
5111.33953857,0.00097635
5113.26834595,0.00099831
5115.19715332,0.00093346
5117.12596069,0.00088249
5119.05476807,0.00094505
5120.98357544,0.00097341
5122.91238281,0.00093636
5124.84119019,0.00099080
5126.76999756,0.00100504
5128.69880493,0.00100918
5130.62761230,0.00098387
5132.55641968,0.00088925
5134.48522705,0.00090839
5136.41403442,0.00095234
5138.34284180,0.00096479
5140.27164917,0.00091358
5142.20045654,0.00093797
5144.12926392,0.00096512
5146.05807129,0.00085129
5147.98687866,0.00088561
5149.91568603,0.00090882
5151.84449341,0.00093132
5153.77330078,0.00100530
5155.70210815,0.00090067
5157.63091553,0.00087176
5159.55972290,0.00089344
5161.48853027,0.00084423
5163.41733765,0.00090417
5165.34614502,0.00088050
5167.27495239,0.00084925
5169.20375977,0.00095843
5171.13256714,0.00086499
5173.06137451,0.00082513
5174.99018188,0.00090622
5176.91898926,0.00085580
5178.84779663,0.00088353
5180.77660400,0.00086572
5182.70541138,0.00082552
5184.63421875,0.00081510
5186.56302612,0.00083548
5188.49183350,0.00089020
5190.42064087,0.00083578
5192.34944824,0.00085325
5194.27825562,0.00083339
5196.20706299,0.00080528
5198.13587036,0.00087355
5200.06467773,0.00089882
5201.99348511,0.00084570
5203.92229248,0.00079433
5205.85109985,0.00087199
5207.77990723,0.00081159
5209.70871460,0.00079172
5211.63752197,0.00084632
5213.56632935,0.00079638
5215.49513672,0.00086809
5217.42394409,0.00083708
5219.35275146,0.00078321
5221.28155884,0.00078384
5223.21036621,0.00077955
5225.13917358,0.00079328
5227.06798096,0.00077131
5228.99678833,0.00086427
5230.92559570,0.00087434
5232.85440308,0.00082759
5234.78321045,0.00080997
5236.71201782,0.00078897
5238.64082520,0.00077814
5240.56963257,0.00075381
5242.49843994,0.00084988
5244.42724731,0.00078061
5246.35605469,0.00071767
5248.28486206,0.00079660
5250.21366943,0.00077313
5252.14247681,0.00084583
5254.07128418,0.00078475
5256.00009155,0.00072455
5257.92889893,0.00080804
5259.85770630,0.00075605
5261.78651367,0.00077820
5263.71532104,0.00075877
5265.64412842,0.00070535
5267.57293579,0.00078102
5269.50174316,0.00078654
5271.43055054,0.00073822
5273.35935791,0.00071743
5275.28816528,0.00076160
5277.21697266,0.00076568
5279.14578003,0.00073284
5281.07458740,0.00075001
5283.00339478,0.00073936
5284.93220215,0.00078444
5286.86100952,0.00077433
5288.78981689,0.00072236
5290.71862427,0.00076476
5292.64743164,0.00072433
5294.57623901,0.00072778
5296.50504639,0.00075792
5298.43385376,0.00072919
5300.36266113,0.00073768
5302.29146851,0.00068762
5304.22027588,0.00073044
5306.14908325,0.00074025
5308.07789062,0.00065327
5310.00669800,0.00073996
5311.93550537,0.00075223
5313.86431274,0.00069830
5315.79312012,0.00068716
5317.72192749,0.00062068
5319.65073486,0.00065054
5321.57954224,0.00067597
5323.50834961,0.00067824
5325.43715698,0.00073311
5327.36596436,0.00068379
5329.29477173,0.00066871
5331.22357910,0.00070866
5333.15238647,0.00063948
5335.08119385,0.00064071
5337.01000122,0.00067884
5338.93880859,0.00059061
5340.86761597,0.00059255
5342.79642334,0.00073474
5344.72523071,0.00072615
5346.65403809,0.00060475
5348.58284546,0.00061986
5350.51165283,0.00064372
5352.44046020,0.00064436
5354.36926758,0.00059199
5356.29807495,0.00051050
5358.22688232,0.00063168
5360.15568970,0.00065194
5362.08449707,0.00068437
5364.01330444,0.00073637
5365.94211182,0.00058799
5367.87091919,0.00068574
5369.79972656,0.00069721
5371.72853394,0.00061359
5373.65734131,0.00067083
5375.58614868,0.00061139
5377.51495605,0.00063934
5379.44376343,0.00062995
5381.37257080,0.00062796
5383.30137817,0.00066590
5385.23018555,0.00062970
5387.15899292,0.00062276
5389.08780029,0.00060945
5391.01660767,0.00068516
5392.94541504,0.00065681
5394.87422241,0.00058929
5396.80302978,0.00059749
5398.73183716,0.00056916
5400.66064453,0.00064195
5402.58945190,0.00065759
5404.51825928,0.00055878
5406.44706665,0.00054127
5408.37587402,0.00062810
5410.30468140,0.00063385
5412.23348877,0.00054295
5414.16229614,0.00053763
5416.09110352,0.00064227
5418.01991089,0.00062150
5419.94871826,0.00050769
5421.87752563,0.00059338
5423.80633301,0.00058392
5425.73514038,0.00059216
5427.66394775,0.00065475
5429.59275513,0.00049884
5431.52156250,0.00052616
5433.45036987,0.00058330
5435.37917725,0.00055380
5437.30798462,0.00063292
5439.23679199,0.00063146
5441.16559936,0.00051918
5443.09440674,0.00052309
5445.02321411,0.00059213
5446.95202148,0.00054754
5448.88082886,0.00055780
5450.80963623,0.00051988
5452.73844360,0.00054282
5454.66725098,0.00058709
5456.59605835,0.00054052
5458.52486572,0.00060922
5460.45367310,0.00049661
5462.38248047,0.00053840
5464.31128784,0.00065107
5466.24009521,0.00051212
5468.16890259,0.00057173
5470.09770996,0.00058599
5472.02651733,0.00057542
5473.95532471,0.00060507
5475.88413208,0.00052731
5477.81293945,0.00053186
5479.74174683,0.00050330
5481.67055420,0.00052511
5483.59936157,0.00060991
5485.52816895,0.00053785
5487.45697632,0.00044988
5489.38578369,0.00050152
5491.31459106,0.00056509
5493.24339844,0.00052269
5495.17220581,0.00052069
5497.10101318,0.00055804
5499.02982056,0.00050998
5500.95862793,0.00053695
5502.88743530,0.00058468
5504.81624268,0.00051273
5506.74505005,0.00049018
5508.67385742,0.00047369
5510.60266479,0.00041362
5512.53147217,0.00048606
5514.46027954,0.00058934
5516.38908691,0.00050000
5518.31789429,0.00043866
5520.24670166,0.00051144
5522.17550903,0.00052323
5524.10431641,0.00051945
5526.03312378,0.00051403
5527.96193115,0.00051895
5529.89073853,0.00049113
5531.81954590,0.00049817
5533.74835327,0.00051104
5535.67716064,0.00045564
5537.60596802,0.00053813
5539.53477539,0.00047712
5541.46358276,0.00041359
5543.39239014,0.00052792
5545.32119751,0.00053574
5547.25000488,0.00051516
5549.17881226,0.00042745
5551.10761963,0.00042361
5553.03642700,0.00046463
5554.96523437,0.00048249
5556.89404175,0.00054108
5558.82284912,0.00050143
5560.75165649,0.00049174
5562.68046387,0.00050976
5564.60927124,0.00051837
5566.53807861,0.00045738
5568.46688599,0.00044867
5570.39569336,0.00052806
5572.32450073,0.00048816
5574.25330811,0.00044903
5576.18211548,0.00043528
5578.11092285,0.00046407
5580.03973022,0.00044212
5581.96853760,0.00038609
5583.89734497,0.00045580
5585.82615234,0.00053640
5587.75495972,0.00049716
5589.68376709,0.00040644
5591.61257446,0.00047373
5593.54138184,0.00050322
5595.47018921,0.00043589
5597.39899658,0.00042755
5599.32780395,0.00044393
5601.25661133,0.00047172
5603.18541870,0.00047992
5605.11422607,0.00052516
5607.04303345,0.00044388
5608.97184082,0.00034819
5610.90064819,0.00043510
5612.82945557,0.00044861
5614.75826294,0.00041351
5616.68707031,0.00040622
5618.61587769,0.00044917
5620.54468506,0.00051612
5622.47349243,0.00047463
5624.40229980,0.00047080
5626.33110718,0.00049814
5628.25991455,0.00046961
5630.18872192,0.00045434
5632.11752930,0.00039511
5634.04633667,0.00041143
5635.97514404,0.00042328
5637.90395142,0.00038732
5639.83275879,0.00046285
5641.76156616,0.00041294
5643.69037353,0.00039375
5645.61918091,0.00042663
5647.54798828,0.00037965
5649.47679565,0.00039039
5651.40560303,0.00035294
5653.33441040,0.00038166
5655.26321777,0.00039069
5657.19202515,0.00037581
5659.12083252,0.00044186
5661.04963989,0.00042410
5662.97844727,0.00038094
5664.90725464,0.00040566
5666.83606201,0.00039815
5668.76486938,0.00032614
5670.69367676,0.00040830
5672.62248413,0.00041781
5674.55129150,0.00036742
5676.48009888,0.00041441
5678.40890625,0.00039306
5680.33771362,0.00042106
5682.26652100,0.00038865
5684.19532837,0.00038681
5686.12413574,0.00036594
5688.05294311,0.00036454
5689.98175049,0.00043464
5691.91055786,0.00036012
5693.83936523,0.00039499
5695.76817261,0.00036659
5697.69697998,0.00031508
5699.62578735,0.00036080
5701.55459473,0.00038833
5703.48340210,0.00039440
5705.41220947,0.00038232
5707.34101685,0.00041157
5709.26982422,0.00035012
5711.19863159,0.00044146
5713.12743896,0.00039465
5715.05624634,0.00031192
5716.98505371,0.00043594
5718.91386108,0.00031278
5720.84266846,0.00037236
5722.77147583,0.00043069
5724.70028320,0.00032162
5726.62909058,0.00034439
5728.55789795,0.00037609
5730.48670532,0.00041488
5732.41551270,0.00035649
5734.34432007,0.00032590
5736.27312744,0.00029656
5738.20193481,0.00030109
5740.13074219,0.00039268
5742.05954956,0.00038918
5743.98835693,0.00036849
5745.91716431,0.00039367
5747.84597168,0.00037746
5749.77477905,0.00035509
5751.70358643,0.00044060
5753.63239380,0.00041336
5755.56120117,0.00036554
5757.49000854,0.00032713
5759.41881592,0.00025735
5761.34762329,0.00038753
5763.27643066,0.00045524
5765.20523804,0.00040378
5767.13404541,0.00033218
5769.06285278,0.00027798
5770.99166016,0.00027024
5772.92046753,0.00031885
5774.84927490,0.00035352
5776.77808228,0.00031107
5778.70688965,0.00035264
5780.63569702,0.00032217
5782.56450439,0.00030050
5784.49331177,0.00034238
5786.42211914,0.00034673
5788.35092651,0.00035801
5790.27973389,0.00039455
5792.20854126,0.00040989
5794.13734863,0.00031431
5796.06615601,0.00036849
5797.99496338,0.00037945
5799.92377075,0.00028925
5801.85257812,0.00024670
5803.78138550,0.00026263
5805.71019287,0.00037438
5807.63900024,0.00029501
5809.56780762,0.00027244
5811.49661499,0.00029962
5813.42542236,0.00033183
5815.35422974,0.00033690
5817.28303711,0.00025478
5819.21184448,0.00034621
5821.14065186,0.00032084
5823.06945923,0.00033008
5824.99826660,0.00032560
5826.92707397,0.00029315
5828.85588135,0.00032681
5830.78468872,0.00025625
5832.71349609,0.00034844
5834.64230347,0.00030014
5836.57111084,0.00025366
5838.49991821,0.00033240
5840.42872559,0.00031471
5842.35753296,0.00030857
5844.28634033,0.00023891
5846.21514770,0.00024657
5848.14395508,0.00020538
5850.07276245,0.00019577
5852.00156982,0.00030755
5853.93037720,0.00035576
5855.85918457,0.00032368
5857.78799194,0.00025447
5859.71679932,0.00030575
5861.64560669,0.00029848
5863.57441406,0.00023792
5865.50322144,0.00026158
5867.43202881,0.00032097
5869.36083618,0.00032083
5871.28964355,0.00032264
5873.21845093,0.00034060
5875.14725830,0.00020910
5877.07606567,0.00022304
5879.00487305,0.00027527
5880.93368042,0.00027435
5882.86248779,0.00031294
5884.79129517,0.00025326
5886.72010254,0.00027092
5888.64890991,0.00024765
5890.57771728,0.00027985
5892.50652466,0.00036062
5894.43533203,0.00029254
5896.36413940,0.00025568
5898.29294678,0.00028321
5900.22175415,0.00038610
5902.15056152,0.00029932
5904.07936890,0.00017551
5906.00817627,0.00026795
5907.93698364,0.00028569
5909.86579102,0.00024598
5911.79459839,0.00021664
5913.72340576,0.00028161
5915.65221313,0.00029258
5917.58102051,0.00023237
5919.50982788,0.00033127
5921.43863525,0.00033093
5923.36744263,0.00028100
5925.29625000,0.00030563
5927.22505737,0.00029867
5929.15386475,0.00027714
5931.08267212,0.00027461
5933.01147949,0.00035096
5934.94028686,0.00034887
5936.86909424,0.00024320
5938.79790161,0.00019492
5940.72670898,0.00024222
5942.65551636,0.00025901
5944.58432373,0.00024304
5946.51313110,0.00029516
5948.44193848,0.00026218
5950.37074585,0.00022077
5952.29955322,0.00021530
5954.22836060,0.00018321
5956.15716797,0.00017134
5958.08597534,0.00020744
5960.01478271,0.00027231
5961.94359009,0.00024120
5963.87239746,0.00025653
5965.80120483,0.00025415
5967.73001221,0.00020007
5969.65881958,0.00022000
5971.58762695,0.00023525
5973.51643433,0.00028086
5975.44524170,0.00028441
5977.37404907,0.00026752
5979.30285645,0.00023087
5981.23166382,0.00023159
5983.16047119,0.00022241
5985.08927856,0.00020628
5987.01808594,0.00025134
5988.94689331,0.00016645
5990.87570068,0.00019951
5992.80450806,0.00022351
5994.73331543,0.00025227
5996.66212280,0.00026034
5998.59093018,0.00014006
6000.51973755,0.00026774
