399.26312622,0.00103412
401.19193359,0.00054726
403.12074097,0.00076472
405.04954834,0.00118348
406.97835571,0.00062357
408.90716309,0.00095883
410.83597046,0.00077353
412.76477783,0.00077003
414.69358521,0.00146248
416.62239258,0.00134248
418.55119995,0.00080880
420.48000732,0.00113860
422.40881470,0.00138711
424.33762207,0.00125348
426.26642944,0.00115330
428.19523682,0.00103233
430.12404419,0.00094805
432.05285156,0.00076422
433.98165894,0.00115624
435.91046631,0.00099149
437.83927368,0.00080846
439.76808105,0.00097519
441.69688843,0.00100292
443.62569580,0.00098442
445.55450317,0.00033022
447.48331055,0.00091653
449.41211792,0.00116586
451.34092529,0.00088622
453.26973267,0.00104520
455.19854004,0.00052080
457.12734741,0.00089597
459.05615479,0.00095032
460.98496216,0.00070194
462.91376953,0.00071988
464.84257690,0.00032731
466.77138428,0.00024658
468.70019165,0.00059642
470.62899902,0.00059768
472.55780640,0.00012640
474.48661377,0.00044014
476.41542114,0.00004125
478.34422852,0.00017333
480.27303589,0.00076487
482.20184326,0.00024050
484.13065063,0.00048429
486.05945801,0.00013139
487.98826538,0.00024258
489.91707275,0.00056438
491.84588013,0.00017051
493.77468750,0.00027319
495.70349487,-0.00014494
497.63230225,-0.00013383
499.56110962,-0.00000041
501.48991699,0.00010925
503.41872437,0.00017222
505.34753174,-0.00005343
507.27633911,0.00011426
509.20514648,0.00012810
511.13395386,0.00013648
513.06276123,0.00028479
514.99156860,0.00044545
516.92037598,0.00055855
518.84918335,0.00040787
520.77799072,0.00032569
522.70679810,0.00028691
524.63560547,0.00038305
526.56441284,0.00013163
528.49322021,-0.00021833
530.42202759,0.00033190
532.35083496,0.00029623
534.27964233,0.00014925
536.20844971,0.00040069
538.13725708,-0.00006258
540.06606445,0.00026239
541.99487183,0.00080993
543.92367920,0.00063703
545.85248657,0.00031641
547.78129395,0.00017879
549.71010132,0.00049014
551.63890869,0.00026787
553.56771606,0.00003935
555.49652344,0.00034940
557.42533081,0.00030153
559.35413818,0.00020687
561.28294556,0.00020726
563.21175293,0.00028677
565.14056030,0.00014830
567.06936768,-0.00011820
568.99817505,0.00013358
570.92698242,-0.00002523
572.85578979,-0.00022959
574.78459717,-0.00001426
576.71340454,-0.00014368
578.64221191,-0.00009568
580.57101929,0.00002510
582.49982666,0.00019420
584.42863403,0.00045926
586.35744141,0.00031022
588.28624878,0.00013682
590.21505615,0.00018282
592.14386353,0.00031728
594.07267090,0.00038932
596.00147827,0.00026984
597.93028564,-0.00000104
599.85909302,0.00003183
601.78790039,0.00010983
603.71670776,-0.00001367
605.64551514,0.00034740
607.57432251,0.00009248
609.50312988,-0.00028205
611.43193726,0.00014146
613.36074463,-0.00002545
615.28955200,0.00023803
617.21835938,0.00035761
619.14716675,-0.00016504
621.07597412,0.00002838
623.00478149,0.00028425
624.93358887,0.00045534
626.86239624,0.00028228
628.79120361,0.00039753
630.72001099,0.00063092
632.64881836,0.00053687
634.57762573,0.00100276
636.50643311,0.00078706
638.43524048,0.00078235
640.36404785,0.00110719
642.29285522,0.00070875
644.22166260,0.00099748
646.15046997,0.00135031
648.07927734,0.00135678
650.00808472,0.00118974
651.93689209,0.00132710
653.86569946,0.00175802
655.79450684,0.00167635
657.72331421,0.00188014
659.65212158,0.00166155
661.58092896,0.00132580
663.50973633,0.00181311
665.43854370,0.00202795
667.36735107,0.00196273
669.29615845,0.00174876
671.22496582,0.00175726
673.15377319,0.00210704
675.08258057,0.00211986
677.01138794,0.00212812
678.94019531,0.00213934
680.86900269,0.00226679
682.79781006,0.00241223
684.72661743,0.00217117
686.65542480,0.00229596
688.58423218,0.00222424
690.51303955,0.00224274
692.44184692,0.00280981
694.37065430,0.00263017
696.29946167,0.00283967
698.22826904,0.00335028
700.15707642,0.00341948
702.08588379,0.00372123
704.01469116,0.00329612
705.94349854,0.00272030
707.87230591,0.00273698
709.80111328,0.00221655
711.72992065,0.00131299
713.65872803,0.00097178
715.58753540,0.00073026
717.51634277,0.00041009
719.44515015,0.00030939
721.37395752,0.00013817
723.30276489,0.00015019
725.23157227,0.00021475
727.16037964,0.00037551
729.08918701,0.00036729
731.01799438,0.00032651
732.94680176,0.00028246
734.87560913,0.00000295
736.80441650,0.00042685
738.73322388,0.00023711
740.66203125,0.00010926
742.59083862,0.00041400
744.51964600,0.00027690
746.44845337,0.00047067
748.37726074,0.00000907
750.30606812,-0.00006390
752.23487549,0.00015140
754.16368286,0.00003667
756.09249023,0.00035467
758.02129761,0.00029538
759.95010498,0.00032794
761.87891235,0.00025013
763.80771973,0.00035933
765.73652710,0.00048712
767.66533447,0.00022708
769.59414185,0.00019366
771.52294922,0.00032379
773.45175659,0.00052267
775.38056396,0.00027930
777.30937134,0.00037612
779.23817871,0.00054149
781.16698608,0.00002753
783.09579346,0.00004773
785.02460083,0.00039916
786.95340820,0.00026332
788.88221558,0.00027267
790.81102295,0.00039632
792.73983032,0.00027728
794.66863770,0.00047137
796.59744507,0.00050558
798.52625244,0.00050127
800.45505981,0.00058809
802.38386719,0.00046339
804.31267456,0.00057608
806.24148193,0.00048124
808.17028931,0.00036775
810.09909668,0.00027277
812.02790405,0.00017888
813.95671143,0.00037090
815.88551880,0.00042212
817.81432617,0.00028665
819.74313354,0.00008476
821.67194092,0.00027144
823.60074829,0.00025963
825.52955566,0.00034873
827.45836304,0.00083131
829.38717041,0.00077954
831.31597778,0.00089737
833.24478516,0.00086331
835.17359253,0.00073345
837.10239990,0.00085143
839.03120728,0.00068861
840.96001465,0.00068106
842.88882202,0.00074533
844.81762939,0.00063832
846.74643677,0.00057985
848.67524414,0.00078866
850.60405151,0.00074564
852.53285889,0.00067491
854.46166626,0.00072396
856.39047363,0.00051007
858.31928101,0.00063251
860.24808838,0.00052429
862.17689575,0.00034347
864.10570313,0.00046968
866.03451050,0.00032769
867.96331787,0.00033741
869.89212524,0.00044044
871.82093262,0.00032222
873.74973999,0.00020389
875.67854736,0.00019762
877.60735474,0.00014990
879.53616211,0.00026808
881.46496948,0.00024746
883.39377686,0.00052226
885.32258423,0.00083851
887.25139160,0.00023677
889.18019897,0.00044589
891.10900635,0.00055605
893.03781372,0.00022653
894.96662109,0.00047962
896.89542847,0.00025921
898.82423584,0.00043088
900.75304321,0.00054658
902.68185059,0.00025736
904.61065796,0.00037129
906.53946533,0.00053441
908.46827271,0.00039893
910.39708008,0.00028327
912.32588745,0.00042215
914.25469482,0.00037891
916.18350220,0.00059763
918.11230957,0.00075577
920.04111694,0.00074356
921.96992432,0.00078030
923.89873169,0.00069848
925.82753906,0.00083954
927.75634644,0.00104132
929.68515381,0.00126136
931.61396118,0.00111617
933.54276855,0.00106306
935.47157593,0.00116129
937.40038330,0.00109482
939.32919067,0.00141292
941.25799805,0.00124956
943.18680542,0.00094696
945.11561279,0.00124099
947.04442017,0.00135098
948.97322754,0.00112383
950.90203491,0.00115600
952.83084229,0.00134386
954.75964966,0.00108890
956.68845703,0.00103653
958.61726440,0.00124500
960.54607178,0.00127409
962.47487915,0.00119540
964.40368652,0.00109538
966.33249390,0.00123914
968.26130127,0.00113443
970.19010864,0.00122350
972.11891602,0.00169193
974.04772339,0.00147277
975.97653076,0.00139282
977.90533813,0.00176196
979.83414551,0.00189320
981.76295288,0.00205925
983.69176025,0.00216843
985.62056763,0.00256578
987.54937500,0.00299232
989.47818237,0.00306841
991.40698975,0.00340211
993.33579712,0.00363730
995.26460449,0.00398058
997.19341187,0.00432817
999.12221924,0.00439072
1001.05102661,0.00494407
1002.97983398,0.00530873
1004.90864136,0.00545742
1006.83744873,0.00602015
1008.76625610,0.00641089
1010.69506348,0.00681957
1012.62387085,0.00726722
1014.55267822,0.00758397
1016.48148560,0.00793539
1018.41029297,0.00813850
1020.33910034,0.00859831
1022.26790771,0.00885307
1024.19671509,0.00891985
1026.12552246,0.00963037
1028.05432983,0.01008807
1029.98313721,0.01033304
1031.91194458,0.01050737
1033.84075195,0.01052737
1035.76955933,0.01086602
1037.69836670,0.01097526
1039.62717407,0.01097670
1041.55598145,0.01094639
1043.48478882,0.01094559
1045.41359619,0.01079218
1047.34240356,0.01037556
1049.27121094,0.01042087
1051.20001831,0.01034633
1053.12882568,0.00997635
1055.05763306,0.00963054
1056.98644043,0.00951041
1058.91524780,0.00944058
1060.84405518,0.00924096
1062.77286255,0.00914574
1064.70166992,0.00864315
1066.63047729,0.00832673
1068.55928467,0.00792527
1070.48809204,0.00736128
1072.41689941,0.00738842
1074.34570679,0.00702343
1076.27451416,0.00658395
1078.20332153,0.00637743
1080.13212891,0.00601230
1082.06093628,0.00567792
1083.98974365,0.00555021
1085.91855103,0.00529154
1087.84735840,0.00484903
1089.77616577,0.00500776
1091.70497314,0.00491069
1093.63378052,0.00455484
1095.56258789,0.00448131
1097.49139526,0.00419609
1099.42020264,0.00412918
1101.34901001,0.00408677
1103.27781738,0.00392198
1105.20662476,0.00392189
1107.13543213,0.00395187
1109.06423950,0.00382903
1110.99304687,0.00370558
1112.92185425,0.00352716
1114.85066162,0.00340308
1116.77946899,0.00378215
1118.70827637,0.00380676
1120.63708374,0.00350419
1122.56589111,0.00355304
1124.49469849,0.00372276
1126.42350586,0.00375767
1128.35231323,0.00374417
1130.28112061,0.00389962
1132.20992798,0.00395286
1134.13873535,0.00413950
1136.06754272,0.00418461
1137.99635010,0.00428896
1139.92515747,0.00481407
1141.85396484,0.00502424
1143.78277222,0.00535613
1145.71157959,0.00555842
1147.64038696,0.00578650
1149.56919434,0.00649987
1151.49800171,0.00664448
1153.42680908,0.00673509
1155.35561646,0.00735198
1157.28442383,0.00770108
1159.21323120,0.00787133
1161.14203857,0.00808854
1163.07084595,0.00808766
1164.99965332,0.00849230
1166.92846069,0.00901750
1168.85726807,0.00915609
1170.78607544,0.00952034
1172.71488281,0.00986174
1174.64369019,0.01028728
1176.57249756,0.01062365
1178.50130493,0.01084874
1180.43011230,0.01153138
1182.35891968,0.01198894
1184.28772705,0.01234813
1186.21653442,0.01294096
1188.14534180,0.01345602
1190.07414917,0.01406015
1192.00295654,0.01471977
1193.93176392,0.01540072
1195.86057129,0.01609673
1197.78937866,0.01665781
1199.71818604,0.01741420
1201.64699341,0.01819211
1203.57580078,0.01887434
1205.50460815,0.01985821
1207.43341553,0.02043324
1209.36222290,0.02103573
1211.29103027,0.02196282
1213.21983765,0.02245210
1215.14864502,0.02291639
1217.07745239,0.02322669
1219.00625977,0.02362700
1220.93506714,0.02411968
1222.86387451,0.02437805
1224.79268188,0.02463652
1226.72148926,0.02471837
1228.65029663,0.02475853
1230.57910400,0.02469588
1232.50791138,0.02478597
1234.43671875,0.02494447
1236.36552612,0.02489873
1238.29433350,0.02463923
1240.22314087,0.02447141
1242.15194824,0.02469602
1244.08075562,0.02447598
1246.00956299,0.02423930
1247.93837036,0.02418555
1249.86717773,0.02403786
1251.79598511,0.02373710
1253.72479248,0.02334062
1255.65359985,0.02340860
1257.58240723,0.02296819
1259.51121460,0.02241898
1261.44002197,0.02228080
1263.36882935,0.02195886
1265.29763672,0.02158519
1267.22644409,0.02140136
1269.15525146,0.02132814
1271.08405884,0.02061519
1273.01286621,0.02025655
1274.94167358,0.02013560
1276.87048096,0.01968176
1278.79928833,0.01934854
1280.72809570,0.01874904
1282.65690308,0.01860471
1284.58571045,0.01821277
1286.51451782,0.01773855
1288.44332520,0.01767724
1290.37213257,0.01716202
1292.30093994,0.01705091
1294.22974731,0.01696027
1296.15855469,0.01676236
1298.08736206,0.01679925
1300.01616943,0.01672037
1301.94497681,0.01689057
1303.87378418,0.01704511
1305.80259155,0.01718352
1307.73139893,0.01743066
1309.66020630,0.01765601
1311.58901367,0.01799166
1313.51782104,0.01829011
1315.44662842,0.01872926
1317.37543579,0.01929986
1319.30424316,0.01966692
1321.23305054,0.02030307
1323.16185791,0.02101198
1325.09066528,0.02155609
1327.01947266,0.02206175
1328.94828003,0.02225937
1330.87708740,0.02312030
1332.80589478,0.02388367
1334.73470215,0.02384691
1336.66350952,0.02411509
1338.59231689,0.02389755
1340.52112427,0.02414639
1342.44993164,0.02523166
1344.37873901,0.02542210
1346.30754639,0.02541708
1348.23635376,0.02530587
1350.16516113,0.02514538
1352.09396851,0.02513074
1354.02277588,0.02474106
1355.95158325,0.02451917
1357.88039062,0.02433641
1359.80919800,0.02406086
1361.73800537,0.02271270
1363.66681274,0.02225742
1365.59562012,0.02368624
1367.52442749,0.02285872
1369.45323486,0.02276747
1371.38204224,0.02318206
1373.31084961,0.02155566
1375.23965698,0.02209698
1377.16846436,0.02277536
1379.09727173,0.02263262
1381.02607910,0.02262291
1382.95488647,0.02247701
1384.88369385,0.02246825
1386.81250122,0.02126354
1388.74130859,0.02163788
1390.67011597,0.02357242
1392.59892334,0.02286531
1394.52773071,0.02113770
1396.45653809,0.02233972
1398.38534546,0.02226176
1400.31415283,0.02215135
1402.24296021,0.02430724
1404.17176758,0.02256277
1406.10057495,0.02288390
1408.02938232,0.02405235
1409.95818970,0.02296058
1411.88699707,0.02349732
1413.81580444,0.02271492
1415.74461182,0.02316514
1417.67341919,0.02020211
1419.60222656,0.01812532
1421.53103394,0.02159296
1423.45984131,0.02061893
1425.38864868,0.02005575
1427.31745605,0.02042970
1429.24626343,0.01871093
1431.17507080,0.01819788
1433.10387817,0.01864636
1435.03268555,0.01664825
1436.96149292,0.01394154
1438.89030029,0.01634878
1440.81910767,0.01674327
1442.74791504,0.01568494
1444.67672241,0.01633576
1446.60552979,0.01472765
1448.53433716,0.01515665
1450.46314453,0.01584174
1452.39195190,0.01610655
1454.32075928,0.01636601
1456.24956665,0.01309116
1458.17837402,0.01380499
1460.10718140,0.01891424
1462.03598877,0.02006258
1463.96479614,0.01982522
1465.89360352,0.02047025
1467.82241089,0.02369072
1469.75121826,0.02540005
1471.68002563,0.02168441
1473.60883301,0.02332476
1475.53764038,0.02660816
1477.46644775,0.02866340
1479.39525513,0.03194445
1481.32406250,0.03196640
1483.25286987,0.03428440
1485.18167725,0.03505599
1487.11048462,0.03410017
1489.03929199,0.03346610
1490.96809937,0.03359962
1492.89690674,0.04020400
1494.82571411,0.03842568
1496.75452148,0.03408875
1498.68332886,0.03923573
1500.61213623,0.04036884
1502.54094360,0.04393502
1504.46975098,0.04063247
1506.39855835,0.02772601
1508.32736572,0.03539401
1510.25617310,0.04239552
1512.18498047,0.04109708
1514.11378784,0.04502274
1516.04259521,0.03958535
1517.97140259,0.04159968
1519.90020996,0.03963698
1521.82901733,0.03358027
1523.75782471,0.04275516
1525.68663208,0.04138056
1527.61543945,0.04150224
1529.54424683,0.04676707
1531.47305420,0.04427714
1533.40186157,0.03978270
1535.33066895,0.04311275
1537.25947632,0.04651139
1539.18828369,0.03109613
1541.11709106,0.03334501
1543.04589844,0.04072882
1544.97470581,0.03885378
1546.90351318,0.04761573
1548.83232056,0.04363947
1550.76112793,0.04522571
1552.68993530,0.04472550
1554.61874268,0.04016806
1556.54755005,0.04318674
1558.47635742,0.02820093
1560.40516479,0.03175314
1562.33397217,0.04792195
1564.26277954,0.04447595
1566.19158691,0.04607899
1568.12039429,0.04539270
1570.04920166,0.03908462
1571.97800903,0.04698290
1573.90681641,0.04726719
1575.83562378,0.03590403
1577.76443115,0.04206281
1579.69323853,0.04759615
1581.62204590,0.04549043
1583.55085327,0.04698234
1585.47966064,0.04594470
1587.40846802,0.04647507
1589.33727539,0.04594664
1591.26608276,0.04613047
1593.19489014,0.04594151
1595.12369751,0.04541409
1597.05250488,0.04627223
1598.98131226,0.04576802
1600.91011963,0.04603900
1602.83892700,0.04496790
1604.76773437,0.04606176
1606.69654175,0.04525603
1608.62534912,0.04501137
1610.55415649,0.04492659
1612.48296387,0.04528607
1614.41177124,0.04576580
1616.34057861,0.03613041
1618.26938599,0.04020623
1620.19819336,0.04750793
1622.12700073,0.04119454
1624.05580811,0.04164636
1625.98461548,0.04397317
1627.91342285,0.04352780
1629.84223022,0.04340822
1631.77103760,0.04704892
1633.69984497,0.04219850
1635.62865234,0.03358181
1637.55745972,0.04065362
1639.48626709,0.04518107
1641.41507446,0.04415128
1643.34388184,0.04553283
1645.27268921,0.03985889
1647.20149658,0.03427306
1649.13030396,0.04452157
1651.05911133,0.04130377
1652.98791870,0.02427944
1654.91672607,0.03593655
1656.84553345,0.04644633
1658.77434082,0.04433561
1660.70314819,0.04544375
1662.63195557,0.04030556
1664.56076294,0.04342299
1666.48957031,0.04701309
1668.41837769,0.03979443
1670.34718506,0.03877088
1672.27599243,0.04485560
1674.20479980,0.04066774
1676.13360718,0.03900414
1678.06241455,0.04581374
1679.99122192,0.04378365
1681.92002930,0.04285331
1683.84883667,0.03328097
1685.77764404,0.03382459
1687.70645142,0.04819947
1689.63525879,0.04066198
1691.56406616,0.04597841
1693.49287354,0.04608992
1695.42168091,0.03224974
1697.35048828,0.04137450
1699.27929565,0.03470629
1701.20810303,0.03148596
1703.13691040,0.04508953
1705.06571777,0.04030043
1706.99452515,0.04101881
1708.92333252,0.04514468
1710.85213989,0.04322572
1712.78094727,0.04393967
1714.70975464,0.04016140
1716.63856201,0.03536379
1718.56736938,0.03475811
1720.49617676,0.04270113
1722.42498413,0.04431272
1724.35379150,0.04077090
1726.28259888,0.04507083
1728.21140625,0.04086687
1730.14021362,0.04146637
1732.06902100,0.03983853
1733.99782837,0.02876651
1735.92663574,0.03800132
1737.85544312,0.04222748
1739.78425049,0.03691421
1741.71305786,0.04084351
1743.64186523,0.04114898
1745.57067261,0.04123633
1747.49947998,0.04154485
1749.42828735,0.03927325
1751.35709473,0.03730845
1753.28590210,0.04244348
1755.21470947,0.04421740
1757.14351685,0.03957567
1759.07232422,0.04448604
1761.00113159,0.04092186
1762.92993896,0.03968579
1764.85874634,0.04634412
1766.78755371,0.04077824
1768.71636108,0.04138654
1770.64516846,0.04065512
1772.57397583,0.03603456
1774.50278320,0.04118789
1776.43159058,0.04378479
1778.36039795,0.04287247
1780.28920532,0.04215751
1782.21801270,0.04286871
1784.14682007,0.04256762
1786.07562744,0.04159902
1788.00443481,0.04425562
1789.93324219,0.04256447
1791.86204956,0.03774330
1793.79085693,0.03992493
1795.71966431,0.04331315
1797.64847168,0.04259270
1799.57727905,0.04185908
1801.50608643,0.04086669
1803.43489380,0.04249173
1805.36370117,0.04361320
1807.29250854,0.04285131
1809.22131592,0.04300293
1811.15012329,0.04160872
1813.07893066,0.04320887
1815.00773804,0.04347974
1816.93654541,0.04280488
1818.86535278,0.04313584
1820.79416016,0.04289759
1822.72296753,0.04346074
1824.65177490,0.04022654
1826.58058228,0.04203012
1828.50938965,0.04172453
1830.43819702,0.03880968
1832.36700439,0.04315009
1834.29581177,0.04271562
1836.22461914,0.04262582
1838.15342651,0.04235114
1840.08223389,0.04262207
1842.01104126,0.04256261
1843.93984863,0.03689423
1845.86865601,0.04006377
1847.79746338,0.04262988
1849.72627075,0.04144427
1851.65507812,0.04294800
1853.58388550,0.04187237
1855.51269287,0.04236134
1857.44150024,0.04202672
1859.37030762,0.04169653
1861.29911499,0.04211981
1863.22792236,0.04142607
1865.15672974,0.04189818
1867.08553711,0.04015063
1869.01434448,0.03815693
1870.94315186,0.04019196
1872.87195923,0.04190039
1874.80076660,0.04109066
1876.72957397,0.04135010
1878.65838135,0.04111987
1880.58718872,0.04094622
1882.51599609,0.04115198
1884.44480347,0.04040243
1886.37361084,0.04129300
1888.30241821,0.04005127
1890.23122559,0.03927100
1892.16003296,0.04096146
1894.08884033,0.04002897
1896.01764771,0.03989957
1897.94645508,0.04053563
1899.87526245,0.04041409
1901.80406982,0.04038557
1903.73287720,0.04003889
1905.66168457,0.04027743
1907.59049194,0.03965299
1909.51929932,0.03946204
1911.44810669,0.03968220
1913.37691406,0.03964760
1915.30572144,0.04006805
1917.23452881,0.03791892
1919.16333618,0.03807678
1921.09214355,0.03972022
1923.02095093,0.03816004
1924.94975830,0.03922985
1926.87856567,0.03965879
1928.80737305,0.03902384
1930.73618042,0.03959908
1932.66498779,0.03889994
1934.59379517,0.03938345
1936.52260254,0.03898139
1938.45140991,0.03905507
1940.38021729,0.03898797
1942.30902466,0.03732017
1944.23783203,0.03826386
1946.16663940,0.03880231
1948.09544678,0.03877706
1950.02425415,0.03895075
1951.95306152,0.03863530
1953.88186890,0.03873263
1955.81067627,0.03839127
1957.73948364,0.03854953
1959.66829102,0.03857432
1961.59709839,0.03841176
1963.52590576,0.03854144
1965.45471313,0.03814159
1967.38352051,0.03778794
1969.31232788,0.03815287
1971.24113525,0.03830851
1973.16994263,0.03807677
1975.09875000,0.03814238
1977.02755737,0.03785648
1978.95636475,0.03801892
1980.88517212,0.03793032
1982.81397949,0.03775768
1984.74278687,0.03801918
1986.67159424,0.03742235
1988.60040161,0.03753682
1990.52920898,0.03711424
1992.45801636,0.03648069
1994.38682373,0.03730470
1996.31563110,0.03726369
1998.24443848,0.03701883
2000.17324585,0.03720655
2002.10205322,0.03705759
2004.03086060,0.03698847
2005.95966797,0.03675697
2007.88847534,0.03659673
2009.81728271,0.03674421
2011.74609009,0.03657081
2013.67489746,0.03648136
2015.60370483,0.03631042
2017.53251221,0.03580186
2019.46131958,0.03600953
2021.39012695,0.03620625
2023.31893433,0.03587348
2025.24774170,0.03577264
2027.17654907,0.03578167
2029.10535645,0.03560723
2031.03416382,0.03566427
2032.96297119,0.03569895
2034.89177856,0.03538942
2036.82058594,0.03543280
2038.74939331,0.03521542
2040.67820068,0.03492114
2042.60700806,0.03501067
2044.53581543,0.03496727
2046.46462280,0.03491205
2048.39343018,0.03477518
2050.32223755,0.03480161
2052.25104492,0.03466735
2054.17985229,0.03443493
2056.10865967,0.03436014
2058.03746704,0.03420313
2059.96627441,0.03418002
2061.89508179,0.03412750
2063.82388916,0.03388745
2065.75269653,0.03369805
2067.68150391,0.03387542
2069.61031128,0.03386306
2071.53911865,0.03378326
2073.46792603,0.03365022
2075.39673340,0.03342583
2077.32554077,0.03349641
2079.25434814,0.03330074
2081.18315552,0.03336279
2083.11196289,0.03315617
2085.04077026,0.03297156
2086.96957764,0.03320803
2088.89838501,0.03285839
2090.82719238,0.03285148
2092.75599976,0.03284806
2094.68480713,0.03273793
2096.61361450,0.03266257
2098.54242187,0.03252973
2100.47122925,0.03264162
2102.40003662,0.03248219
2104.32884399,0.03246040
2106.25765137,0.03226083
2108.18645874,0.03208096
2110.11526611,0.03216858
2112.04407349,0.03206839
2113.97288086,0.03202371
2115.90168823,0.03190338
2117.83049561,0.03191258
2119.75930298,0.03188477
2121.68811035,0.03174235
2123.61691772,0.03166826
2125.54572510,0.03166503
2127.47453247,0.03166339
2129.40333984,0.03150926
2131.33214722,0.03143924
2133.26095459,0.03141230
2135.18976196,0.03135130
2137.11856934,0.03121609
2139.04737671,0.03116807
2140.97618408,0.03114966
2142.90499146,0.03117993
2144.83379883,0.03116812
2146.76260620,0.03094942
2148.69141357,0.03098204
2150.62022095,0.03088175
2152.54902832,0.03082885
2154.47783569,0.03085642
2156.40664307,0.03072138
2158.33545044,0.03087743
2160.26425781,0.03067517
2162.19306519,0.03039422
2164.12187256,0.03048884
2166.05067993,0.03043473
2167.97948730,0.03036897
2169.90829468,0.03034148
2171.83710205,0.03038610
2173.76590942,0.03034108
2175.69471680,0.03006998
2177.62352417,0.03016110
2179.55233154,0.03025096
2181.48113892,0.03004518
2183.40994629,0.03009095
2185.33875366,0.02998920
2187.26756104,0.02996313
2189.19636841,0.02997470
2191.12517578,0.02965486
2193.05398315,0.02976248
2194.98279053,0.02978427
2196.91159790,0.02957229
2198.84040527,0.02962172
2200.76921265,0.02953263
2202.69802002,0.02946635
2204.62682739,0.02947641
2206.55563477,0.02943778
2208.48444214,0.02938789
2210.41324951,0.02923058
2212.34205688,0.02925712
2214.27086426,0.02929208
2216.19967163,0.02907226
2218.12847900,0.02897236
2220.05728638,0.02891912
2221.98609375,0.02899170
2223.91490112,0.02898469
2225.84370850,0.02886694
2227.77251587,0.02893678
2229.70132324,0.02872127
2231.63013062,0.02862600
2233.55893799,0.02857672
2235.48774536,0.02852753
2237.41655273,0.02854233
2239.34536011,0.02830311
2241.27416748,0.02847460
2243.20297485,0.02839248
2245.13178223,0.02822317
2247.06058960,0.02830604
2248.98939697,0.02806245
2250.91820435,0.02800604
2252.84701172,0.02799862
2254.77581909,0.02801587
2256.70462646,0.02788787
2258.63343384,0.02776537
2260.56224121,0.02777917
2262.49104858,0.02765635
2264.41985596,0.02775957
2266.34866333,0.02778130
2268.27747070,0.02773312
2270.20627808,0.02759357
2272.13508545,0.02750738
2274.06389282,0.02758586
2275.99270020,0.02747095
2277.92150757,0.02746102
2279.85031494,0.02737021
2281.77912231,0.02720770
2283.70792969,0.02723084
2285.63673706,0.02723243
2287.56554443,0.02711675
2289.49435181,0.02708769
2291.42315918,0.02697125
2293.35196655,0.02672160
2295.28077393,0.02678839
2297.20958130,0.02674766
2299.13838867,0.02662866
2301.06719604,0.02653880
2302.99600342,0.02628846
2304.92481079,0.02619383
2306.85361816,0.02602592
2308.78242554,0.02585304
2310.71123291,0.02570562
2312.64004028,0.02541682
2314.56884766,0.02518584
2316.49765503,0.02480214
2318.42646240,0.02448446
2320.35526978,0.02427030
2322.28407715,0.02377110
2324.21288452,0.02358315
2326.14169189,0.02340901
2328.07049927,0.02293342
2329.99930664,0.02272367
2331.92811401,0.02257102
2333.85692139,0.02255693
2335.78572876,0.02235952
2337.71453613,0.02227856
2339.64334351,0.02244503
2341.57215088,0.02235600
2343.50095825,0.02270702
2345.42976562,0.02307157
2347.35857300,0.02387448
2349.28738037,0.02465427
2351.21618774,0.02383094
2353.14499512,0.02276066
2355.07380249,0.02200567
2357.00260986,0.02124567
2358.93141724,0.02078753
2360.86022461,0.02064277
2362.78903198,0.02059369
2364.71783936,0.02073152
2366.64664673,0.02105832
2368.57545410,0.02135912
2370.50426147,0.02190522
2372.43306885,0.02236146
2374.36187622,0.02295852
2376.29068359,0.02358248
2378.21949097,0.02377949
2380.14829834,0.02418101
2382.07710571,0.02459635
2384.00591309,0.02473177
2385.93472046,0.02475989
2387.86352783,0.02474480
2389.79233521,0.02460143
2391.72114258,0.02459417
2393.64994995,0.02462431
2395.57875732,0.02452869
2397.50756470,0.02451793
2399.43637207,0.02428373
2401.36517944,0.02426663
2403.29398682,0.02433958
2405.22279419,0.02421383
2407.15160156,0.02410979
2409.08040894,0.02403882
2411.00921631,0.02416407
2412.93802368,0.02415206
2414.86683105,0.02413737
2416.79563843,0.02397718
2418.72444580,0.02390327
2420.65325317,0.02398722
2422.58206055,0.02375728
2424.51086792,0.02379897
2426.43967529,0.02373317
2428.36848267,0.02359946
2430.29729004,0.02366556
2432.22609741,0.02350374
2434.15490479,0.02344693
2436.08371216,0.02348220
2438.01251953,0.02348495
2439.94132690,0.02349379
2441.87013428,0.02342451
2443.79894165,0.02339467
2445.72774902,0.02344099
2447.65655640,0.02332928
2449.58536377,0.02324113
2451.51417114,0.02324947
2453.44297852,0.02316015
2455.37178589,0.02307587
2457.30059326,0.02300004
2459.22940063,0.02302975
2461.15820801,0.02296519
2463.08701538,0.02288260
2465.01582275,0.02295078
2466.94463013,0.02297576
2468.87343750,0.02286612
2470.80224487,0.02264211
2472.73105225,0.02266001
2474.65985962,0.02272704
2476.58866699,0.02262333
2478.51747437,0.02252075
2480.44628174,0.02257198
2482.37508911,0.02254217
2484.30389648,0.02245017
2486.23270386,0.02244635
2488.16151123,0.02222832
2490.09031860,0.02235547
2492.01912598,0.02233693
2493.94793335,0.02213501
2495.87674072,0.02233216
2497.80554810,0.02218460
2499.73435547,0.02208895
2501.66316284,0.02213211
2503.59197021,0.02212643
2505.52077759,0.02202857
2507.44958496,0.02190492
2509.37839233,0.02190351
2511.30719971,0.02171932
2513.23600708,0.02181562
2515.16481445,0.02182955
2517.09362183,0.02170539
2519.02242920,0.02177103
2520.95123657,0.02169530
2522.88004395,0.02158688
2524.80885132,0.02160039
2526.73765869,0.02165231
2528.66646606,0.02147578
2530.59527344,0.02153234
2532.52408081,0.02151294
2534.45288818,0.02132279
2536.38169556,0.02140997
2538.31050293,0.02127921
2540.23931030,0.02127765
2542.16811768,0.02126532
2544.09692505,0.02117530
2546.02573242,0.02120622
2547.95453979,0.02108060
2549.88334717,0.02103606
2551.81215454,0.02096659
2553.74096191,0.02097402
2555.66976929,0.02099383
2557.59857666,0.02087909
2559.52738403,0.02089805
2561.45619141,0.02093242
2563.38499878,0.02086741
2565.31380615,0.02078853
2567.24261353,0.02070678
2569.17142090,0.02066405
2571.10022827,0.02066138
2573.02903564,0.02058573
2574.95784302,0.02061116
2576.88665039,0.02057462
2578.81545776,0.02046479
2580.74426514,0.02048538
2582.67307251,0.02036955
2584.60187988,0.02033265
2586.53068726,0.02042286
2588.45949463,0.02035387
2590.38830200,0.02022868
2592.31710937,0.02032456
2594.24591675,0.02034000
2596.17472412,0.02009096
2598.10353149,0.02007303
2600.03233887,0.02009164
2601.96114624,0.02005338
2603.88995361,0.01998146
2605.81876099,0.01986880
2607.74756836,0.02001090
2609.67637573,0.01995044
2611.60518311,0.01970526
2613.53399048,0.01974172
2615.46279785,0.01968050
2617.39160522,0.01959269
2619.32041260,0.01974008
2621.24921997,0.01971467
2623.17802734,0.01962229
2625.10683472,0.01953004
2627.03564209,0.01945366
2628.96444946,0.01949273
2630.89325684,0.01940909
2632.82206421,0.01948565
2634.75087158,0.01944759
2636.67967895,0.01923104
2638.60848633,0.01925449
2640.53729370,0.01927309
2642.46610107,0.01925077
2644.39490845,0.01915647
2646.32371582,0.01917226
2648.25252319,0.01913232
2650.18133057,0.01896659
2652.11013794,0.01905117
2654.03894531,0.01905233
2655.96775269,0.01900796
2657.89656006,0.01902468
2659.82536743,0.01891334
2661.75417480,0.01883350
2663.68298218,0.01884216
2665.61178955,0.01881550
2667.54059692,0.01875975
2669.46940430,0.01865435
2671.39821167,0.01859314
2673.32701904,0.01869698
2675.25582642,0.01868625
2677.18463379,0.01859279
2679.11344116,0.01847294
2681.04224854,0.01844095
2682.97105591,0.01850074
2684.89986328,0.01838374
2686.82867065,0.01844453
2688.75747803,0.01847835
2690.68628540,0.01832586
2692.61509277,0.01834561
2694.54390015,0.01840467
2696.47270752,0.01833700
2698.40151489,0.01813234
2700.33032227,0.01811701
2702.25912964,0.01818901
2704.18793701,0.01810646
2706.11674438,0.01804691
2708.04555176,0.01795845
2709.97435913,0.01793656
2711.90316650,0.01792050
2713.83197388,0.01784139
2715.76078125,0.01788386
2717.68958862,0.01782416
2719.61839600,0.01776822
2721.54720337,0.01789379
2723.47601074,0.01780292
2725.40481812,0.01765243
2727.33362549,0.01762823
2729.26243286,0.01751166
2731.19124023,0.01743333
2733.12004761,0.01748921
2735.04885498,0.01750403
2736.97766235,0.01741363
2738.90646973,0.01742676
2740.83527710,0.01740592
2742.76408447,0.01731430
2744.69289185,0.01724434
2746.62169922,0.01714480
2748.55050659,0.01726636
2750.47931396,0.01723804
2752.40812134,0.01712402
2754.33692871,0.01723507
2756.26573608,0.01711875
2758.19454346,0.01702557
2760.12335083,0.01708013
2762.05215820,0.01692579
2763.98096558,0.01679874
2765.90977295,0.01695661
2767.83858032,0.01694789
2769.76738770,0.01675818
2771.69619507,0.01675341
2773.62500244,0.01677020
2775.55380981,0.01681163
2777.48261719,0.01669662
2779.41142456,0.01663109
2781.34023193,0.01666468
2783.26903931,0.01650969
2785.19784668,0.01653434
2787.12665405,0.01646828
2789.05546143,0.01637063
2790.98426880,0.01637161
2792.91307617,0.01633743
2794.84188354,0.01642279
2796.77069092,0.01629642
2798.69949829,0.01625101
2800.62830566,0.01620400
2802.55711304,0.01610705
2804.48592041,0.01623350
2806.41472778,0.01608837
2808.34353516,0.01608106
2810.27234253,0.01605975
2812.20114990,0.01583761
2814.12995728,0.01597045
2816.05876465,0.01588748
2817.98757202,0.01575297
2819.91637939,0.01582555
2821.84518677,0.01573554
2823.77399414,0.01576001
2825.70280151,0.01575796
2827.63160889,0.01565706
2829.56041626,0.01570430
2831.48922363,0.01570086
2833.41803101,0.01557364
2835.34683838,0.01548081
2837.27564575,0.01549418
2839.20445312,0.01544236
2841.13326050,0.01526078
2843.06206787,0.01526177
2844.99087524,0.01528875
2846.91968262,0.01514756
2848.84848999,0.01511163
2850.77729736,0.01510226
2852.70610474,0.01509783
2854.63491211,0.01503495
2856.56371948,0.01495464
2858.49252686,0.01501364
2860.42133423,0.01491316
2862.35014160,0.01485742
2864.27894897,0.01488087
2866.20775635,0.01484840
2868.13656372,0.01486237
2870.06537109,0.01473528
2871.99417847,0.01465589
2873.92298584,0.01465531
2875.85179321,0.01459408
2877.78060059,0.01452028
2879.70940796,0.01456130
2881.63821533,0.01463964
2883.56702270,0.01451715
2885.49583008,0.01446762
2887.42463745,0.01449920
2889.35344482,0.01444307
2891.28225220,0.01434634
2893.21105957,0.01429984
2895.13986694,0.01429119
2897.06867432,0.01422100
2898.99748169,0.01417758
2900.92628906,0.01417575
2902.85509644,0.01423786
2904.78390381,0.01418295
2906.71271118,0.01414169
2908.64151855,0.01415441
2910.57032593,0.01401608
2912.49913330,0.01403675
2914.42794067,0.01406031
2916.35674805,0.01398711
2918.28555542,0.01392350
2920.21436279,0.01386852
2922.14317017,0.01382753
2924.07197754,0.01378404
2926.00078491,0.01376459
2927.92959229,0.01364823
2929.85839966,0.01371722
2931.78720703,0.01373431
2933.71601440,0.01361351
2935.64482178,0.01369109
2937.57362915,0.01363833
2939.50243652,0.01361720
2941.43124390,0.01365707
2943.36005127,0.01360238
2945.28885864,0.01363737
2947.21766602,0.01364791
2949.14647339,0.01360712
2951.07528076,0.01358433
2953.00408813,0.01345919
2954.93289551,0.01340470
2956.86170288,0.01342754
2958.79051025,0.01330278
2960.71931763,0.01329874
2962.64812500,0.01324577
2964.57693237,0.01321189
2966.50573975,0.01322955
2968.43454712,0.01309882
2970.36335449,0.01315705
2972.29216187,0.01314846
2974.22096924,0.01317455
2976.14977661,0.01312162
2978.07858398,0.01306480
2980.00739136,0.01320430
2981.93619873,0.01306416
2983.86500610,0.01304823
2985.79381348,0.01296062
2987.72262085,0.01298464
2989.65142822,0.01305508
2991.58023560,0.01285041
2993.50904297,0.01306007
2995.43785034,0.01293613
2997.36665771,0.01275530
2999.29546509,0.01291933
3001.22427246,0.01284408
3003.15307983,0.01286943
3005.08188721,0.01278616
3007.01069458,0.01273060
3008.93950195,0.01266755
3010.86830933,0.01249157
3012.79711670,0.01262868
3014.72592407,0.01256868
3016.65473145,0.01242092
3018.58353882,0.01254463
3020.51234619,0.01253044
3022.44115356,0.01245877
3024.36996094,0.01243435
3026.29876831,0.01244108
3028.22757568,0.01238074
3030.15638306,0.01226994
3032.08519043,0.01234376
3034.01399780,0.01225939
3035.94280518,0.01218181
3037.87161255,0.01221719
3039.80041992,0.01218347
3041.72922729,0.01222347
3043.65803467,0.01205597
3045.58684204,0.01199188
3047.51564941,0.01200116
3049.44445679,0.01193610
3051.37326416,0.01205329
3053.30207153,0.01197824
3055.23087891,0.01189607
3057.15968628,0.01192147
3059.08849365,0.01184728
3061.01730103,0.01182450
3062.94610840,0.01187376
3064.87491577,0.01175331
3066.80372314,0.01160093
3068.73253052,0.01166439
3070.66133789,0.01171884
3072.59014526,0.01172878
3074.51895264,0.01163891
3076.44776001,0.01159043
3078.37656738,0.01150193
3080.30537476,0.01143214
3082.23418213,0.01154683
3084.16298950,0.01144953
3086.09179687,0.01144707
3088.02060425,0.01145767
3089.94941162,0.01139899
3091.87821899,0.01142894
3093.80702637,0.01139324
3095.73583374,0.01134979
3097.66464111,0.01120893
3099.59344849,0.01123015
3101.52225586,0.01117507
3103.45106323,0.01113365
3105.37987061,0.01126911
3107.30867798,0.01110783
3109.23748535,0.01100639
3111.16629272,0.01105896
3113.09510010,0.01108803
3115.02390747,0.01109951
3116.95271484,0.01110333
3118.88152222,0.01100178
3120.81032959,0.01087490
3122.73913696,0.01086528
3124.66794434,0.01082987
3126.59675171,0.01082361
3128.52555908,0.01073597
3130.45436645,0.01077674
3132.38317383,0.01080406
3134.31198120,0.01070250
3136.24078857,0.01074172
3138.16959595,0.01061067
3140.09840332,0.01051406
3142.02721069,0.01058764
3143.95601807,0.01059622
3145.88482544,0.01049428
3147.81363281,0.01044949
3149.74244019,0.01041318
3151.67124756,0.01033904
3153.60005493,0.01039176
3155.52886230,0.01035605
3157.45766968,0.01031681
3159.38647705,0.01024073
3161.31528442,0.01023408
3163.24409180,0.01019756
3165.17289917,0.01009087
3167.10170654,0.01017999
3169.03051392,0.01006558
3170.95932129,0.01003945
3172.88812866,0.00998504
3174.81693604,0.00991483
3176.74574341,0.01004514
3178.67455078,0.00989804
3180.60335815,0.00988235
3182.53216553,0.00991404
3184.46097290,0.00978871
3186.38978027,0.00976015
3188.31858765,0.00982816
3190.24739502,0.00983670
3192.17620239,0.00973880
3194.10500977,0.00970722
3196.03381714,0.00966560
3197.96262451,0.00968942
3199.89143188,0.00967916
3201.82023926,0.00962490
3203.74904663,0.00955156
3205.67785400,0.00955129
3207.60666138,0.00958880
3209.53546875,0.00943227
3211.46427612,0.00940057
3213.39308350,0.00938235
3215.32189087,0.00946817
3217.25069824,0.00948466
3219.17950562,0.00935533
3221.10831299,0.00943414
3223.03712036,0.00933696
3224.96592773,0.00931584
3226.89473511,0.00931902
3228.82354248,0.00925282
3230.75234985,0.00931049
3232.68115723,0.00923208
3234.60996460,0.00918151
3236.53877197,0.00920891
3238.46757935,0.00921266
3240.39638672,0.00918267
3242.32519409,0.00917002
3244.25400146,0.00910116
3246.18280884,0.00907990
3248.11161621,0.00910092
3250.04042358,0.00908207
3251.96923096,0.00911736
3253.89803833,0.00898903
3255.82684570,0.00899865
3257.75565308,0.00909102
3259.68446045,0.00895271
3261.61326782,0.00884649
3263.54207520,0.00892723
3265.47088257,0.00892797
3267.39968994,0.00885110
3269.32849731,0.00897564
3271.25730469,0.00885832
3273.18611206,0.00883824
3275.11491943,0.00888979
3277.04372681,0.00879584
3278.97253418,0.00895320
3280.90134155,0.00882027
3282.83014893,0.00874322
3284.75895630,0.00878615
3286.68776367,0.00876285
3288.61657104,0.00877890
3290.54537842,0.00862043
3292.47418579,0.00868428
3294.40299316,0.00867234
3296.33180054,0.00861532
3298.26060791,0.00864770
3300.18941528,0.00862230
3302.11822266,0.00869983
3304.04703003,0.00860734
3305.97583740,0.00852319
3307.90464478,0.00855702
3309.83345215,0.00856669
3311.76225952,0.00857545
3313.69106689,0.00850992
3315.61987427,0.00842693
3317.54868164,0.00852789
3319.47748901,0.00856361
3321.40629639,0.00845791
3323.33510376,0.00850538
3325.26391113,0.00839431
3327.19271851,0.00837738
3329.12152588,0.00847887
3331.05033325,0.00838086
3332.97914062,0.00839943
3334.90794800,0.00839382
3336.83675537,0.00832611
3338.76556274,0.00828226
3340.69437012,0.00825415
3342.62317749,0.00825140
3344.55198486,0.00824764
3346.48079224,0.00823670
3348.40959961,0.00819354
3350.33840698,0.00815634
3352.26721436,0.00813670
3354.19602173,0.00822447
3356.12482910,0.00827116
3358.05363647,0.00823931
3359.98244385,0.00812279
3361.91125122,0.00806512
3363.84005859,0.00812985
3365.76886597,0.00801164
3367.69767334,0.00796899
3369.62648071,0.00800877
3371.55528809,0.00805560
3373.48409546,0.00805112
3375.41290283,0.00791484
3377.34171020,0.00791391
3379.27051758,0.00795121
3381.19932495,0.00794992
3383.12813232,0.00787175
3385.05693970,0.00779883
3386.98574707,0.00781057
3388.91455444,0.00785275
3390.84336182,0.00781028
3392.77216919,0.00778767
3394.70097656,0.00790204
3396.62978394,0.00777637
3398.55859131,0.00771528
3400.48739868,0.00776149
3402.41620605,0.00766162
3404.34501343,0.00767348
3406.27382080,0.00771267
3408.20262817,0.00767654
3410.13143555,0.00763481
3412.06024292,0.00766559
3413.98905029,0.00761838
3415.91785767,0.00763504
3417.84666504,0.00765956
3419.77547241,0.00751694
3421.70427979,0.00744825
3423.63308716,0.00745786
3425.56189453,0.00754835
3427.49070190,0.00744901
3429.41950928,0.00738357
3431.34831665,0.00748851
3433.27712402,0.00746076
3435.20593140,0.00738008
3437.13473877,0.00733243
3439.06354614,0.00742044
3440.99235352,0.00734068
3442.92116089,0.00737245
3444.84996826,0.00738108
3446.77877563,0.00714666
3448.70758301,0.00730550
3450.63639038,0.00739960
3452.56519775,0.00729929
3454.49400513,0.00722071
3456.42281250,0.00721075
3458.35161987,0.00726874
3460.28042725,0.00719483
3462.20923462,0.00720301
3464.13804199,0.00722053
3466.06684937,0.00717666
3467.99565674,0.00705226
3469.92446411,0.00705481
3471.85327148,0.00712533
3473.78207886,0.00701020
3475.71088623,0.00706688
3477.63969360,0.00710737
3479.56850098,0.00700845
3481.49730835,0.00702912
3483.42611572,0.00709275
3485.35492310,0.00709591
3487.28373047,0.00701732
3489.21253784,0.00697328
3491.14134521,0.00706417
3493.07015259,0.00704372
3494.99895996,0.00692013
3496.92776733,0.00691758
3498.85657471,0.00696293
3500.78538208,0.00698393
3502.71418945,0.00676676
3504.64299683,0.00681219
3506.57180420,0.00704827
3508.50061157,0.00679746
3510.42941895,0.00676072
3512.35822632,0.00690489
3514.28703369,0.00690137
3516.21584106,0.00691598
3518.14464844,0.00686410
3520.07345581,0.00682846
3522.00226318,0.00675001
3523.93107056,0.00672805
3525.85987793,0.00672259
3527.78868530,0.00665001
3529.71749268,0.00670442
3531.64630005,0.00686922
3533.57510742,0.00685124
3535.50391479,0.00673264
3537.43272217,0.00673353
3539.36152954,0.00678013
3541.29033691,0.00680927
3543.21914429,0.00672098
3545.14795166,0.00661742
3547.07675903,0.00654085
3549.00556641,0.00676391
3550.93437378,0.00677756
3552.86318115,0.00646580
3554.79198853,0.00670655
3556.72079590,0.00676736
3558.64960327,0.00667331
3560.57841064,0.00662164
3562.50721802,0.00656508
3564.43602539,0.00663209
3566.36483276,0.00613393
3568.29364014,0.00608450
3570.22244751,0.00657573
3572.15125488,0.00665082
3574.08006226,0.00666291
3576.00886963,0.00665147
3577.93767700,0.00665651
3579.86648437,0.00668215
3581.79529175,0.00651946
3583.72409912,0.00654593
3585.65290649,0.00643686
3587.58171387,0.00581824
3589.51052124,0.00608192
3591.43932861,0.00659006
3593.36813599,0.00632387
3595.29694336,0.00629480
3597.22575073,0.00640348
3599.15455811,0.00643134
3601.08336548,0.00636822
3603.01217285,0.00653188
3604.94098022,0.00661406
3606.86978760,0.00616168
3608.79859497,0.00586046
3610.72740234,0.00609915
3612.65620972,0.00610479
3614.58501709,0.00589892
3616.51382446,0.00639112
3618.44263184,0.00574151
3620.37143921,0.00560555
3622.30024658,0.00649612
3624.22905395,0.00631128
3626.15786133,0.00664848
3628.08666870,0.00533673
3630.01547607,0.00489637
3631.94428345,0.00647884
3633.87309082,0.00621655
3635.80189819,0.00643391
3637.73070557,0.00653552
3639.65951294,0.00641458
3641.58832031,0.00647373
3643.51712769,0.00636292
3645.44593506,0.00643559
3647.37474243,0.00559997
3649.30354980,0.00507650
3651.23235718,0.00510960
3653.16116455,0.00626368
3655.08997192,0.00618380
3657.01877930,0.00543595
3658.94758667,0.00649923
3660.87639404,0.00629573
3662.80520142,0.00637172
3664.73400879,0.00638042
3666.66281616,0.00626691
3668.59162354,0.00594211
3670.52043091,0.00472389
3672.44923828,0.00601117
3674.37804565,0.00555951
3676.30685303,0.00446160
3678.23566040,0.00584993
3680.16446777,0.00596547
3682.09327515,0.00603697
3684.02208252,0.00627936
3685.95088989,0.00613426
3687.87969727,0.00541018
3689.80850464,0.00496179
3691.73731201,0.00567664
3693.66611938,0.00581657
3695.59492676,0.00604578
3697.52373413,0.00606027
3699.45254150,0.00600015
3701.38134888,0.00579585
3703.31015625,0.00559815
3705.23896362,0.00621064
3707.16777100,0.00586367
3709.09657837,0.00571653
3711.02538574,0.00530311
3712.95419312,0.00493729
3714.88300049,0.00584228
3716.81180786,0.00579217
3718.74061523,0.00591538
3720.66942261,0.00573844
3722.59822998,0.00549193
3724.52703735,0.00566263
3726.45584473,0.00518712
3728.38465210,0.00577099
3730.31345947,0.00573303
3732.24226685,0.00510949
3734.17107422,0.00494139
3736.09988159,0.00469430
3738.02868896,0.00498731
3739.95749634,0.00550010
3741.88630371,0.00587127
3743.81511108,0.00438304
3745.74391846,0.00404600
3747.67272583,0.00551740
3749.60153320,0.00464030
3751.53034058,0.00421236
3753.45914795,0.00492918
3755.38795532,0.00538718
3757.31676270,0.00566351
3759.24557007,0.00513930
3761.17437744,0.00538418
3763.10318481,0.00567609
3765.03199219,0.00523874
3766.96079956,0.00541488
3768.88960693,0.00528133
3770.81841431,0.00502614
3772.74722168,0.00547699
3774.67602905,0.00553574
3776.60483643,0.00554182
3778.53364380,0.00533414
3780.46245117,0.00511251
3782.39125854,0.00549684
3784.32006592,0.00534473
3786.24887329,0.00532294
3788.17768066,0.00556708
3790.10648804,0.00537949
3792.03529541,0.00527173
3793.96410278,0.00547511
3795.89291016,0.00502157
3797.82171753,0.00495045
3799.75052490,0.00525087
3801.67933228,0.00408139
3803.60813965,0.00490556
3805.53694702,0.00533158
3807.46575439,0.00430353
3809.39456177,0.00529289
3811.32336914,0.00519632
3813.25217651,0.00540016
3815.18098389,0.00475977
3817.10979126,0.00414025
3819.03859863,0.00531310
3820.96740601,0.00415276
3822.89621338,0.00455432
3824.82502075,0.00538382
3826.75382812,0.00468507
3828.68263550,0.00505852
3830.61144287,0.00489383
3832.54025024,0.00475912
3834.46905762,0.00481015
3836.39786499,0.00455974
3838.32667236,0.00410374
3840.25547974,0.00444469
3842.18428711,0.00481443
3844.11309448,0.00460570
3846.04190186,0.00512358
3847.97070923,0.00497263
3849.89951660,0.00493919
3851.82832397,0.00441733
3853.75713135,0.00308420
3855.68593872,0.00383426
3857.61474609,0.00503947
3859.54355347,0.00481368
3861.47236084,0.00477220
3863.40116821,0.00460791
3865.32997559,0.00421560
3867.25878296,0.00494304
3869.18759033,0.00435173
3871.11639770,0.00393673
3873.04520508,0.00478777
3874.97401245,0.00427036
3876.90281982,0.00483262
3878.83162720,0.00479157
3880.76043457,0.00401348
3882.68924194,0.00487325
3884.61804932,0.00437236
3886.54685669,0.00399465
3888.47566406,0.00482863
3890.40447144,0.00451240
3892.33327881,0.00412510
3894.26208618,0.00462492
3896.19089355,0.00480284
3898.11970093,0.00443619
3900.04850830,0.00414408
3901.97731567,0.00415561
3903.90612305,0.00413556
3905.83493042,0.00415894
3907.76373779,0.00461340
3909.69254517,0.00464215
3911.62135254,0.00461069
3913.55015991,0.00466304
3915.47896728,0.00436478
3917.40777466,0.00429328
3919.33658203,0.00430491
3921.26538940,0.00450089
3923.19419678,0.00452100
3925.12300415,0.00445571
3927.05181152,0.00446823
3928.98061890,0.00443476
3930.90942627,0.00448089
3932.83823364,0.00423643
3934.76704102,0.00435941
3936.69584839,0.00444846
3938.62465576,0.00437424
3940.55346313,0.00449951
3942.48227051,0.00424174
3944.41107788,0.00423470
3946.33988525,0.00441475
3948.26869263,0.00429056
3950.19750000,0.00425493
3952.12630737,0.00435431
3954.05511475,0.00430251
3955.98392212,0.00435236
3957.91272949,0.00436165
3959.84153687,0.00422743
3961.77034424,0.00432773
3963.69915161,0.00424437
3965.62795898,0.00428240
3967.55676636,0.00439039
3969.48557373,0.00432202
3971.41438110,0.00434792
3973.34318848,0.00419819
3975.27199585,0.00420536
3977.20080322,0.00429159
3979.12961060,0.00426117
3981.05841797,0.00420746
3982.98722534,0.00411796
3984.91603271,0.00415694
3986.84484009,0.00421617
3988.77364746,0.00421316
3990.70245483,0.00416625
3992.63126221,0.00416582
3994.56006958,0.00410489
3996.48887695,0.00407689
3998.41768433,0.00412202
4000.34649170,0.00409432
4002.27529907,0.00412243
4004.20410645,0.00413786
4006.13291382,0.00413337
4008.06172119,0.00406316
4009.99052856,0.00403995
4011.91933594,0.00409852
4013.84814331,0.00404363
4015.77695068,0.00400901
4017.70575806,0.00397720
4019.63456543,0.00399070
4021.56337280,0.00408747
4023.49218018,0.00398951
4025.42098755,0.00389583
4027.34979492,0.00399071
4029.27860229,0.00393004
4031.20740967,0.00390712
4033.13621704,0.00396233
4035.06502441,0.00384514
4036.99383179,0.00387017
4038.92263916,0.00398199
4040.85144653,0.00392105
4042.78025391,0.00387107
4044.70906128,0.00391504
4046.63786865,0.00387495
4048.56667603,0.00380599
4050.49548340,0.00374923
4052.42429077,0.00380895
4054.35309814,0.00388966
4056.28190552,0.00382764
4058.21071289,0.00391058
4060.13952026,0.00386167
4062.06832764,0.00373125
4063.99713501,0.00368992
4065.92594238,0.00372228
4067.85474976,0.00377619
4069.78355713,0.00370369
4071.71236450,0.00385538
4073.64117187,0.00373246
4075.56997925,0.00364621
4077.49878662,0.00377194
4079.42759399,0.00362308
4081.35640137,0.00365939
4083.28520874,0.00364120
4085.21401611,0.00370160
4087.14282349,0.00366253
4089.07163086,0.00359174
4091.00043823,0.00367856
4092.92924561,0.00359986
4094.85805298,0.00368383
4096.78686035,0.00354570
4098.71566772,0.00353770
4100.64447510,0.00359196
4102.57328247,0.00346327
4104.50208984,0.00353679
4106.43089722,0.00352252
4108.35970459,0.00359957
4110.28851196,0.00350302
4112.21731934,0.00346571
4114.14612671,0.00352800
4116.07493408,0.00343075
4118.00374145,0.00349463
4119.93254883,0.00348254
4121.86135620,0.00348947
4123.79016357,0.00344167
4125.71897095,0.00343909
4127.64777832,0.00347608
4129.57658569,0.00343591
4131.50539307,0.00346311
4133.43420044,0.00342269
4135.36300781,0.00344471
4137.29181519,0.00339740
4139.22062256,0.00338073
4141.14942993,0.00337942
4143.07823730,0.00333958
4145.00704468,0.00340056
4146.93585205,0.00338195
4148.86465942,0.00338482
4150.79346680,0.00335515
4152.72227417,0.00331461
4154.65108154,0.00329165
4156.57988892,0.00331735
4158.50869629,0.00337102
4160.43750366,0.00330960
4162.36631103,0.00330235
4164.29511841,0.00328420
4166.22392578,0.00324695
4168.15273315,0.00326811
4170.08154053,0.00326312
4172.01034790,0.00320807
4173.93915527,0.00318155
4175.86796265,0.00320955
4177.79677002,0.00325138
4179.72557739,0.00320487
4181.65438477,0.00312876
4183.58319214,0.00317124
4185.51199951,0.00315317
4187.44080688,0.00317815
4189.36961426,0.00316918
4191.29842163,0.00316753
4193.22722900,0.00328199
4195.15603638,0.00317054
4197.08484375,0.00310760
4199.01365112,0.00311327
4200.94245850,0.00305878
4202.87126587,0.00309751
4204.80007324,0.00314878
4206.72888062,0.00311622
4208.65768799,0.00308174
4210.58649536,0.00305660
4212.51530273,0.00293579
4214.44411011,0.00302637
4216.37291748,0.00306540
4218.30172485,0.00296746
4220.23053223,0.00304111
4222.15933960,0.00303518
4224.08814697,0.00300107
4226.01695435,0.00299528
4227.94576172,0.00304908
4229.87456909,0.00304870
4231.80337646,0.00301121
4233.73218384,0.00303011
4235.66099121,0.00298401
4237.58979858,0.00298220
4239.51860596,0.00297398
4241.44741333,0.00298812
4243.37622070,0.00297638
4245.30502808,0.00297147
4247.23383545,0.00291836
4249.16264282,0.00283179
4251.09145020,0.00288539
4253.02025757,0.00284076
4254.94906494,0.00287118
4256.87787231,0.00287078
4258.80667969,0.00279705
4260.73548706,0.00285093
4262.66429443,0.00281615
4264.59310181,0.00282225
4266.52190918,0.00283605
4268.45071655,0.00279599
4270.37952393,0.00279335
4272.30833130,0.00277340
4274.23713867,0.00274386
4276.16594604,0.00281918
4278.09475342,0.00288800
4280.02356079,0.00278439
4281.95236816,0.00275797
4283.88117554,0.00278471
4285.80998291,0.00273916
4287.73879028,0.00270913
4289.66759766,0.00267880
4291.59640503,0.00265815
4293.52521240,0.00272414
4295.45401978,0.00273529
4297.38282715,0.00267663
4299.31163452,0.00270493
4301.24044189,0.00264605
4303.16924927,0.00268235
4305.09805664,0.00275818
4307.02686401,0.00267464
4308.95567139,0.00267638
4310.88447876,0.00270510
4312.81328613,0.00272954
4314.74209351,0.00265183
4316.67090088,0.00260110
4318.59970825,0.00264708
4320.52851562,0.00263811
4322.45732300,0.00264124
4324.38613037,0.00256755
4326.31493774,0.00258618
4328.24374512,0.00262894
4330.17255249,0.00257056
4332.10135986,0.00255375
4334.03016724,0.00257709
4335.95897461,0.00259104
4337.88778198,0.00246915
4339.81658936,0.00248947
4341.74539673,0.00253967
4343.67420410,0.00244147
4345.60301147,0.00251843
4347.53181885,0.00251268
4349.46062622,0.00250232
4351.38943359,0.00257953
4353.31824097,0.00246794
4355.24704834,0.00247033
4357.17585571,0.00245933
4359.10466309,0.00238416
4361.03347046,0.00246228
4362.96227783,0.00245287
4364.89108520,0.00246595
4366.81989258,0.00245518
4368.74869995,0.00243454
4370.67750732,0.00247036
4372.60631470,0.00238313
4374.53512207,0.00240159
4376.46392944,0.00238793
4378.39273682,0.00236737
4380.32154419,0.00243708
4382.25035156,0.00239240
4384.17915894,0.00246040
4386.10796631,0.00246291
4388.03677368,0.00233131
4389.96558105,0.00233255
4391.89438843,0.00236406
4393.82319580,0.00240196
4395.75200317,0.00236212
4397.68081055,0.00232117
4399.60961792,0.00239422
4401.53842529,0.00235466
4403.46723267,0.00232242
4405.39604004,0.00232349
4407.32484741,0.00230155
4409.25365478,0.00238296
4411.18246216,0.00231945
4413.11126953,0.00224039
4415.04007690,0.00228279
4416.96888428,0.00229180
4418.89769165,0.00230804
4420.82649902,0.00225411
4422.75530640,0.00218254
4424.68411377,0.00221048
4426.61292114,0.00228239
4428.54172852,0.00220734
4430.47053589,0.00220893
4432.39934326,0.00229638
4434.32815063,0.00221654
4436.25695801,0.00218679
4438.18576538,0.00215240
4440.11457275,0.00221487
4442.04338013,0.00220721
4443.97218750,0.00213685
4445.90099487,0.00226933
4447.82980225,0.00224191
4449.75860962,0.00217885
4451.68741699,0.00214851
4453.61622437,0.00210349
4455.54503174,0.00211152
4457.47383911,0.00220580
4459.40264648,0.00219957
4461.33145386,0.00210884
4463.26026123,0.00218466
4465.18906860,0.00207900
4467.11787598,0.00211675
4469.04668335,0.00218047
4470.97549072,0.00209046
4472.90429810,0.00211285
4474.83310547,0.00203146
4476.76191284,0.00210080
4478.69072021,0.00208170
4480.61952759,0.00208453
4482.54833496,0.00214320
4484.47714233,0.00205820
4486.40594971,0.00206651
4488.33475708,0.00200258
4490.26356445,0.00206017
4492.19237183,0.00202896
4494.12117920,0.00197388
4496.04998657,0.00202038
4497.97879395,0.00200740
4499.90760132,0.00209551
4501.83640869,0.00206713
4503.76521606,0.00201797
4505.69402344,0.00197778
4507.62283081,0.00198524
4509.55163818,0.00195745
4511.48044556,0.00190814
4513.40925293,0.00200030
4515.33806030,0.00199900
4517.26686768,0.00194525
4519.19567505,0.00189045
4521.12448242,0.00199256
4523.05328979,0.00202991
4524.98209717,0.00196716
4526.91090454,0.00194112
4528.83971191,0.00187585
4530.76851929,0.00193979
4532.69732666,0.00189570
4534.62613403,0.00189523
4536.55494141,0.00190733
4538.48374878,0.00185659
4540.41255615,0.00190229
4542.34136353,0.00194027
4544.27017090,0.00196151
4546.19897827,0.00184159
4548.12778564,0.00185936
4550.05659302,0.00190351
4551.98540039,0.00186960
4553.91420776,0.00185415
4555.84301514,0.00178881
4557.77182251,0.00182244
4559.70062988,0.00182637
4561.62943726,0.00186320
4563.55824463,0.00179645
4565.48705200,0.00174458
4567.41585937,0.00184135
4569.34466675,0.00182144
4571.27347412,0.00178249
4573.20228149,0.00176844
4575.13108887,0.00179974
4577.05989624,0.00177085
4578.98870361,0.00182970
4580.91751099,0.00190504
4582.84631836,0.00180894
4584.77512573,0.00174686
4586.70393311,0.00171585
4588.63274048,0.00169921
4590.56154785,0.00170869
4592.49035522,0.00178312
4594.41916260,0.00171547
4596.34796997,0.00170298
4598.27677734,0.00173354
4600.20558472,0.00165285
4602.13439209,0.00177799
4604.06319946,0.00172639
4605.99200684,0.00168608
4607.92081421,0.00176455
4609.84962158,0.00172527
4611.77842895,0.00175745
4613.70723633,0.00167783
4615.63604370,0.00165047
4617.56485107,0.00168893
4619.49365845,0.00164961
4621.42246582,0.00165543
4623.35127319,0.00167570
4625.28008057,0.00168094
4627.20888794,0.00169177
4629.13769531,0.00165242
4631.06650269,0.00159121
4632.99531006,0.00159563
4634.92411743,0.00162600
4636.85292480,0.00166108
4638.78173218,0.00158258
4640.71053955,0.00167763
4642.63934692,0.00169848
4644.56815430,0.00147341
4646.49696167,0.00165401
4648.42576904,0.00168456
4650.35457642,0.00153751
4652.28338379,0.00161832
4654.21219116,0.00160151
4656.14099853,0.00162376
4658.06980591,0.00159054
4659.99861328,0.00153865
4661.92742065,0.00159609
4663.85622803,0.00153079
4665.78503540,0.00151904
4667.71384277,0.00163628
4669.64265015,0.00159692
4671.57145752,0.00156453
4673.50026489,0.00155134
4675.42907227,0.00154301
4677.35787964,0.00161176
4679.28668701,0.00149846
4681.21549438,0.00152716
4683.14430176,0.00156778
4685.07310913,0.00149712
4687.00191650,0.00153151
4688.93072388,0.00147361
4690.85953125,0.00150769
4692.78833862,0.00151352
4694.71714600,0.00148253
4696.64595337,0.00142986
4698.57476074,0.00143404
4700.50356812,0.00151398
4702.43237549,0.00143559
4704.36118286,0.00152056
4706.28999023,0.00147168
4708.21879761,0.00139589
4710.14760498,0.00150011
4712.07641235,0.00145523
4714.00521973,0.00147769
4715.93402710,0.00148444
4717.86283447,0.00143064
4719.79164185,0.00142260
4721.72044922,0.00152230
4723.64925659,0.00152171
4725.57806396,0.00142555
4727.50687134,0.00146349
4729.43567871,0.00140091
4731.36448608,0.00141854
4733.29329346,0.00146221
4735.22210083,0.00137944
4737.15090820,0.00137900
4739.07971558,0.00139939
4741.00852295,0.00136281
4742.93733032,0.00130967
4744.86613770,0.00138330
4746.79494507,0.00144562
4748.72375244,0.00136408
4750.65255981,0.00135483
4752.58136719,0.00140465
4754.51017456,0.00138646
4756.43898193,0.00138951
4758.36778931,0.00136998
4760.29659668,0.00137750
4762.22540405,0.00140274
4764.15421143,0.00132781
4766.08301880,0.00133993
4768.01182617,0.00131061
4769.94063354,0.00135332
4771.86944092,0.00141691
4773.79824829,0.00128427
4775.72705566,0.00131310
4777.65586304,0.00126733
4779.58467041,0.00123667
4781.51347778,0.00136675
4783.44228516,0.00133359
4785.37109253,0.00134253
4787.29989990,0.00134010
4789.22870728,0.00127406
4791.15751465,0.00126412
4793.08632202,0.00125231
4795.01512939,0.00125259
4796.94393677,0.00124616
4798.87274414,0.00129478
4800.80155151,0.00131202
4802.73035889,0.00124958
4804.65916626,0.00131491
4806.58797363,0.00127936
4808.51678101,0.00117745
4810.44558838,0.00126718
4812.37439575,0.00126142
4814.30320312,0.00122472
4816.23201050,0.00124489
4818.16081787,0.00130021
4820.08962524,0.00130153
4822.01843262,0.00121744
4823.94723999,0.00124910
4825.87604736,0.00120049
4827.80485474,0.00123556
4829.73366211,0.00128761
4831.66246948,0.00126675
4833.59127686,0.00126072
4835.52008423,0.00114803
4837.44889160,0.00128402
4839.37769897,0.00132546
4841.30650635,0.00121664
4843.23531372,0.00124367
4845.16412109,0.00117765
4847.09292847,0.00117465
4849.02173584,0.00125360
4850.95054321,0.00124886
4852.87935059,0.00116413
4854.80815796,0.00120374
4856.73696533,0.00115937
4858.66577270,0.00115118
4860.59458008,0.00125240
4862.52338745,0.00109582
4864.45219482,0.00110311
4866.38100220,0.00112842
4868.30980957,0.00109477
4870.23861694,0.00119265
4872.16742432,0.00118586
4874.09623169,0.00110819
4876.02503906,0.00108105
4877.95384644,0.00114726
4879.88265381,0.00108482
4881.81146118,0.00110906
4883.74026855,0.00114201
4885.66907593,0.00110407
4887.59788330,0.00113512
4889.52669067,0.00104453
4891.45549805,0.00105777
4893.38430542,0.00102062
4895.31311279,0.00110734
4897.24192017,0.00115515
4899.17072754,0.00096728
4901.09953491,0.00105982
4903.02834228,0.00109810
4904.95714966,0.00111309
4906.88595703,0.00107939
4908.81476440,0.00101142
4910.74357178,0.00107295
4912.67237915,0.00102555
4914.60118652,0.00110733
4916.52999390,0.00112229
4918.45880127,0.00105969
4920.38760864,0.00110932
4922.31641602,0.00109067
4924.24522339,0.00105259
4926.17403076,0.00103759
4928.10283813,0.00100662
4930.03164551,0.00098636
4931.96045288,0.00106438
4933.88926025,0.00101937
4935.81806763,0.00094869
4937.74687500,0.00100948
4939.67568237,0.00102201
4941.60448975,0.00106258
4943.53329712,0.00107280
4945.46210449,0.00104000
4947.39091187,0.00099968
4949.31971924,0.00102086
4951.24852661,0.00104901
4953.17733398,0.00098883
4955.10614136,0.00102574
4957.03494873,0.00100641
4958.96375610,0.00097557
4960.89256348,0.00098914
4962.82137085,0.00090537
4964.75017822,0.00095799
4966.67898560,0.00101750
4968.60779297,0.00096012
4970.53660034,0.00097193
4972.46540771,0.00096424
4974.39421509,0.00091137
4976.32302246,0.00089844
4978.25182983,0.00094084
4980.18063721,0.00095933
4982.10944458,0.00095467
4984.03825195,0.00096431
4985.96705933,0.00086350
4987.89586670,0.00089276
4989.82467407,0.00100105
4991.75348145,0.00088700
4993.68228882,0.00087911
4995.61109619,0.00095683
4997.53990356,0.00096362
4999.46871094,0.00092028
5001.39751831,0.00087447
5003.32632568,0.00095177
5005.25513306,0.00091753
5007.18394043,0.00087477
5009.11274780,0.00091886
5011.04155518,0.00094542
5012.97036255,0.00094916
5014.89916992,0.00085502
5016.82797729,0.00092799
5018.75678467,0.00094753
5020.68559204,0.00082067
5022.61439941,0.00089243
5024.54320679,0.00092632
5026.47201416,0.00097414
5028.40082153,0.00096811
5030.32962891,0.00083419
5032.25843628,0.00092163
5034.18724365,0.00090526
5036.11605103,0.00079716
5038.04485840,0.00091843
5039.97366577,0.00089276
5041.90247314,0.00087282
5043.83128052,0.00101070
5045.76008789,0.00090724
5047.68889526,0.00086840
5049.61770264,0.00091436
5051.54651001,0.00079999
5053.47531738,0.00085768
5055.40412476,0.00086583
5057.33293213,0.00080735
5059.26173950,0.00089394
5061.19054687,0.00084521
5063.11935425,0.00080880
5065.04816162,0.00082021
5066.97696899,0.00080534
5068.90577637,0.00085100
5070.83458374,0.00081024
5072.76339111,0.00076027
5074.69219849,0.00078255
5076.62100586,0.00080295
5078.54981323,0.00077148
5080.47862061,0.00074765
5082.40742798,0.00078125
5084.33623535,0.00075994
5086.26504272,0.00080108
5088.19385010,0.00084722
5090.12265747,0.00082395
5092.05146484,0.00087397
5093.98027222,0.00081316
5095.90907959,0.00077282
5097.83788696,0.00078410
5099.76669434,0.00072954
5101.69550171,0.00083051
5103.62430908,0.00081527
5105.55311645,0.00075771
5107.48192383,0.00077659
5109.41073120,0.00071919
5111.33953857,0.00078409
5113.26834595,0.00075340
5115.19715332,0.00073275
5117.12596069,0.00074846
5119.05476807,0.00075800
5120.98357544,0.00085968
5122.91238281,0.00069930
5124.84119019,0.00069180
5126.76999756,0.00079062
5128.69880493,0.00075269
5130.62761230,0.00078946
5132.55641968,0.00074043
5134.48522705,0.00076588
5136.41403442,0.00071031
5138.34284180,0.00070292
5140.27164917,0.00075992
5142.20045654,0.00068316
5144.12926392,0.00072966
5146.05807129,0.00069884
5147.98687866,0.00070371
5149.91568603,0.00068096
5151.84449341,0.00064781
5153.77330078,0.00073469
5155.70210815,0.00070966
5157.63091553,0.00077634
5159.55972290,0.00076677
5161.48853027,0.00071839
5163.41733765,0.00072862
5165.34614502,0.00067008
5167.27495239,0.00069133
5169.20375977,0.00068722
5171.13256714,0.00067278
5173.06137451,0.00066864
5174.99018188,0.00068161
5176.91898926,0.00066956
5178.84779663,0.00067080
5180.77660400,0.00071728
5182.70541138,0.00065842
5184.63421875,0.00068154
5186.56302612,0.00071007
5188.49183350,0.00068315
5190.42064087,0.00071981
5192.34944824,0.00070024
5194.27825562,0.00063814
5196.20706299,0.00062951
5198.13587036,0.00065509
5200.06467773,0.00066302
5201.99348511,0.00071868
5203.92229248,0.00068445
5205.85109985,0.00063745
5207.77990723,0.00068267
5209.70871460,0.00065369
5211.63752197,0.00072363
5213.56632935,0.00073758
5215.49513672,0.00065529
5217.42394409,0.00065329
5219.35275146,0.00061108
5221.28155884,0.00065424
5223.21036621,0.00066533
5225.13917358,0.00061629
5227.06798096,0.00064902
5228.99678833,0.00060953
5230.92559570,0.00062072
5232.85440308,0.00070453
5234.78321045,0.00066990
5236.71201782,0.00061442
5238.64082520,0.00065708
5240.56963257,0.00071325
5242.49843994,0.00067304
5244.42724731,0.00059957
5246.35605469,0.00062229
5248.28486206,0.00064770
5250.21366943,0.00060417
5252.14247681,0.00066246
5254.07128418,0.00066517
5256.00009155,0.00052218
5257.92889893,0.00058348
5259.85770630,0.00068852
5261.78651367,0.00057451
5263.71532104,0.00050661
5265.64412842,0.00054782
5267.57293579,0.00053180
5269.50174316,0.00055160
5271.43055054,0.00059305
5273.35935791,0.00058299
5275.28816528,0.00064871
5277.21697266,0.00063513
5279.14578003,0.00054138
5281.07458740,0.00054350
5283.00339478,0.00057538
5284.93220215,0.00058646
5286.86100952,0.00055820
5288.78981689,0.00054610
5290.71862427,0.00049449
5292.64743164,0.00051632
5294.57623901,0.00055140
5296.50504639,0.00052420
5298.43385376,0.00062587
5300.36266113,0.00058021
5302.29146851,0.00055026
5304.22027588,0.00056006
5306.14908325,0.00051364
5308.07789062,0.00064015
5310.00669800,0.00062138
5311.93550537,0.00057788
5313.86431274,0.00054665
5315.79312012,0.00051652
5317.72192749,0.00060893
5319.65073486,0.00056763
5321.57954224,0.00053023
5323.50834961,0.00057235
5325.43715698,0.00059712
5327.36596436,0.00046525
5329.29477173,0.00042424
5331.22357910,0.00057086
5333.15238647,0.00050772
5335.08119385,0.00048813
5337.01000122,0.00057047
5338.93880859,0.00055123
5340.86761597,0.00055472
5342.79642334,0.00061324
5344.72523071,0.00057147
5346.65403809,0.00050770
5348.58284546,0.00055698
5350.51165283,0.00054280
5352.44046020,0.00052502
5354.36926758,0.00054434
5356.29807495,0.00053468
5358.22688232,0.00050260
5360.15568970,0.00053360
5362.08449707,0.00055177
5364.01330444,0.00051261
5365.94211182,0.00050840
5367.87091919,0.00042694
5369.79972656,0.00053986
5371.72853394,0.00057594
5373.65734131,0.00045830
5375.58614868,0.00050960
5377.51495605,0.00042820
5379.44376343,0.00045685
5381.37257080,0.00044453
5383.30137817,0.00042307
5385.23018555,0.00051268
5387.15899292,0.00041819
5389.08780029,0.00051166
5391.01660767,0.00053237
5392.94541504,0.00047040
5394.87422241,0.00049390
5396.80302978,0.00044521
5398.73183716,0.00055617
5400.66064453,0.00053590
5402.58945190,0.00042262
5404.51825928,0.00046865
5406.44706665,0.00047693
5408.37587402,0.00047041
5410.30468140,0.00046700
5412.23348877,0.00043021
5414.16229614,0.00044664
5416.09110352,0.00050268
5418.01991089,0.00048384
5419.94871826,0.00043855
5421.87752563,0.00046806
5423.80633301,0.00049956
5425.73514038,0.00049611
5427.66394775,0.00051829
5429.59275513,0.00045412
5431.52156250,0.00040542
5433.45036987,0.00049765
5435.37917725,0.00050049
5437.30798462,0.00044502
5439.23679199,0.00049728
5441.16559936,0.00055166
5443.09440674,0.00044596
5445.02321411,0.00040561
5446.95202148,0.00046165
5448.88082886,0.00046032
5450.80963623,0.00046439
5452.73844360,0.00038035
5454.66725098,0.00042668
5456.59605835,0.00048638
5458.52486572,0.00039684
5460.45367310,0.00036030
5462.38248047,0.00037541
5464.31128784,0.00048022
5466.24009521,0.00040042
5468.16890259,0.00035515
5470.09770996,0.00045670
5472.02651733,0.00041941
5473.95532471,0.00041401
5475.88413208,0.00042812
5477.81293945,0.00049322
5479.74174683,0.00043579
5481.67055420,0.00040249
5483.59936157,0.00049392
5485.52816895,0.00043064
5487.45697632,0.00045652
5489.38578369,0.00047927
5491.31459106,0.00046445
5493.24339844,0.00042602
5495.17220581,0.00038620
5497.10101318,0.00046482
5499.02982056,0.00042750
5500.95862793,0.00037582
5502.88743530,0.00038537
5504.81624268,0.00042267
5506.74505005,0.00040916
5508.67385742,0.00039113
5510.60266479,0.00042300
5512.53147217,0.00035065
5514.46027954,0.00037312
5516.38908691,0.00040609
5518.31789429,0.00042072
5520.24670166,0.00044702
5522.17550903,0.00041211
5524.10431641,0.00044665
5526.03312378,0.00037062
5527.96193115,0.00035967
5529.89073853,0.00041535
5531.81954590,0.00036809
5533.74835327,0.00040993
5535.67716064,0.00038579
5537.60596802,0.00036280
5539.53477539,0.00037252
5541.46358276,0.00035440
5543.39239014,0.00040336
5545.32119751,0.00037505
5547.25000488,0.00032434
5549.17881226,0.00036159
5551.10761963,0.00039251
5553.03642700,0.00035731
5554.96523437,0.00042031
5556.89404175,0.00047674
5558.82284912,0.00038250
5560.75165649,0.00038030
5562.68046387,0.00037209
5564.60927124,0.00035488
5566.53807861,0.00037456
5568.46688599,0.00037171
5570.39569336,0.00040152
5572.32450073,0.00037809
5574.25330811,0.00040284
5576.18211548,0.00036289
5578.11092285,0.00031519
5580.03973022,0.00040247
5581.96853760,0.00035604
5583.89734497,0.00034154
5585.82615234,0.00036192
5587.75495972,0.00028651
5589.68376709,0.00030464
5591.61257446,0.00032110
5593.54138184,0.00031666
5595.47018921,0.00034360
5597.39899658,0.00031077
5599.32780395,0.00033503
5601.25661133,0.00036774
5603.18541870,0.00032819
5605.11422607,0.00030961
5607.04303345,0.00024484
5608.97184082,0.00028318
5610.90064819,0.00035617
5612.82945557,0.00030640
5614.75826294,0.00029412
5616.68707031,0.00030678
5618.61587769,0.00036292
5620.54468506,0.00036803
5622.47349243,0.00035779
5624.40229980,0.00035771
5626.33110718,0.00034202
5628.25991455,0.00039088
5630.18872192,0.00034175
5632.11752930,0.00034747
5634.04633667,0.00034575
5635.97514404,0.00024490
5637.90395142,0.00026447
5639.83275879,0.00032916
5641.76156616,0.00032261
5643.69037353,0.00027675
5645.61918091,0.00033038
5647.54798828,0.00033044
5649.47679565,0.00031818
5651.40560303,0.00031520
5653.33441040,0.00029038
5655.26321777,0.00035472
5657.19202515,0.00028394
5659.12083252,0.00031361
5661.04963989,0.00034018
5662.97844727,0.00027358
5664.90725464,0.00034600
5666.83606201,0.00032246
5668.76486938,0.00032672
5670.69367676,0.00034200
5672.62248413,0.00034138
5674.55129150,0.00028663
5676.48009888,0.00026534
5678.40890625,0.00036706
5680.33771362,0.00027074
5682.26652100,0.00031913
5684.19532837,0.00039196
5686.12413574,0.00028420
5688.05294311,0.00030802
5689.98175049,0.00028204
5691.91055786,0.00028188
5693.83936523,0.00030416
5695.76817261,0.00028816
5697.69697998,0.00034722
5699.62578735,0.00029627
5701.55459473,0.00025418
5703.48340210,0.00031988
5705.41220947,0.00027588
5707.34101685,0.00025127
5709.26982422,0.00027566
5711.19863159,0.00023139
5713.12743896,0.00026225
5715.05624634,0.00031418
5716.98505371,0.00029294
5718.91386108,0.00024643
5720.84266846,0.00025518
5722.77147583,0.00028559
5724.70028320,0.00028726
5726.62909058,0.00031564
5728.55789795,0.00031582
5730.48670532,0.00031470
5732.41551270,0.00020890
5734.34432007,0.00013904
5736.27312744,0.00025053
5738.20193481,0.00028860
5740.13074219,0.00032224
5742.05954956,0.00028115
5743.98835693,0.00025974
5745.91716431,0.00032003
5747.84597168,0.00020935
5749.77477905,0.00018568
5751.70358643,0.00028437
5753.63239380,0.00029859
5755.56120117,0.00023357
5757.49000854,0.00026424
5759.41881592,0.00032122
5761.34762329,0.00021938
5763.27643066,0.00025063
5765.20523804,0.00031798
5767.13404541,0.00027498
5769.06285278,0.00025752
5770.99166016,0.00021205
5772.92046753,0.00023263
5774.84927490,0.00030639
5776.77808228,0.00030089
5778.70688965,0.00022566
5780.63569702,0.00023057
5782.56450439,0.00026220
5784.49331177,0.00023229
5786.42211914,0.00023411
5788.35092651,0.00024551
5790.27973389,0.00033746
5792.20854126,0.00028811
5794.13734863,0.00020307
5796.06615601,0.00029493
5797.99496338,0.00025401
5799.92377075,0.00029118
5801.85257812,0.00030151
5803.78138550,0.00025681
5805.71019287,0.00029773
5807.63900024,0.00023685
5809.56780762,0.00026798
5811.49661499,0.00025548
5813.42542236,0.00028148
5815.35422974,0.00025706
5817.28303711,0.00016116
5819.21184448,0.00024889
5821.14065186,0.00018431
5823.06945923,0.00017413
5824.99826660,0.00018572
5826.92707397,0.00022498
5828.85588135,0.00024789
5830.78468872,0.00014933
5832.71349609,0.00029582
5834.64230347,0.00022133
5836.57111084,0.00020695
5838.49991821,0.00034370
5840.42872559,0.00024324
5842.35753296,0.00026741
5844.28634033,0.00023276
5846.21514770,0.00025200
5848.14395508,0.00032571
5850.07276245,0.00023803
5852.00156982,0.00014150
5853.93037720,0.00014873
5855.85918457,0.00024964
5857.78799194,0.00026887
5859.71679932,0.00030282
5861.64560669,0.00029424
5863.57441406,0.00023985
5865.50322144,0.00021423
5867.43202881,0.00020977
5869.36083618,0.00021831
5871.28964355,0.00023089
5873.21845093,0.00029029
5875.14725830,0.00021066
5877.07606567,0.00021489
5879.00487305,0.00026794
5880.93368042,0.00021957
5882.86248779,0.00022864
5884.79129517,0.00015733
5886.72010254,0.00016577
5888.64890991,0.00023127
5890.57771728,0.00018433
5892.50652466,0.00018214
5894.43533203,0.00025118
5896.36413940,0.00021098
5898.29294678,0.00022563
5900.22175415,0.00030154
5902.15056152,0.00020062
5904.07936890,0.00023881
5906.00817627,0.00027338
5907.93698364,0.00022547
5909.86579102,0.00024991
5911.79459839,0.00022560
5913.72340576,0.00019471
5915.65221313,0.00016459
5917.58102051,0.00024594
5919.50982788,0.00023462
5921.43863525,0.00018950
5923.36744263,0.00015430
5925.29625000,0.00013971
5927.22505737,0.00026246
5929.15386475,0.00017093
5931.08267212,0.00019601
5933.01147949,0.00022357
5934.94028686,0.00019974
5936.86909424,0.00029087
5938.79790161,0.00014964
5940.72670898,0.00015061
5942.65551636,0.00017642
5944.58432373,0.00019257
5946.51313110,0.00023471
5948.44193848,0.00013342
5950.37074585,0.00016176
5952.29955322,0.00019848
5954.22836060,0.00025823
5956.15716797,0.00021195
5958.08597534,0.00016149
5960.01478271,0.00022841
5961.94359009,0.00018959
5963.87239746,0.00022499
5965.80120483,0.00021847
5967.73001221,0.00021848
5969.65881958,0.00021323
5971.58762695,0.00014553
5973.51643433,0.00022797
5975.44524170,0.00019711
5977.37404907,0.00014334
5979.30285645,0.00016161
5981.23166382,0.00012140
5983.16047119,0.00017252
5985.08927856,0.00018618
5987.01808594,0.00017847
5988.94689331,0.00016023
5990.87570068,0.00012100
5992.80450806,0.00019423
5994.73331543,0.00017326
5996.66212280,0.00015111
5998.59093018,0.00017710
6000.51973755,0.00012808
