399.26312622,0.00079972
401.19193359,0.00099673
403.12074097,0.00074639
405.04954834,0.00037953
406.97835571,0.00075103
408.90716309,0.00077957
410.83597046,0.00051797
412.76477783,0.00103406
414.69358521,0.00101862
416.62239258,0.00079842
418.55119995,0.00105571
420.48000732,0.00097457
422.40881470,0.00110930
424.33762207,0.00106311
426.26642944,0.00104307
428.19523682,0.00133389
430.12404419,0.00109105
432.05285156,0.00059230
433.98165894,0.00072612
435.91046631,0.00118525
437.83927368,0.00084939
439.76808105,0.00067160
441.69688843,0.00077349
443.62569580,0.00080675
445.55450317,0.00092231
447.48331055,0.00074058
449.41211792,0.00090296
451.34092529,0.00107222
453.26973267,0.00058024
455.19854004,0.00047201
457.12734741,0.00114180
459.05615479,0.00084065
460.98496216,0.00047970
462.91376953,0.00070163
464.84257690,0.00026920
466.77138428,0.00040508
468.70019165,0.00016727
470.62899902,0.00003904
472.55780640,0.00039516
474.48661377,0.00037860
476.41542114,0.00063111
478.34422852,0.00091271
480.27303589,0.00058183
482.20184326,0.00052806
484.13065063,0.00051650
486.05945801,-0.00004317
487.98826538,-0.00009429
489.91707275,0.00041556
491.84588013,0.00042483
493.77468750,0.00060039
495.70349487,0.00076153
497.63230225,0.00051269
499.56110962,0.00037211
501.48991699,0.00015987
503.41872437,0.00024035
505.34753174,0.00017188
507.27633911,0.00029896
509.20514648,0.00052499
511.13395386,0.00052332
513.06276123,0.00090604
514.99156860,0.00034264
516.92037598,0.00024857
518.84918335,0.00059092
520.77799072,-0.00001481
522.70679810,0.00053370
524.63560547,0.00060330
526.56441284,0.00027441
528.49322021,0.00045408
530.42202759,0.00024457
532.35083496,0.00066638
534.27964233,0.00049688
536.20844971,0.00046613
538.13725708,0.00036299
540.06606445,-0.00017956
541.99487183,0.00020794
543.92367920,0.00005368
545.85248657,0.00024659
547.78129395,0.00053082
549.71010132,0.00032249
551.63890869,0.00046297
553.56771606,0.00039815
555.49652344,0.00055859
557.42533081,0.00033179
559.35413818,0.00007209
561.28294556,0.00027369
563.21175293,0.00047181
565.14056030,0.00038394
567.06936768,-0.00010422
568.99817505,0.00009303
570.92698242,0.00041991
572.85578979,0.00042165
574.78459717,0.00044678
576.71340454,0.00032214
578.64221191,0.00034235
580.57101929,0.00047279
582.49982666,0.00054195
584.42863403,0.00024575
586.35744141,0.00017625
588.28624878,0.00029347
590.21505615,0.00023390
592.14386353,0.00036871
594.07267090,0.00021405
596.00147827,0.00053188
597.93028564,0.00079048
599.85909302,0.00036952
601.78790039,0.00042431
603.71670776,0.00016373
605.64551514,0.00032761
607.57432251,0.00072003
609.50312988,0.00023086
611.43193726,0.00016423
613.36074463,0.00026579
615.28955200,0.00051662
617.21835938,0.00051874
619.14716675,0.00033393
621.07597412,0.00037326
623.00478149,-0.00006596
624.93358887,0.00016102
626.86239624,-0.00002267
628.79120361,0.00037813
630.72001099,0.00064143
632.64881836,0.00028808
634.57762573,0.00082331
636.50643311,0.00099651
638.43524048,0.00085908
640.36404785,0.00095540
642.29285522,0.00075343
644.22166260,0.00098458
646.15046997,0.00106883
648.07927734,0.00104573
650.00808472,0.00146438
651.93689209,0.00126511
653.86569946,0.00142366
655.79450684,0.00125325
657.72331421,0.00106131
659.65212158,0.00182076
661.58092896,0.00147463
663.50973633,0.00142504
665.43854370,0.00187123
667.36735107,0.00138419
669.29615845,0.00148973
671.22496582,0.00198842
673.15377319,0.00187855
675.08258057,0.00209516
677.01138794,0.00227408
678.94019531,0.00200746
680.86900269,0.00235619
682.79781006,0.00229069
684.72661743,0.00193944
686.65542480,0.00197344
688.58423218,0.00189513
690.51303955,0.00215368
692.44184692,0.00227356
694.37065430,0.00232295
696.29946167,0.00247007
698.22826904,0.00298852
700.15707642,0.00352409
702.08588379,0.00312210
704.01469116,0.00289653
705.94349854,0.00263572
707.87230591,0.00213160
709.80111328,0.00193987
711.72992065,0.00136318
713.65872803,0.00084407
715.58753540,0.00053980
717.51634277,0.00013622
719.44515015,0.00018724
721.37395752,0.00013798
723.30276489,0.00001001
725.23157227,0.00018583
727.16037964,0.00017207
729.08918701,0.00012783
731.01799438,0.00010994
732.94680176,0.00038263
734.87560913,0.00030591
736.80441650,0.00031794
738.73322388,0.00036929
740.66203125,0.00033815
742.59083862,0.00036889
744.51964600,0.00037990
746.44845337,0.00022577
748.37726074,0.00003474
750.30606812,0.00044849
752.23487549,0.00058238
754.16368286,0.00043216
756.09249023,0.00054022
758.02129761,0.00011170
759.95010498,0.00004747
761.87891235,0.00010631
763.80771973,0.00004762
765.73652710,0.00052771
767.66533447,0.00042209
769.59414185,0.00033302
771.52294922,0.00029566
773.45175659,0.00010533
775.38056396,0.00071978
777.30937134,0.00048777
779.23817871,0.00033248
781.16698608,0.00016170
783.09579346,0.00046756
785.02460083,0.00016791
786.95340820,0.00032016
788.88221558,0.00033584
790.81102295,-0.00014912
792.73983032,0.00025720
794.66863770,0.00043454
796.59744507,0.00050616
798.52625244,0.00031067
800.45505981,0.00050411
802.38386719,0.00076132
804.31267456,0.00032401
806.24148193,0.00063500
808.17028931,0.00032779
810.09909668,0.00006777
812.02790405,0.00016966
813.95671143,-0.00003809
815.88551880,0.00044341
817.81432617,0.00050119
819.74313354,0.00035756
821.67194092,0.00056344
823.60074829,0.00053046
825.52955566,0.00040889
827.45836304,0.00041203
829.38717041,0.00031670
831.31597778,0.00047373
833.24478516,0.00083558
835.17359253,0.00049497
837.10239990,0.00042578
839.03120728,0.00079168
840.96001465,0.00087275
842.88882202,0.00093281
844.81762939,0.00083809
846.74643677,0.00061204
848.67524414,0.00065877
850.60405151,0.00083219
852.53285889,0.00057456
854.46166626,0.00041353
856.39047363,0.00037082
858.31928101,0.00032686
860.24808838,0.00037427
862.17689575,0.00040841
864.10570313,0.00067928
866.03451050,0.00052339
867.96331787,0.00024069
869.89212524,0.00023013
871.82093262,0.00041095
873.74973999,0.00054080
875.67854736,0.00045361
877.60735474,0.00056562
879.53616211,0.00041496
881.46496948,0.00040830
883.39377686,0.00048465
885.32258423,0.00036866
887.25139160,0.00051335
889.18019897,0.00056527
891.10900635,0.00043163
893.03781372,0.00031583
894.96662109,0.00037841
896.89542847,0.00038947
898.82423584,0.00044357
900.75304321,0.00045860
902.68185059,0.00019063
904.61065796,0.00032032
906.53946533,0.00044264
908.46827271,0.00041745
910.39708008,0.00057322
912.32588745,0.00055002
914.25469482,0.00064329
916.18350220,0.00078620
918.11230957,0.00077717
920.04111694,0.00050963
921.96992432,0.00054272
923.89873169,0.00090421
925.82753906,0.00073559
927.75634644,0.00070930
929.68515381,0.00085216
931.61396118,0.00095270
933.54276855,0.00116316
935.47157593,0.00128291
937.40038330,0.00124666
939.32919067,0.00109946
941.25799805,0.00133872
943.18680542,0.00123765
945.11561279,0.00108283
947.04442017,0.00137041
948.97322754,0.00121428
950.90203491,0.00105606
952.83084229,0.00116391
954.75964966,0.00129929
956.68845703,0.00129273
958.61726440,0.00122493
960.54607178,0.00110589
962.47487915,0.00119237
964.40368652,0.00140887
966.33249390,0.00123036
968.26130127,0.00136754
970.19010864,0.00130105
972.11891602,0.00135786
974.04772339,0.00176798
975.97653076,0.00154536
977.90533813,0.00164068
979.83414551,0.00184685
981.76295288,0.00211866
983.69176025,0.00244980
985.62056763,0.00247918
987.54937500,0.00290988
989.47818237,0.00323929
991.40698975,0.00344874
993.33579712,0.00385614
995.26460449,0.00410713
997.19341187,0.00429199
999.12221924,0.00466764
1001.05102661,0.00501408
1002.97983398,0.00527883
1004.90864136,0.00571757
1006.83744873,0.00617605
1008.76625610,0.00656906
1010.69506348,0.00701414
1012.62387085,0.00741658
1014.55267822,0.00751379
1016.48148560,0.00795037
1018.41029297,0.00853322
1020.33910034,0.00883605
1022.26790771,0.00916465
1024.19671509,0.00939777
1026.12552246,0.01001686
1028.05432983,0.01016344
1029.98313721,0.01043574
1031.91194458,0.01115762
1033.84075195,0.01095134
1035.76955933,0.01128418
1037.69836670,0.01159796
1039.62717407,0.01133124
1041.55598145,0.01124711
1043.48478882,0.01112103
1045.41359619,0.01135177
1047.34240356,0.01117513
1049.27121094,0.01072969
1051.20001831,0.01064258
1053.12882568,0.01062050
1055.05763306,0.01046359
1056.98644043,0.01016938
1058.91524780,0.00994467
1060.84405518,0.00969422
1062.77286255,0.00934589
1064.70166992,0.00890697
1066.63047729,0.00868469
1068.55928467,0.00826306
1070.48809204,0.00780627
1072.41689941,0.00767798
1074.34570679,0.00731087
1076.27451416,0.00691649
1078.20332153,0.00653120
1080.13212891,0.00633959
1082.06093628,0.00605072
1083.98974365,0.00575201
1085.91855103,0.00576641
1087.84735840,0.00536416
1089.77616577,0.00501655
1091.70497314,0.00491342
1093.63378052,0.00467452
1095.56258789,0.00447767
1097.49139526,0.00449196
1099.42020264,0.00433221
1101.34901001,0.00407476
1103.27781738,0.00414397
1105.20662476,0.00414069
1107.13543213,0.00407893
1109.06423950,0.00372724
1110.99304687,0.00368117
1112.92185425,0.00386932
1114.85066162,0.00376280
1116.77946899,0.00394973
1118.70827637,0.00367413
1120.63708374,0.00384187
1122.56589111,0.00409093
1124.49469849,0.00351950
1126.42350586,0.00384368
1128.35231323,0.00401758
1130.28112061,0.00386450
1132.20992798,0.00414590
1134.13873535,0.00419092
1136.06754272,0.00439474
1137.99635010,0.00476681
1139.92515747,0.00509752
1141.85396484,0.00533901
1143.78277222,0.00573956
1145.71157959,0.00621409
1147.64038696,0.00648201
1149.56919434,0.00682584
1151.49800171,0.00699677
1153.42680908,0.00731771
1155.35561646,0.00777338
1157.28442383,0.00808361
1159.21323120,0.00855828
1161.14203857,0.00878888
1163.07084595,0.00901932
1164.99965332,0.00933433
1166.92846069,0.00952919
1168.85726807,0.00994675
1170.78607544,0.01036071
1172.71488281,0.01078479
1174.64369019,0.01105566
1176.57249756,0.01132247
1178.50130493,0.01198093
1180.43011230,0.01246204
1182.35891968,0.01296572
1184.28772705,0.01370090
1186.21653442,0.01408330
1188.14534180,0.01468441
1190.07414917,0.01557144
1192.00295654,0.01599796
1193.93176392,0.01689116
1195.86057129,0.01788650
1197.78937866,0.01839620
1199.71818604,0.01938828
1201.64699341,0.02019750
1203.57580078,0.02095395
1205.50460815,0.02182807
1207.43341553,0.02253662
1209.36222290,0.02345558
1211.29103027,0.02401313
1213.21983765,0.02462701
1215.14864502,0.02534902
1217.07745239,0.02603588
1219.00625977,0.02655129
1220.93506714,0.02659273
1222.86387451,0.02707173
1224.79268188,0.02739531
1226.72148926,0.02744647
1228.65029663,0.02774703
1230.57910400,0.02787944
1232.50791138,0.02788435
1234.43671875,0.02772192
1236.36552612,0.02775786
1238.29433350,0.02785057
1240.22314087,0.02765293
1242.15194824,0.02761341
1244.08075562,0.02785205
1246.00956299,0.02771640
1247.93837036,0.02722501
1249.86717773,0.02709120
1251.79598511,0.02683816
1253.72479248,0.02659735
1255.65359985,0.02646947
1257.58240723,0.02598803
1259.51121460,0.02561146
1261.44002197,0.02524847
1263.36882935,0.02488005
1265.29763672,0.02454848
1267.22644409,0.02426951
1269.15525146,0.02403935
1271.08405884,0.02358912
1273.01286621,0.02323015
1274.94167358,0.02285494
1276.87048096,0.02246946
1278.79928833,0.02203531
1280.72809570,0.02149655
1282.65690308,0.02122522
1284.58571045,0.02083192
1286.51451782,0.02037800
1288.44332520,0.02016946
1290.37213257,0.02000171
1292.30093994,0.01973780
1294.22974731,0.01947651
1296.15855469,0.01935203
1298.08736206,0.01935596
1300.01616943,0.01967504
1301.94497681,0.01970312
1303.87378418,0.01956831
1305.80259155,0.01994164
1307.73139893,0.02008615
1309.66020630,0.02036206
1311.58901367,0.02087918
1313.51782104,0.02111772
1315.44662842,0.02172583
1317.37543579,0.02224914
1319.30424316,0.02269957
1321.23305054,0.02370506
1323.16185791,0.02445201
1325.09066528,0.02504420
1327.01947266,0.02575171
1328.94828003,0.02613834
1330.87708740,0.02676135
1332.80589478,0.02759854
1334.73470215,0.02816110
1336.66350952,0.02830486
1338.59231689,0.02783471
1340.52112427,0.02830684
1342.44993164,0.02962598
1344.37873901,0.02971822
1346.30754639,0.02968085
1348.23635376,0.02961325
1350.16516113,0.02928718
1352.09396851,0.02954568
1354.02277588,0.02916565
1355.95158325,0.02883663
1357.88039062,0.02882013
1359.80919800,0.02830659
1361.73800537,0.02684080
1363.66681274,0.02624382
1365.59562012,0.02796148
1367.52442749,0.02735282
1369.45323486,0.02682591
1371.38204224,0.02747549
1373.31084961,0.02585361
1375.23965698,0.02619706
1377.16846436,0.02699640
1379.09727173,0.02685072
1381.02607910,0.02698941
1382.95488647,0.02692831
1384.88369385,0.02701436
1386.81250122,0.02548922
1388.74130859,0.02588746
1390.67011597,0.02839015
1392.59892334,0.02750035
1394.52773071,0.02548724
1396.45653809,0.02682017
1398.38534546,0.02677640
1400.31415283,0.02659659
1402.24296021,0.02929799
1404.17176758,0.02738971
1406.10057495,0.02720484
1408.02938232,0.02876486
1409.95818970,0.02762185
1411.88699707,0.02833309
1413.81580444,0.02735044
1415.74461182,0.02769154
1417.67341919,0.02462568
1419.60222656,0.02166117
1421.53103394,0.02571417
1423.45984131,0.02495541
1425.38864868,0.02404997
1427.31745605,0.02466476
1429.24626343,0.02283758
1431.17507080,0.02205800
1433.10387817,0.02253644
1435.03268555,0.02055684
1436.96149292,0.01691737
1438.89030029,0.01972302
1440.81910767,0.02041486
1442.74791504,0.01868441
1444.67672241,0.01989785
1446.60552979,0.01814785
1448.53433716,0.01834580
1450.46314453,0.01889410
1452.39195190,0.01936165
1454.32075928,0.02017713
1456.24956665,0.01615462
1458.17837402,0.01683865
1460.10718140,0.02316778
1462.03598877,0.02485795
1463.96479614,0.02414076
1465.89360352,0.02506088
1467.82241089,0.02923017
1469.75121826,0.03123419
1471.68002563,0.02702318
1473.60883301,0.02849638
1475.53764038,0.03276911
1477.46644775,0.03550907
1479.39525513,0.03939228
1481.32406250,0.03965146
1483.25286987,0.04211608
1485.18167725,0.04331806
1487.11048462,0.04230693
1489.03929199,0.04161122
1490.96809937,0.04169827
1492.89690674,0.04974413
1494.82571411,0.04809498
1496.75452148,0.04256409
1498.68332886,0.04878578
1500.61213623,0.05027527
1502.54094360,0.05471840
1504.46975098,0.05087060
1506.39855835,0.03456949
1508.32736572,0.04382647
1510.25617310,0.05285384
1512.18498047,0.05103473
1514.11378784,0.05611712
1516.04259521,0.04963573
1517.97140259,0.05179839
1519.90020996,0.05008652
1521.82901733,0.04217624
1523.75782471,0.05331545
1525.68663208,0.05229199
1527.61543945,0.05191460
1529.54424683,0.05859860
1531.47305420,0.05595122
1533.40186157,0.05036454
1535.33066895,0.05420285
1537.25947632,0.05882560
1539.18828369,0.03951634
1541.11709106,0.04159079
1543.04589844,0.05151821
1544.97470581,0.04913419
1546.90351318,0.06024366
1548.83232056,0.05526463
1550.76112793,0.05729286
1552.68993530,0.05724817
1554.61874268,0.05084127
1556.54755005,0.05509818
1558.47635742,0.03606496
1560.40516479,0.03984579
1562.33397217,0.06073132
1564.26277954,0.05655103
1566.19158691,0.05875051
1568.12039429,0.05791137
1570.04920166,0.05002353
1571.97800903,0.05979112
1573.90681641,0.06046833
1575.83562378,0.04604349
1577.76443115,0.05351729
1579.69323853,0.06138482
1581.62204590,0.05849779
1583.55085327,0.06021961
1585.47966064,0.05915724
1587.40846802,0.05994486
1589.33727539,0.05930220
1591.26608276,0.05914991
1593.19489014,0.05928129
1595.12369751,0.05871489
1597.05250488,0.05958579
1598.98131226,0.05909171
1600.91011963,0.05969204
1602.83892700,0.05826126
1604.76773437,0.05938544
1606.69654175,0.05842933
1608.62534912,0.05829426
1610.55415649,0.05834933
1612.48296387,0.05878927
1614.41177124,0.05968974
1616.34057861,0.04695123
1618.26938599,0.05195688
1620.19819336,0.06221204
1622.12700073,0.05369771
1624.05580811,0.05385745
1625.98461548,0.05722115
1627.91342285,0.05680731
1629.84223022,0.05650586
1631.77103760,0.06121042
1633.69984497,0.05550220
1635.62865234,0.04390501
1637.55745972,0.05296065
1639.48626709,0.05949008
1641.41507446,0.05770367
1643.34388184,0.05961074
1645.27268921,0.05271076
1647.20149658,0.04473032
1649.13030396,0.05813174
1651.05911133,0.05497470
1652.98791870,0.03230093
1654.91672607,0.04696283
1656.84553345,0.06110721
1658.77434082,0.05822681
1660.70314819,0.06003916
1662.63195557,0.05340166
1664.56076294,0.05707839
1666.48957031,0.06234981
1668.41837769,0.05274236
1670.34718506,0.05086784
1672.27599243,0.05921504
1674.20479980,0.05379948
1676.13360718,0.05149220
1678.06241455,0.06072374
1679.99122192,0.05805013
1681.92002930,0.05711102
1683.84883667,0.04463530
1685.77764404,0.04457045
1687.70645142,0.06410408
1689.63525879,0.05438063
1691.56406616,0.06113052
1693.49287354,0.06224193
1695.42168091,0.04314537
1697.35048828,0.05520149
1699.27929565,0.04706044
1701.20810303,0.04171671
1703.13691040,0.06024193
1705.06571777,0.05428752
1706.99452515,0.05489375
1708.92333252,0.06070308
1710.85213989,0.05812117
1712.78094727,0.05906470
1714.70975464,0.05398388
1716.63856201,0.04779843
1718.56736938,0.04689456
1720.49617676,0.05749273
1722.42498413,0.06007375
1724.35379150,0.05488063
1726.28259888,0.06101940
1728.21140625,0.05561376
1730.14021362,0.05584291
1732.06902100,0.05437855
1733.99782837,0.03934651
1735.92663574,0.05131121
1737.85544312,0.05734304
1739.78425049,0.04984969
1741.71305786,0.05531459
1743.64186523,0.05609601
1745.57067261,0.05626982
1747.49947998,0.05650561
1749.42828735,0.05337884
1751.35709473,0.05085591
1753.28590210,0.05759211
1755.21470947,0.06055323
1757.14351685,0.05429330
1759.07232422,0.06096369
1761.00113159,0.05639840
1762.92993896,0.05411857
1764.85874634,0.06353920
1766.78755371,0.05597736
1768.71636108,0.05682346
1770.64516846,0.05619437
1772.57397583,0.04939215
1774.50278320,0.05651197
1776.43159058,0.06020102
1778.36039795,0.05928001
1780.28920532,0.05838316
1782.21801270,0.05905027
1784.14682007,0.05892939
1786.07562744,0.05756257
1788.00443481,0.06127650
1789.93324219,0.05917434
1791.86204956,0.05230459
1793.79085693,0.05525003
1795.71966431,0.06020388
1797.64847168,0.05915879
1799.57727905,0.05812612
1801.50608643,0.05691912
1803.43489380,0.05902988
1805.36370117,0.06069499
1807.29250854,0.05981808
1809.22131592,0.06005605
1811.15012329,0.05806659
1813.07893066,0.06027270
1815.00773804,0.06068121
1816.93654541,0.05979969
1818.86535278,0.06039450
1820.79416016,0.06009615
1822.72296753,0.06111982
1824.65177490,0.05630770
1826.58058228,0.05876971
1828.50938965,0.05886146
1830.43819702,0.05446237
1832.36700439,0.06036919
1834.29581177,0.06001256
1836.22461914,0.06009284
1838.15342651,0.05967747
1840.08223389,0.06006917
1842.01104126,0.06028155
1843.93984863,0.05202175
1845.86865601,0.05621857
1847.79746338,0.06011054
1849.72627075,0.05855029
1851.65507812,0.06067703
1853.58388550,0.05933289
1855.51269287,0.05994327
1857.44150024,0.05952387
1859.37030762,0.05910058
1861.29911499,0.05956416
1863.22792236,0.05895355
1865.15672974,0.05968277
1867.08553711,0.05719110
1869.01434448,0.05436093
1870.94315186,0.05714248
1872.87195923,0.05971854
1874.80076660,0.05854286
1876.72957397,0.05920299
1878.65838135,0.05882512
1880.58718872,0.05851585
1882.51599609,0.05911009
1884.44480347,0.05776048
1886.37361084,0.05902475
1888.30241821,0.05733543
1890.23122559,0.05600408
1892.16003296,0.05856156
1894.08884033,0.05758340
1896.01764771,0.05737782
1897.94645508,0.05805104
1899.87526245,0.05793783
1901.80406982,0.05815894
1903.73287720,0.05769219
1905.66168457,0.05785222
1907.59049194,0.05708886
1909.51929932,0.05687968
1911.44810669,0.05728517
1913.37691406,0.05746963
1915.30572144,0.05801317
1917.23452881,0.05479803
1919.16333618,0.05503021
1921.09214355,0.05762536
1923.02095093,0.05527512
1924.94975830,0.05674243
1926.87856567,0.05757668
1928.80737305,0.05665366
1930.73618042,0.05749999
1932.66498779,0.05649718
1934.59379517,0.05727416
1936.52260254,0.05664729
1938.45140991,0.05691028
1940.38021729,0.05704347
1942.30902466,0.05461491
1944.23783203,0.05609267
1946.16663940,0.05656111
1948.09544678,0.05639929
1950.02425415,0.05687989
1951.95306152,0.05650409
1953.88186890,0.05670084
1955.81067627,0.05622977
1957.73948364,0.05653553
1959.66829102,0.05641725
1961.59709839,0.05626558
1963.52590576,0.05660002
1965.45471313,0.05590375
1967.38352051,0.05530933
1969.31232788,0.05591126
1971.24113525,0.05651416
1973.16994263,0.05610562
1975.09875000,0.05626309
1977.02755737,0.05607317
1978.95636475,0.05607065
1980.88517212,0.05614317
1982.81397949,0.05575864
1984.74278687,0.05601115
1986.67159424,0.05555794
1988.60040161,0.05548457
1990.52920898,0.05502403
1992.45801636,0.05436262
1994.38682373,0.05529550
1996.31563110,0.05546440
1998.24443848,0.05504495
2000.17324585,0.05526287
2002.10205322,0.05509932
2004.03086060,0.05484354
2005.95966797,0.05494739
2007.88847534,0.05478250
2009.81728271,0.05473886
2011.74609009,0.05453078
2013.67489746,0.05436015
2015.60370483,0.05410087
2017.53251221,0.05362032
2019.46131958,0.05401927
2021.39012695,0.05395488
2023.31893433,0.05378577
2025.24774170,0.05372430
2027.17654907,0.05351218
2029.10535645,0.05369441
2031.03416382,0.05349895
2032.96297119,0.05349098
2034.89177856,0.05322682
2036.82058594,0.05313400
2038.74939331,0.05327382
2040.67820068,0.05277410
2042.60700806,0.05258886
2044.53581543,0.05265481
2046.46462280,0.05268948
2048.39343018,0.05259306
2050.32223755,0.05247856
2052.25104492,0.05233286
2054.17985229,0.05219721
2056.10865967,0.05209560
2058.03746704,0.05198642
2059.96627441,0.05197166
2061.89508179,0.05184695
2063.82388916,0.05158319
2065.75269653,0.05129762
2067.68150391,0.05158118
2069.61031128,0.05152075
2071.53911865,0.05123600
2073.46792603,0.05131427
2075.39673340,0.05111643
2077.32554077,0.05111294
2079.25434814,0.05090982
2081.18315552,0.05078728
2083.11196289,0.05082641
2085.04077026,0.05075616
2086.96957764,0.05060325
2088.89838501,0.05040199
2090.82719238,0.05049831
2092.75599976,0.05032527
2094.68480713,0.05032627
2096.61361450,0.05029304
2098.54242187,0.05021504
2100.47122925,0.05022144
2102.40003662,0.05003949
2104.32884399,0.04998378
2106.25765137,0.04974427
2108.18645874,0.04969271
2110.11526611,0.04966100
2112.04407349,0.04972727
2113.97288086,0.04952720
2115.90168823,0.04937156
2117.83049561,0.04954239
2119.75930298,0.04914981
2121.68811035,0.04929243
2123.61691772,0.04930165
2125.54572510,0.04910813
2127.47453247,0.04912885
2129.40333984,0.04887706
2131.33214722,0.04883479
2133.26095459,0.04872376
2135.18976196,0.04875441
2137.11856934,0.04861346
2139.04737671,0.04861994
2140.97618408,0.04867945
2142.90499146,0.04850530
2144.83379883,0.04854009
2146.76260620,0.04842933
2148.69141357,0.04851844
2150.62022095,0.04834747
2152.54902832,0.04819435
2154.47783569,0.04826676
2156.40664307,0.04807677
2158.33545044,0.04795953
2160.26425781,0.04800807
2162.19306519,0.04815587
2164.12187256,0.04803765
2166.05067993,0.04797329
2167.97948730,0.04786791
2169.90829468,0.04777694
2171.83710205,0.04773552
2173.76590942,0.04763958
2175.69471680,0.04769057
2177.62352417,0.04750952
2179.55233154,0.04745300
2181.48113892,0.04737932
2183.40994629,0.04739232
2185.33875366,0.04736357
2187.26756104,0.04719870
2189.19636841,0.04721660
2191.12517578,0.04709373
2193.05398315,0.04719263
2194.98279053,0.04705357
2196.91159790,0.04692623
2198.84040527,0.04701016
2200.76921265,0.04694587
2202.69802002,0.04693536
2204.62682739,0.04676558
2206.55563477,0.04678282
2208.48444214,0.04672763
2210.41324951,0.04664373
2212.34205688,0.04663186
2214.27086426,0.04656304
2216.19967163,0.04654087
2218.12847900,0.04644900
2220.05728638,0.04647399
2221.98609375,0.04638052
2223.91490112,0.04625278
2225.84370850,0.04615600
2227.77251587,0.04621638
2229.70132324,0.04611713
2231.63013062,0.04591889
2233.55893799,0.04600947
2235.48774536,0.04577344
2237.41655273,0.04580403
2239.34536011,0.04587161
2241.27416748,0.04555941
2243.20297485,0.04548183
2245.13178223,0.04553790
2247.06058960,0.04550898
2248.98939697,0.04540638
2250.91820435,0.04544613
2252.84701172,0.04528474
2254.77581909,0.04518818
2256.70462646,0.04527189
2258.63343384,0.04515164
2260.56224121,0.04504624
2262.49104858,0.04493155
2264.41985596,0.04482875
2266.34866333,0.04477295
2268.27747070,0.04484720
2270.20627808,0.04480140
2272.13508545,0.04468671
2274.06389282,0.04469258
2275.99270020,0.04464088
2277.92150757,0.04457659
2279.85031494,0.04449526
2281.77912231,0.04447359
2283.70792969,0.04433302
2285.63673706,0.04423419
2287.56554443,0.04417510
2289.49435181,0.04405079
2291.42315918,0.04407257
2293.35196655,0.04406492
2295.28077393,0.04389490
2297.20958130,0.04359766
2299.13838867,0.04351971
2301.06719604,0.04344937
2302.99600342,0.04319350
2304.92481079,0.04291010
2306.85361816,0.04268475
2308.78242554,0.04244091
2310.71123291,0.04203443
2312.64004028,0.04174419
2314.56884766,0.04137505
2316.49765503,0.04097137
2318.42646240,0.04034370
2320.35526978,0.03973434
2322.28407715,0.03941593
2324.21288452,0.03887598
2326.14169189,0.03856358
2328.07049927,0.03822662
2329.99930664,0.03775483
2331.92811401,0.03742691
2333.85692139,0.03723527
2335.78572876,0.03706029
2337.71453613,0.03693420
2339.64334351,0.03707559
2341.57215088,0.03715502
2343.50095825,0.03761216
2345.42976562,0.03823204
2347.35857300,0.03967791
2349.28738037,0.04098012
2351.21618774,0.03965114
2353.14499512,0.03778178
2355.07380249,0.03656536
2357.00260986,0.03550311
2358.93141724,0.03475885
2360.86022461,0.03444914
2362.78903198,0.03444943
2364.71783936,0.03452379
2366.64664673,0.03503528
2368.57545410,0.03553677
2370.50426147,0.03647038
2372.43306885,0.03749620
2374.36187622,0.03831813
2376.29068359,0.03928041
2378.21949097,0.03987885
2380.14829834,0.04078085
2382.07710571,0.04121734
2384.00591309,0.04124743
2385.93472046,0.04157253
2387.86352783,0.04146853
2389.79233521,0.04130526
2391.72114258,0.04135991
2393.64994995,0.04147749
2395.57875732,0.04137009
2397.50756470,0.04128163
2399.43637207,0.04121605
2401.36517944,0.04114623
2403.29398682,0.04113771
2405.22279419,0.04093864
2407.15160156,0.04094750
2409.08040894,0.04079901
2411.00921631,0.04071031
2412.93802368,0.04092396
2414.86683105,0.04084611
2416.79563843,0.04069018
2418.72444580,0.04070027
2420.65325317,0.04071172
2422.58206055,0.04050883
2424.51086792,0.04047655
2426.43967529,0.04054010
2428.36848267,0.04044826
2430.29729004,0.04033952
2432.22609741,0.04027099
2434.15490479,0.04028949
2436.08371216,0.04010566
2438.01251953,0.04008301
2439.94132690,0.04009587
2441.87013428,0.03991704
2443.79894165,0.04003610
2445.72774902,0.03999382
2447.65655640,0.03984634
2449.58536377,0.03996590
2451.51417114,0.03987814
2453.44297852,0.03969354
2455.37178589,0.03970138
2457.30059326,0.03965503
2459.22940063,0.03962066
2461.15820801,0.03964145
2463.08701538,0.03955743
2465.01582275,0.03945801
2466.94463013,0.03938901
2468.87343750,0.03931829
2470.80224487,0.03919921
2472.73105225,0.03915064
2474.65985962,0.03919824
2476.58866699,0.03915322
2478.51747437,0.03909007
2480.44628174,0.03909676
2482.37508911,0.03896997
2484.30389648,0.03881334
2486.23270386,0.03887409
2488.16151123,0.03885460
2490.09031860,0.03874396
2492.01912598,0.03870182
2493.94793335,0.03862560
2495.87674072,0.03860524
2497.80554810,0.03865154
2499.73435547,0.03860474
2501.66316284,0.03856967
2503.59197021,0.03859983
2505.52077759,0.03836511
2507.44958496,0.03825893
2509.37839233,0.03833681
2511.30719971,0.03826339
2513.23600708,0.03831155
2515.16481445,0.03813569
2517.09362183,0.03804461
2519.02242920,0.03810421
2520.95123657,0.03791808
2522.88004395,0.03790624
2524.80885132,0.03786024
2526.73765869,0.03794240
2528.66646606,0.03791857
2530.59527344,0.03767790
2532.52408081,0.03782296
2534.45288818,0.03772629
2536.38169556,0.03756846
2538.31050293,0.03759458
2540.23931030,0.03754758
2542.16811768,0.03754945
2544.09692505,0.03737297
2546.02573242,0.03737234
2547.95453979,0.03735595
2549.88334717,0.03723541
2551.81215454,0.03724002
2553.74096191,0.03707082
2555.66976929,0.03706788
2557.59857666,0.03707476
2559.52738403,0.03707648
2561.45619141,0.03705886
2563.38499878,0.03689840
2565.31380615,0.03690703
2567.24261353,0.03689010
2569.17142090,0.03697418
2571.10022827,0.03676353
2573.02903564,0.03661425
2574.95784302,0.03679071
2576.88665039,0.03650230
2578.81545776,0.03647824
2580.74426514,0.03650490
2582.67307251,0.03637182
2584.60187988,0.03642501
2586.53068726,0.03629699
2588.45949463,0.03633129
2590.38830200,0.03633828
2592.31710937,0.03625152
2594.24591675,0.03617807
2596.17472412,0.03605989
2598.10353149,0.03603534
2600.03233887,0.03591206
2601.96114624,0.03596094
2603.88995361,0.03602402
2605.81876099,0.03576517
2607.74756836,0.03576658
2609.67637573,0.03591948
2611.60518311,0.03568777
2613.53399048,0.03555501
2615.46279785,0.03562883
2617.39160522,0.03553002
2619.32041260,0.03542062
2621.24921997,0.03544197
2623.17802734,0.03544559
2625.10683472,0.03535198
2627.03564209,0.03537100
2628.96444946,0.03536414
2630.89325684,0.03530830
2632.82206421,0.03521336
2634.75087158,0.03508147
2636.67967895,0.03503795
2638.60848633,0.03495955
2640.53729370,0.03505265
2642.46610107,0.03489981
2644.39490845,0.03479457
2646.32371582,0.03489154
2648.25252319,0.03467799
2650.18133057,0.03478399
2652.11013794,0.03471774
2654.03894531,0.03454453
2655.96775269,0.03456296
2657.89656006,0.03442965
2659.82536743,0.03451580
2661.75417480,0.03449704
2663.68298218,0.03442969
2665.61178955,0.03438466
2667.54059692,0.03433718
2669.46940430,0.03425642
2671.39821167,0.03408134
2673.32701904,0.03410652
2675.25582642,0.03402578
2677.18463379,0.03397235
2679.11344116,0.03399449
2681.04224854,0.03385340
2682.97105591,0.03374645
2684.89986328,0.03382090
2686.82867065,0.03381410
2688.75747803,0.03371809
2690.68628540,0.03380803
2692.61509277,0.03367481
2694.54390015,0.03352302
2696.47270752,0.03354434
2698.40151489,0.03346771
2700.33032227,0.03339566
2702.25912964,0.03335388
2704.18793701,0.03330456
2706.11674438,0.03324217
2708.04555176,0.03328677
2709.97435913,0.03324236
2711.90316650,0.03318213
2713.83197388,0.03307189
2715.76078125,0.03299491
2717.68958862,0.03309280
2719.61839600,0.03289679
2721.54720337,0.03283170
2723.47601074,0.03289688
2725.40481812,0.03282211
2727.33362549,0.03267745
2729.26243286,0.03260097
2731.19124023,0.03275326
2733.12004761,0.03259517
2735.04885498,0.03249157
2736.97766235,0.03252608
2738.90646973,0.03245623
2740.83527710,0.03242545
2742.76408447,0.03227620
2744.69289185,0.03227017
2746.62169922,0.03217083
2748.55050659,0.03212512
2750.47931396,0.03221560
2752.40812134,0.03203362
2754.33692871,0.03198815
2756.26573608,0.03204139
2758.19454346,0.03199793
2760.12335083,0.03190795
2762.05215820,0.03182267
2763.98096558,0.03179539
2765.90977295,0.03168310
2767.83858032,0.03165044
2769.76738770,0.03163981
2771.69619507,0.03154836
2773.62500244,0.03154997
2775.55380981,0.03147838
2777.48261719,0.03133816
2779.41142456,0.03126825
2781.34023193,0.03120650
2783.26903931,0.03109884
2785.19784668,0.03109031
2787.12665405,0.03120343
2789.05546143,0.03110522
2790.98426880,0.03096619
2792.91307617,0.03088320
2794.84188354,0.03083203
2796.77069092,0.03082472
2798.69949829,0.03070952
2800.62830566,0.03074321
2802.55711304,0.03067925
2804.48592041,0.03054802
2806.41472778,0.03050254
2808.34353516,0.03039978
2810.27234253,0.03043046
2812.20114990,0.03036713
2814.12995728,0.03031988
2816.05876465,0.03027197
2817.98757202,0.03017871
2819.91637939,0.03014165
2821.84518677,0.03005112
2823.77399414,0.02996439
2825.70280151,0.02987363
2827.63160889,0.02990519
2829.56041626,0.02975970
2831.48922363,0.02970365
2833.41803101,0.02964011
2835.34683838,0.02939238
2837.27564575,0.02950274
2839.20445312,0.02938312
2841.13326050,0.02931745
2843.06206787,0.02932209
2844.99087524,0.02909596
2846.91968262,0.02897774
2848.84848999,0.02880498
2850.77729736,0.02885860
2852.70610474,0.02879993
2854.63491211,0.02877775
2856.56371948,0.02881717
2858.49252686,0.02860427
2860.42133423,0.02865922
2862.35014160,0.02859489
2864.27894897,0.02855309
2866.20775635,0.02861970
2868.13656372,0.02845812
2870.06537109,0.02845358
2871.99417847,0.02844984
2873.92298584,0.02830616
2875.85179321,0.02822568
2877.78060059,0.02820063
2879.70940796,0.02810487
2881.63821533,0.02801959
2883.56702270,0.02808323
2885.49583008,0.02804713
2887.42463745,0.02794974
2889.35344482,0.02792279
2891.28225220,0.02780785
2893.21105957,0.02781580
2895.13986694,0.02769944
2897.06867432,0.02747759
2898.99748169,0.02758634
2900.92628906,0.02753521
2902.85509644,0.02739523
2904.78390381,0.02732007
2906.71271118,0.02729930
2908.64151855,0.02729785
2910.57032593,0.02712743
2912.49913330,0.02712554
2914.42794067,0.02703412
2916.35674805,0.02695832
2918.28555542,0.02692781
2920.21436279,0.02677693
2922.14317017,0.02680779
2924.07197754,0.02679646
2926.00078491,0.02668891
2927.92959229,0.02659247
2929.85839966,0.02675603
2931.78720703,0.02675159
2933.71601440,0.02659253
2935.64482178,0.02674899
2937.57362915,0.02672146
2939.50243652,0.02671546
2941.43124390,0.02674490
2943.36005127,0.02667471
2945.28885864,0.02662868
2947.21766602,0.02663974
2949.14647339,0.02658021
2951.07528076,0.02638433
2953.00408813,0.02645637
2954.93289551,0.02633881
2956.86170288,0.02613021
2958.79051025,0.02615530
2960.71931763,0.02615058
2962.64812500,0.02606506
2964.57693237,0.02594970
2966.50573975,0.02608434
2968.43454712,0.02608161
2970.36335449,0.02602233
2972.29216187,0.02614249
2974.22096924,0.02620650
2976.14977661,0.02619655
2978.07858398,0.02605407
2980.00739136,0.02599533
2981.93619873,0.02600646
2983.86500610,0.02599003
2985.79381348,0.02595529
2987.72262085,0.02595726
2989.65142822,0.02586389
2991.58023560,0.02579682
2993.50904297,0.02582248
2995.43785034,0.02572072
2997.36665771,0.02575598
2999.29546509,0.02567653
3001.22427246,0.02562141
3003.15307983,0.02557647
3005.08188721,0.02549982
3007.01069458,0.02560014
3008.93950195,0.02539551
3010.86830933,0.02530089
3012.79711670,0.02524415
3014.72592407,0.02517252
3016.65473145,0.02522220
3018.58353882,0.02515808
3020.51234619,0.02519634
3022.44115356,0.02507712
3024.36996094,0.02500623
3026.29876831,0.02491589
3028.22757568,0.02481343
3030.15638306,0.02482558
3032.08519043,0.02472917
3034.01399780,0.02479899
3035.94280518,0.02472214
3037.87161255,0.02460029
3039.80041992,0.02457335
3041.72922729,0.02438137
3043.65803467,0.02427936
3045.58684204,0.02435123
3047.51564941,0.02429040
3049.44445679,0.02419603
3051.37326416,0.02426017
3053.30207153,0.02412797
3055.23087891,0.02409124
3057.15968628,0.02405499
3059.08849365,0.02397137
3061.01730103,0.02407635
3062.94610840,0.02395019
3064.87491577,0.02385753
3066.80372314,0.02377553
3068.73253052,0.02375342
3070.66133789,0.02373512
3072.59014526,0.02361268
3074.51895264,0.02372004
3076.44776001,0.02365030
3078.37656738,0.02356859
3080.30537476,0.02351508
3082.23418213,0.02340901
3084.16298950,0.02353361
3086.09179687,0.02346861
3088.02060425,0.02326922
3089.94941162,0.02329835
3091.87821899,0.02330172
3093.80702637,0.02318442
3095.73583374,0.02312669
3097.66464111,0.02301851
3099.59344849,0.02296522
3101.52225586,0.02291210
3103.45106323,0.02286289
3105.37987061,0.02294740
3107.30867798,0.02281722
3109.23748535,0.02273497
3111.16629272,0.02270082
3113.09510010,0.02261188
3115.02390747,0.02261854
3116.95271484,0.02242318
3118.88152222,0.02231719
3120.81032959,0.02239947
3122.73913696,0.02234250
3124.66794434,0.02224565
3126.59675171,0.02222945
3128.52555908,0.02216193
3130.45436645,0.02211597
3132.38317383,0.02209658
3134.31198120,0.02189031
3136.24078857,0.02184186
3138.16959595,0.02192598
3140.09840332,0.02185369
3142.02721069,0.02178850
3143.95601807,0.02173036
3145.88482544,0.02175642
3147.81363281,0.02177158
3149.74244019,0.02159260
3151.67124756,0.02150623
3153.60005493,0.02148649
3155.52886230,0.02139898
3157.45766968,0.02135941
3159.38647705,0.02125530
3161.31528442,0.02124835
3163.24409180,0.02126372
3165.17289917,0.02109461
3167.10170654,0.02100072
3169.03051392,0.02098231
3170.95932129,0.02092834
3172.88812866,0.02080757
3174.81693604,0.02081732
3176.74574341,0.02081304
3178.67455078,0.02068998
3180.60335815,0.02068056
3182.53216553,0.02059489
3184.46097290,0.02054848
3186.38978027,0.02049124
3188.31858765,0.02042193
3190.24739502,0.02043490
3192.17620239,0.02041231
3194.10500977,0.02037536
3196.03381714,0.02021243
3197.96262451,0.02016107
3199.89143188,0.02013956
3201.82023926,0.02013198
3203.74904663,0.02016120
3205.67785400,0.02008298
3207.60666138,0.02000819
3209.53546875,0.01984622
3211.46427612,0.01994773
3213.39308350,0.01994390
3215.32189087,0.01969987
3217.25069824,0.01976274
3219.17950562,0.01971718
3221.10831299,0.01959857
3223.03712036,0.01959695
3224.96592773,0.01956998
3226.89473511,0.01950632
3228.82354248,0.01945747
3230.75234985,0.01951297
3232.68115723,0.01954319
3234.60996460,0.01942424
3236.53877197,0.01938542
3238.46757935,0.01943464
3240.39638672,0.01937596
3242.32519409,0.01936628
3244.25400146,0.01925936
3246.18280884,0.01932056
3248.11161621,0.01932558
3250.04042358,0.01910587
3251.96923096,0.01922512
3253.89803833,0.01905781
3255.82684570,0.01899881
3257.75565308,0.01907977
3259.68446045,0.01893007
3261.61326782,0.01905430
3263.54207520,0.01897526
3265.47088257,0.01900537
3267.39968994,0.01898488
3269.32849731,0.01884618
3271.25730469,0.01902417
3273.18611206,0.01893774
3275.11491943,0.01884966
3277.04372681,0.01885363
3278.97253418,0.01880647
3280.90134155,0.01875224
3282.83014893,0.01873843
3284.75895630,0.01881192
3286.68776367,0.01869059
3288.61657104,0.01871490
3290.54537842,0.01876653
3292.47418579,0.01852022
3294.40299316,0.01852619
3296.33180054,0.01862669
3298.26060791,0.01853405
3300.18941528,0.01859552
3302.11822266,0.01854556
3304.04703003,0.01843787
3305.97583740,0.01839051
3307.90464478,0.01833171
3309.83345215,0.01848164
3311.76225952,0.01834333
3313.69106689,0.01830652
3315.61987427,0.01850941
3317.54868164,0.01836188
3319.47748901,0.01826181
3321.40629639,0.01818857
3323.33510376,0.01817540
3325.26391113,0.01818203
3327.19271851,0.01815716
3329.12152588,0.01817652
3331.05033325,0.01804041
3332.97914062,0.01809432
3334.90794800,0.01811651
3336.83675537,0.01791501
3338.76556274,0.01793421
3340.69437012,0.01794234
3342.62317749,0.01786978
3344.55198486,0.01792960
3346.48079224,0.01784520
3348.40959961,0.01781193
3350.33840698,0.01784158
3352.26721436,0.01777869
3354.19602173,0.01785299
3356.12482910,0.01774490
3358.05363647,0.01768612
3359.98244385,0.01768744
3361.91125122,0.01758073
3363.84005859,0.01763801
3365.76886597,0.01757612
3367.69767334,0.01750785
3369.62648071,0.01747480
3371.55528809,0.01744785
3373.48409546,0.01741943
3375.41290283,0.01737985
3377.34171020,0.01741179
3379.27051758,0.01733900
3381.19932495,0.01727341
3383.12813232,0.01725492
3385.05693970,0.01722907
3386.98574707,0.01715395
3388.91455444,0.01720105
3390.84336182,0.01711405
3392.77216919,0.01700317
3394.70097656,0.01712857
3396.62978394,0.01699208
3398.55859131,0.01699176
3400.48739868,0.01698544
3402.41620605,0.01690714
3404.34501343,0.01689423
3406.27382080,0.01678642
3408.20262817,0.01683534
3410.13143555,0.01684312
3412.06024292,0.01687294
3413.98905029,0.01673963
3415.91785767,0.01681029
3417.84666504,0.01682225
3419.77547241,0.01649974
3421.70427979,0.01650799
3423.63308716,0.01646029
3425.56189453,0.01655458
3427.49070190,0.01649816
3429.41950928,0.01640356
3431.34831665,0.01645491
3433.27712402,0.01639021
3435.20593140,0.01645726
3437.13473877,0.01628358
3439.06354614,0.01637719
3440.99235352,0.01630948
3442.92116089,0.01610399
3444.84996826,0.01616917
3446.77877563,0.01597401
3448.70758301,0.01602544
3450.63639038,0.01611270
3452.56519775,0.01610107
3454.49400513,0.01602935
3456.42281250,0.01597791
3458.35161987,0.01598713
3460.28042725,0.01592107
3462.20923462,0.01590055
3464.13804199,0.01593408
3466.06684937,0.01603511
3467.99565674,0.01584847
3469.92446411,0.01589901
3471.85327148,0.01595061
3473.78207886,0.01578230
3475.71088623,0.01580111
3477.63969360,0.01580985
3479.56850098,0.01587072
3481.49730835,0.01557829
3483.42611572,0.01557992
3485.35492310,0.01579896
3487.28373047,0.01574201
3489.21253784,0.01570901
3491.14134521,0.01568394
3493.07015259,0.01574558
3494.99895996,0.01554044
3496.92776733,0.01559106
3498.85657471,0.01570523
3500.78538208,0.01561104
3502.71418945,0.01534185
3504.64299683,0.01531827
3506.57180420,0.01577327
3508.50061157,0.01540558
3510.42941895,0.01535992
3512.35822632,0.01561265
3514.28703369,0.01554570
3516.21584106,0.01570171
3518.14464844,0.01546593
3520.07345581,0.01544889
3522.00226318,0.01539081
3523.93107056,0.01518684
3525.85987793,0.01523308
3527.78868530,0.01524795
3529.71749268,0.01531088
3531.64630005,0.01540537
3533.57510742,0.01554907
3535.50391479,0.01536481
3537.43272217,0.01528102
3539.36152954,0.01548752
3541.29033691,0.01539591
3543.21914429,0.01524296
3545.14795166,0.01486976
3547.07675903,0.01453164
3549.00556641,0.01522007
3550.93437378,0.01537102
3552.86318115,0.01480671
3554.79198853,0.01527909
3556.72079590,0.01543271
3558.64960327,0.01536793
3560.57841064,0.01519929
3562.50721802,0.01489437
3564.43602539,0.01506357
3566.36483276,0.01391874
3568.29364014,0.01346723
3570.22244751,0.01487387
3572.15125488,0.01526592
3574.08006226,0.01500614
3576.00886963,0.01517345
3577.93767700,0.01507191
3579.86648437,0.01497724
3581.79529175,0.01505231
3583.72409912,0.01514715
3585.65290649,0.01470785
3587.58171387,0.01323380
3589.51052124,0.01376218
3591.43932861,0.01521367
3593.36813599,0.01467905
3595.29694336,0.01439887
3597.22575073,0.01475896
3599.15455811,0.01486958
3601.08336548,0.01462221
3603.01217285,0.01488187
3604.94098022,0.01525084
3606.86978760,0.01447275
3608.79859497,0.01345515
3610.72740234,0.01389702
3612.65620972,0.01418655
3614.58501709,0.01364878
3616.51382446,0.01490022
3618.44263184,0.01359400
3620.37143921,0.01304919
3622.30024658,0.01505093
3624.22905395,0.01450251
3626.15786133,0.01531519
3628.08666870,0.01259513
3630.01547607,0.01121005
3631.94428345,0.01481746
3633.87309082,0.01433898
3635.80189819,0.01460630
3637.73070557,0.01502667
3639.65951294,0.01476409
3641.58832031,0.01487500
3643.51712769,0.01466917
3645.44593506,0.01479508
3647.37474243,0.01292232
3649.30354980,0.01178302
3651.23235718,0.01203856
3653.16116455,0.01462852
3655.08997192,0.01439447
3657.01877930,0.01268434
3658.94758667,0.01496031
3660.87639404,0.01455965
3662.80520142,0.01484723
3664.73400879,0.01474763
3666.66281616,0.01458150
3668.59162354,0.01408247
3670.52043091,0.01099401
3672.44923828,0.01386585
3674.37804565,0.01304509
3676.30685303,0.01045857
3678.23566040,0.01373095
3680.16446777,0.01401963
3682.09327515,0.01416353
3684.02208252,0.01461657
3685.95088989,0.01431092
3687.87969727,0.01272932
3689.80850464,0.01146332
3691.73731201,0.01331516
3693.66611938,0.01382697
3695.59492676,0.01421769
3697.52373413,0.01422328
3699.45254150,0.01412075
3701.38134888,0.01360174
3703.31015625,0.01302641
3705.23896362,0.01460209
3707.16777100,0.01384207
3709.09657837,0.01341951
3711.02538574,0.01232821
3712.95419312,0.01148541
3714.88300049,0.01397686
3716.81180786,0.01378943
3718.74061523,0.01378818
3720.66942261,0.01345018
3722.59822998,0.01297203
3724.52703735,0.01339017
3726.45584473,0.01242957
3728.38465210,0.01364221
3730.31345947,0.01337840
3732.24226685,0.01226049
3734.17107422,0.01173171
3736.09988159,0.01099287
3738.02868896,0.01193166
3739.95749634,0.01305388
3741.88630371,0.01373812
3743.81511108,0.01020542
3745.74391846,0.00951327
3747.67272583,0.01300110
3749.60153320,0.01090472
3751.53034058,0.00988581
3753.45914795,0.01161559
3755.38795532,0.01260975
3757.31676270,0.01324173
3759.24557007,0.01209859
3761.17437744,0.01262538
3763.10318481,0.01367158
3765.03199219,0.01258118
3766.96079956,0.01278157
3768.88960693,0.01267468
3770.81841431,0.01193143
3772.74722168,0.01306687
3774.67602905,0.01319534
3776.60483643,0.01319490
3778.53364380,0.01281268
3780.46245117,0.01217577
3782.39125854,0.01311849
3784.32006592,0.01281585
3786.24887329,0.01261178
3788.17768066,0.01295649
3790.10648804,0.01299659
3792.03529541,0.01287459
3793.96410278,0.01318584
3795.89291016,0.01237030
3797.82171753,0.01190982
3799.75052490,0.01269252
3801.67933228,0.00977784
3803.60813965,0.01159966
3805.53694702,0.01284784
3807.46575439,0.01009861
3809.39456177,0.01273252
3811.32336914,0.01251148
3813.25217651,0.01289384
3815.18098389,0.01154861
3817.10979126,0.00987744
3819.03859863,0.01284423
3820.96740601,0.00992560
3822.89621338,0.01071231
3824.82502075,0.01282150
3826.75382812,0.01131751
3828.68263550,0.01248522
3830.61144287,0.01180613
3832.54025024,0.01134690
3834.46905762,0.01166783
3836.39786499,0.01097780
3838.32667236,0.00986108
3840.25547974,0.01078520
3842.18428711,0.01162673
3844.11309448,0.01102656
3846.04190186,0.01222422
3847.97070923,0.01198080
3849.89951660,0.01199377
3851.82832397,0.01052291
3853.75713135,0.00745984
3855.68593872,0.00923610
3857.61474609,0.01195541
3859.54355347,0.01172378
3861.47236084,0.01145783
3863.40116821,0.01119487
3865.32997559,0.01028663
3867.25878296,0.01170126
3869.18759033,0.01060665
3871.11639770,0.00955117
3873.04520508,0.01180057
3874.97401245,0.01053231
3876.90281982,0.01156921
3878.83162720,0.01193298
3880.76043457,0.00971433
3882.68924194,0.01164998
3884.61804932,0.01078936
3886.54685669,0.00969416
3888.47566406,0.01174471
3890.40447144,0.01100120
3892.33327881,0.01017301
3894.26208618,0.01139991
3896.19089355,0.01163163
3898.11970093,0.01078597
3900.04850830,0.01019152
3901.97731567,0.01004134
3903.90612305,0.00985211
3905.83493042,0.01018732
3907.76373779,0.01138986
3909.69254517,0.01136987
3911.62135254,0.01115767
3913.55015991,0.01149153
3915.47896728,0.01106557
3917.40777466,0.01061811
3919.33658203,0.01050724
3921.26538940,0.01098153
3923.19419678,0.01093115
3925.12300415,0.01063070
3927.05181152,0.01089572
3928.98061890,0.01099279
3930.90942627,0.01078704
3932.83823364,0.01039407
3934.76704102,0.01080880
3936.69584839,0.01100075
3938.62465576,0.01091054
3940.55346313,0.01100399
3942.48227051,0.01049707
3944.41107788,0.01059292
3946.33988525,0.01082047
3948.26869263,0.01053797
3950.19750000,0.01049067
3952.12630737,0.01063514
3954.05511475,0.01076238
3955.98392212,0.01077158
3957.91272949,0.01062190
3959.84153687,0.01061609
3961.77034424,0.01068713
3963.69915161,0.01056954
3965.62795898,0.01065656
3967.55676636,0.01064327
3969.48557373,0.01051384
3971.41438110,0.01049830
3973.34318848,0.01052258
3975.27199585,0.01040718
3977.20080322,0.01025423
3979.12961060,0.01052303
3981.05841797,0.01046893
3982.98722534,0.01031794
3984.91603271,0.01039173
3986.84484009,0.01034335
3988.77364746,0.01032778
3990.70245483,0.01031198
3992.63126221,0.01036971
3994.56006958,0.01026323
3996.48887695,0.01022361
3998.41768433,0.01024007
4000.34649170,0.01016247
4002.27529907,0.01018133
4004.20410645,0.01023108
4006.13291382,0.01020372
4008.06172119,0.01009927
4009.99052856,0.01008584
4011.91933594,0.01000779
4013.84814331,0.01012584
4015.77695068,0.01007443
4017.70575806,0.00995147
4019.63456543,0.01004135
4021.56337280,0.00989819
4023.49218018,0.00997626
4025.42098755,0.00993453
4027.34979492,0.00986655
4029.27860229,0.00982419
4031.20740967,0.00970574
4033.13621704,0.00982858
4035.06502441,0.00980729
4036.99383179,0.00982339
4038.92263916,0.00977300
4040.85144653,0.00976271
4042.78025391,0.00974260
4044.70906128,0.00963541
4046.63786865,0.00969657
4048.56667603,0.00973976
4050.49548340,0.00971403
4052.42429077,0.00959405
4054.35309814,0.00961788
4056.28190552,0.00952425
4058.21071289,0.00950529
4060.13952026,0.00954134
4062.06832764,0.00949365
4063.99713501,0.00960794
4065.92594238,0.00949517
4067.85474976,0.00948657
4069.78355713,0.00941404
4071.71236450,0.00939590
4073.64117187,0.00944405
4075.56997925,0.00935646
4077.49878662,0.00940203
4079.42759399,0.00919809
4081.35640137,0.00924605
4083.28520874,0.00929872
4085.21401611,0.00918309
4087.14282349,0.00925329
4089.07163086,0.00921007
4091.00043823,0.00919448
4092.92924561,0.00914659
4094.85805298,0.00918342
4096.78686035,0.00915126
4098.71566772,0.00904087
4100.64447510,0.00908679
4102.57328247,0.00905070
4104.50208984,0.00899996
4106.43089722,0.00906395
4108.35970459,0.00902099
4110.28851196,0.00900250
4112.21731934,0.00905427
4114.14612671,0.00886615
4116.07493408,0.00895328
4118.00374145,0.00893331
4119.93254883,0.00877262
4121.86135620,0.00891293
4123.79016357,0.00879969
4125.71897095,0.00880734
4127.64777832,0.00875895
4129.57658569,0.00870965
4131.50539307,0.00876915
4133.43420044,0.00863542
4135.36300781,0.00872208
4137.29181519,0.00878821
4139.22062256,0.00875978
4141.14942993,0.00866651
4143.07823730,0.00858632
4145.00704468,0.00853641
4146.93585205,0.00849918
4148.86465942,0.00852261
4150.79346680,0.00850296
4152.72227417,0.00856694
4154.65108154,0.00850482
4156.57988892,0.00849600
4158.50869629,0.00852185
4160.43750366,0.00847194
4162.36631103,0.00844994
4164.29511841,0.00839842
4166.22392578,0.00832938
4168.15273315,0.00824630
4170.08154053,0.00839035
4172.01034790,0.00834462
4173.93915527,0.00827862
4175.86796265,0.00832484
4177.79677002,0.00819868
4179.72557739,0.00820949
4181.65438477,0.00814630
4183.58319214,0.00817846
4185.51199951,0.00817383
4187.44080688,0.00810757
4189.36961426,0.00813578
4191.29842163,0.00801255
4193.22722900,0.00808114
4195.15603638,0.00809327
4197.08484375,0.00801281
4199.01365112,0.00808155
4200.94245850,0.00801013
4202.87126587,0.00791533
4204.80007324,0.00795748
4206.72888062,0.00797552
4208.65768799,0.00795076
4210.58649536,0.00795481
4212.51530273,0.00792373
4214.44411011,0.00784537
4216.37291748,0.00781519
4218.30172485,0.00781639
4220.23053223,0.00778434
4222.15933960,0.00786641
4224.08814697,0.00782800
4226.01695435,0.00775945
4227.94576172,0.00774860
4229.87456909,0.00762335
4231.80337646,0.00773967
4233.73218384,0.00769108
4235.66099121,0.00769133
4237.58979858,0.00778791
4239.51860596,0.00759455
4241.44741333,0.00763398
4243.37622070,0.00763234
4245.30502808,0.00762262
4247.23383545,0.00758756
4249.16264282,0.00751765
4251.09145020,0.00758851
4253.02025757,0.00753165
4254.94906494,0.00753636
4256.87787231,0.00747978
4258.80667969,0.00741680
4260.73548706,0.00743007
4262.66429443,0.00746289
4264.59310181,0.00744513
4266.52190918,0.00732900
4268.45071655,0.00731218
4270.37952393,0.00732505
4272.30833130,0.00735045
4274.23713867,0.00729708
4276.16594604,0.00730368
4278.09475342,0.00734318
4280.02356079,0.00729065
4281.95236816,0.00720185
4283.88117554,0.00722910
4285.80998291,0.00727008
4287.73879028,0.00709108
4289.66759766,0.00720021
4291.59640503,0.00722540
4293.52521240,0.00719654
4295.45401978,0.00724365
4297.38282715,0.00705653
4299.31163452,0.00712076
4301.24044189,0.00706896
4303.16924927,0.00704660
4305.09805664,0.00705827
4307.02686401,0.00700710
4308.95567139,0.00707282
4310.88447876,0.00694904
4312.81328613,0.00701636
4314.74209351,0.00700445
4316.67090088,0.00694318
4318.59970825,0.00691881
4320.52851562,0.00683032
4322.45732300,0.00695622
4324.38613037,0.00689564
4326.31493774,0.00679450
4328.24374512,0.00680404
4330.17255249,0.00682581
4332.10135986,0.00680973
4334.03016724,0.00679143
4335.95897461,0.00683674
4337.88778198,0.00673196
4339.81658936,0.00674677
4341.74539673,0.00679450
4343.67420410,0.00665934
4345.60301147,0.00669116
4347.53181885,0.00677234
4349.46062622,0.00665012
4351.38943359,0.00662976
4353.31824097,0.00667318
4355.24704834,0.00663684
4357.17585571,0.00668255
4359.10466309,0.00663713
4361.03347046,0.00653353
4362.96227783,0.00654668
4364.89108520,0.00657145
4366.81989258,0.00657946
4368.74869995,0.00661326
4370.67750732,0.00649603
4372.60631470,0.00648718
4374.53512207,0.00655214
4376.46392944,0.00639000
4378.39273682,0.00646979
4380.32154419,0.00636240
4382.25035156,0.00625199
4384.17915894,0.00644730
4386.10796631,0.00634054
4388.03677368,0.00637002
4389.96558105,0.00636883
4391.89438843,0.00628178
4393.82319580,0.00632543
4395.75200317,0.00628083
4397.68081055,0.00627481
4399.60961792,0.00623007
4401.53842529,0.00624123
4403.46723267,0.00627815
4405.39604004,0.00619934
4407.32484741,0.00608831
4409.25365478,0.00614929
4411.18246216,0.00618466
4413.11126953,0.00609848
4415.04007690,0.00613316
4416.96888428,0.00613483
4418.89769165,0.00611296
4420.82649902,0.00601030
4422.75530640,0.00602432
4424.68411377,0.00608332
4426.61292114,0.00605346
4428.54172852,0.00605214
4430.47053589,0.00591966
4432.39934326,0.00599058
4434.32815063,0.00601318
4436.25695801,0.00593541
4438.18576538,0.00595209
4440.11457275,0.00591641
4442.04338013,0.00596894
4443.97218750,0.00590931
4445.90099487,0.00584275
4447.82980225,0.00581003
4449.75860962,0.00581320
4451.68741699,0.00582443
4453.61622437,0.00580427
4455.54503174,0.00584799
4457.47383911,0.00576921
4459.40264648,0.00574380
4461.33145386,0.00564559
4463.26026123,0.00558533
4465.18906860,0.00574180
4467.11787598,0.00574953
4469.04668335,0.00568211
4470.97549072,0.00569546
4472.90429810,0.00577780
4474.83310547,0.00572389
4476.76191284,0.00562101
4478.69072021,0.00560041
4480.61952759,0.00557471
4482.54833496,0.00562806
4484.47714233,0.00563386
4486.40594971,0.00558838
4488.33475708,0.00554304
4490.26356445,0.00550031
4492.19237183,0.00556853
4494.12117920,0.00555071
4496.04998657,0.00543707
4497.97879395,0.00549063
4499.90760132,0.00550646
4501.83640869,0.00543999
4503.76521606,0.00547455
4505.69402344,0.00549928
4507.62283081,0.00546147
4509.55163818,0.00539768
4511.48044556,0.00536460
4513.40925293,0.00535738
4515.33806030,0.00539678
4517.26686768,0.00532316
4519.19567505,0.00527379
4521.12448242,0.00537537
4523.05328979,0.00533592
4524.98209717,0.00532412
4526.91090454,0.00522442
4528.83971191,0.00521666
4530.76851929,0.00531920
4532.69732666,0.00521917
4534.62613403,0.00526849
4536.55494141,0.00521692
4538.48374878,0.00522025
4540.41255615,0.00534016
4542.34136353,0.00522989
4544.27017090,0.00520388
4546.19897827,0.00516281
4548.12778564,0.00508432
4550.05659302,0.00513312
4551.98540039,0.00515033
4553.91420776,0.00508049
4555.84301514,0.00511522
4557.77182251,0.00511368
4559.70062988,0.00502433
4561.62943726,0.00504729
4563.55824463,0.00500793
4565.48705200,0.00497221
4567.41585937,0.00503056
4569.34466675,0.00507847
4571.27347412,0.00496584
4573.20228149,0.00488525
4575.13108887,0.00492844
4577.05989624,0.00486623
4578.98870361,0.00488440
4580.91751099,0.00485918
4582.84631836,0.00481001
4584.77512573,0.00487315
4586.70393311,0.00488913
4588.63274048,0.00480289
4590.56154785,0.00475321
4592.49035522,0.00484586
4594.41916260,0.00478972
4596.34796997,0.00475254
4598.27677734,0.00481830
4600.20558472,0.00481082
4602.13439209,0.00481930
4604.06319946,0.00482291
4605.99200684,0.00479874
4607.92081421,0.00476468
4609.84962158,0.00474774
4611.77842895,0.00465658
4613.70723633,0.00465569
4615.63604370,0.00468109
4617.56485107,0.00463662
4619.49365845,0.00468298
4621.42246582,0.00469929
4623.35127319,0.00467541
4625.28008057,0.00458712
4627.20888794,0.00460190
4629.13769531,0.00461942
4631.06650269,0.00455222
4632.99531006,0.00457674
4634.92411743,0.00457934
4636.85292480,0.00458313
4638.78173218,0.00451327
4640.71053955,0.00451226
4642.63934692,0.00454742
4644.56815430,0.00449158
4646.49696167,0.00451855
4648.42576904,0.00455600
4650.35457642,0.00453476
4652.28338379,0.00448099
4654.21219116,0.00442003
4656.14099853,0.00433906
4658.06980591,0.00440715
4659.99861328,0.00439846
4661.92742065,0.00436286
4663.85622803,0.00449459
4665.78503540,0.00439637
4667.71384277,0.00433836
4669.64265015,0.00436514
4671.57145752,0.00430844
4673.50026489,0.00427809
4675.42907227,0.00435789
4677.35787964,0.00436492
4679.28668701,0.00422413
4681.21549438,0.00432044
4683.14430176,0.00425577
4685.07310913,0.00421009
4687.00191650,0.00432259
4688.93072388,0.00420650
4690.85953125,0.00423617
4692.78833862,0.00421780
4694.71714600,0.00413076
4696.64595337,0.00420087
4698.57476074,0.00419330
4700.50356812,0.00409781
4702.43237549,0.00410931
4704.36118286,0.00415867
4706.28999023,0.00412396
4708.21879761,0.00411329
4710.14760498,0.00408520
4712.07641235,0.00410686
4714.00521973,0.00413173
4715.93402710,0.00409066
4717.86283447,0.00402126
4719.79164185,0.00397774
4721.72044922,0.00396845
4723.64925659,0.00394901
4725.57806396,0.00405025
4727.50687134,0.00404480
4729.43567871,0.00396276
4731.36448608,0.00398270
4733.29329346,0.00400544
4735.22210083,0.00397099
4737.15090820,0.00392148
4739.07971558,0.00392610
4741.00852295,0.00386856
4742.93733032,0.00390791
4744.86613770,0.00394132
4746.79494507,0.00391610
4748.72375244,0.00388514
4750.65255981,0.00385438
4752.58136719,0.00394121
4754.51017456,0.00386147
4756.43898193,0.00385252
4758.36778931,0.00391652
4760.29659668,0.00385543
4762.22540405,0.00384850
4764.15421143,0.00383401
4766.08301880,0.00379550
4768.01182617,0.00374644
4769.94063354,0.00375903
4771.86944092,0.00373640
4773.79824829,0.00372876
4775.72705566,0.00371358
4777.65586304,0.00374156
4779.58467041,0.00377580
4781.51347778,0.00369018
4783.44228516,0.00373790
4785.37109253,0.00368033
4787.29989990,0.00371935
4789.22870728,0.00373182
4791.15751465,0.00361702
4793.08632202,0.00371074
4795.01512939,0.00363847
4796.94393677,0.00364079
4798.87274414,0.00367362
4800.80155151,0.00366313
4802.73035889,0.00362269
4804.65916626,0.00351546
4806.58797363,0.00359488
4808.51678101,0.00355322
4810.44558838,0.00358936
4812.37439575,0.00362843
4814.30320312,0.00357071
4816.23201050,0.00360747
4818.16081787,0.00353918
4820.08962524,0.00356035
4822.01843262,0.00362241
4823.94723999,0.00357461
4825.87604736,0.00352961
4827.80485474,0.00353385
4829.73366211,0.00351382
4831.66246948,0.00349290
4833.59127686,0.00344715
4835.52008423,0.00341107
4837.44889160,0.00346991
4839.37769897,0.00346147
4841.30650635,0.00346683
4843.23531372,0.00342762
4845.16412109,0.00342313
4847.09292847,0.00344769
4849.02173584,0.00338385
4850.95054321,0.00338430
4852.87935059,0.00334016
4854.80815796,0.00340737
4856.73696533,0.00346807
4858.66577270,0.00338010
4860.59458008,0.00333161
4862.52338745,0.00333283
4864.45219482,0.00335871
4866.38100220,0.00330404
4868.30980957,0.00325850
4870.23861694,0.00323786
4872.16742432,0.00329256
4874.09623169,0.00330764
4876.02503906,0.00321762
4877.95384644,0.00324890
4879.88265381,0.00321434
4881.81146118,0.00316887
4883.74026855,0.00327583
4885.66907593,0.00328713
4887.59788330,0.00318592
4889.52669067,0.00319686
4891.45549805,0.00318415
4893.38430542,0.00313895
4895.31311279,0.00315754
4897.24192017,0.00311642
4899.17072754,0.00316279
4901.09953491,0.00318127
4903.02834228,0.00310989
4904.95714966,0.00311401
4906.88595703,0.00311166
4908.81476440,0.00313577
4910.74357178,0.00318883
4912.67237915,0.00310387
4914.60118652,0.00307951
4916.52999390,0.00319407
4918.45880127,0.00305828
4920.38760864,0.00305431
4922.31641602,0.00313382
4924.24522339,0.00296121
4926.17403076,0.00301350
4928.10283813,0.00305683
4930.03164551,0.00301425
4931.96045288,0.00303758
4933.88926025,0.00299162
4935.81806763,0.00297298
4937.74687500,0.00300016
4939.67568237,0.00303452
4941.60448975,0.00298382
4943.53329712,0.00293596
4945.46210449,0.00292949
4947.39091187,0.00294867
4949.31971924,0.00296140
4951.24852661,0.00296870
4953.17733398,0.00293602
4955.10614136,0.00281933
4957.03494873,0.00288665
4958.96375610,0.00295512
4960.89256348,0.00288346
4962.82137085,0.00287730
4964.75017822,0.00287789
4966.67898560,0.00282044
4968.60779297,0.00282095
4970.53660034,0.00284732
4972.46540771,0.00284143
4974.39421509,0.00282726
4976.32302246,0.00272870
4978.25182983,0.00283727
4980.18063721,0.00287201
4982.10944458,0.00277391
4984.03825195,0.00286552
4985.96705933,0.00276264
4987.89586670,0.00275660
4989.82467407,0.00272687
4991.75348145,0.00264262
4993.68228882,0.00279532
4995.61109619,0.00277276
4997.53990356,0.00272339
4999.46871094,0.00270420
5001.39751831,0.00269117
5003.32632568,0.00269702
5005.25513306,0.00274412
5007.18394043,0.00281079
5009.11274780,0.00274986
5011.04155518,0.00275069
5012.97036255,0.00272296
5014.89916992,0.00269344
5016.82797729,0.00266654
5018.75678467,0.00268826
5020.68559204,0.00273626
5022.61439941,0.00260732
5024.54320679,0.00262829
5026.47201416,0.00267112
5028.40082153,0.00259848
5030.32962891,0.00261472
5032.25843628,0.00261175
5034.18724365,0.00260262
5036.11605103,0.00257839
5038.04485840,0.00253681
5039.97366577,0.00258303
5041.90247314,0.00256752
5043.83128052,0.00253462
5045.76008789,0.00257245
5047.68889526,0.00254563
5049.61770264,0.00257105
5051.54651001,0.00250656
5053.47531738,0.00246777
5055.40412476,0.00253830
5057.33293213,0.00245822
5059.26173950,0.00244734
5061.19054687,0.00246870
5063.11935425,0.00252115
5065.04816162,0.00244859
5066.97696899,0.00242291
5068.90577637,0.00256193
5070.83458374,0.00238915
5072.76339111,0.00242406
5074.69219849,0.00250329
5076.62100586,0.00240454
5078.54981323,0.00244704
5080.47862061,0.00236751
5082.40742798,0.00239224
5084.33623535,0.00246777
5086.26504272,0.00245421
5088.19385010,0.00239693
5090.12265747,0.00234749
5092.05146484,0.00237355
5093.98027222,0.00234330
5095.90907959,0.00238439
5097.83788696,0.00236145
5099.76669434,0.00234500
5101.69550171,0.00242356
5103.62430908,0.00236325
5105.55311645,0.00234866
5107.48192383,0.00235371
5109.41073120,0.00227101
5111.33953857,0.00230238
5113.26834595,0.00233275
5115.19715332,0.00225958
5117.12596069,0.00231568
5119.05476807,0.00235920
5120.98357544,0.00228079
5122.91238281,0.00225311
5124.84119019,0.00227079
5126.76999756,0.00228419
5128.69880493,0.00225849
5130.62761230,0.00231726
5132.55641968,0.00231416
5134.48522705,0.00219738
5136.41403442,0.00222606
5138.34284180,0.00225862
5140.27164917,0.00224941
5142.20045654,0.00220184
5144.12926392,0.00214951
5146.05807129,0.00220277
5147.98687866,0.00220690
5149.91568603,0.00217237
5151.84449341,0.00216935
5153.77330078,0.00217150
5155.70210815,0.00219102
5157.63091553,0.00220672
5159.55972290,0.00217167
5161.48853027,0.00214135
5163.41733765,0.00214952
5165.34614502,0.00210199
5167.27495239,0.00211547
5169.20375977,0.00214399
5171.13256714,0.00212783
5173.06137451,0.00217191
5174.99018188,0.00211345
5176.91898926,0.00208849
5178.84779663,0.00210330
5180.77660400,0.00208068
5182.70541138,0.00212698
5184.63421875,0.00204905
5186.56302612,0.00203094
5188.49183350,0.00210393
5190.42064087,0.00206959
5192.34944824,0.00200076
5194.27825562,0.00198858
5196.20706299,0.00202763
5198.13587036,0.00199614
5200.06467773,0.00207594
5201.99348511,0.00211105
5203.92229248,0.00205147
5205.85109985,0.00202118
5207.77990723,0.00190646
5209.70871460,0.00196253
5211.63752197,0.00200464
5213.56632935,0.00199455
5215.49513672,0.00203579
5217.42394409,0.00197785
5219.35275146,0.00195395
5221.28155884,0.00199555
5223.21036621,0.00205223
5225.13917358,0.00193520
5227.06798096,0.00184961
5228.99678833,0.00192415
5230.92559570,0.00193782
5232.85440308,0.00189819
5234.78321045,0.00188663
5236.71201782,0.00196038
5238.64082520,0.00187476
5240.56963257,0.00185532
5242.49843994,0.00189418
5244.42724731,0.00177891
5246.35605469,0.00186882
5248.28486206,0.00189055
5250.21366943,0.00185933
5252.14247681,0.00192420
5254.07128418,0.00180964
5256.00009155,0.00182118
5257.92889893,0.00187406
5259.85770630,0.00178629
5261.78651367,0.00188079
5263.71532104,0.00180655
5265.64412842,0.00173105
5267.57293579,0.00193658
5269.50174316,0.00178680
5271.43055054,0.00173090
5273.35935791,0.00188318
5275.28816528,0.00186376
5277.21697266,0.00191556
5279.14578003,0.00181968
5281.07458740,0.00176384
5283.00339478,0.00181265
5284.93220215,0.00173688
5286.86100952,0.00167706
5288.78981689,0.00173566
5290.71862427,0.00178112
5292.64743164,0.00176091
5294.57623901,0.00183848
5296.50504639,0.00178208
5298.43385376,0.00176891
5300.36266113,0.00181033
5302.29146851,0.00173356
5304.22027588,0.00174638
5306.14908325,0.00171018
5308.07789062,0.00172921
5310.00669800,0.00173089
5311.93550537,0.00173128
5313.86431274,0.00176311
5315.79312012,0.00171716
5317.72192749,0.00174950
5319.65073486,0.00169846
5321.57954224,0.00164669
5323.50834961,0.00166121
5325.43715698,0.00168275
5327.36596436,0.00165173
5329.29477173,0.00164008
5331.22357910,0.00167930
5333.15238647,0.00154613
5335.08119385,0.00160568
5337.01000122,0.00166999
5338.93880859,0.00156846
5340.86761597,0.00168478
5342.79642334,0.00163354
5344.72523071,0.00151761
5346.65403809,0.00163436
5348.58284546,0.00162510
5350.51165283,0.00159416
5352.44046020,0.00162005
5354.36926758,0.00156346
5356.29807495,0.00158823
5358.22688232,0.00161511
5360.15568970,0.00160918
5362.08449707,0.00160209
5364.01330444,0.00160123
5365.94211182,0.00162211
5367.87091919,0.00155305
5369.79972656,0.00158124
5371.72853394,0.00161918
5373.65734131,0.00154268
5375.58614868,0.00147850
5377.51495605,0.00149683
5379.44376343,0.00155007
5381.37257080,0.00153444
5383.30137817,0.00157363
5385.23018555,0.00151385
5387.15899292,0.00153759
5389.08780029,0.00161464
5391.01660767,0.00151188
5392.94541504,0.00153961
5394.87422241,0.00147651
5396.80302978,0.00142950
5398.73183716,0.00146944
5400.66064453,0.00144860
5402.58945190,0.00152534
5404.51825928,0.00153349
5406.44706665,0.00149626
5408.37587402,0.00144455
5410.30468140,0.00146981
5412.23348877,0.00148360
5414.16229614,0.00137174
5416.09110352,0.00142958
5418.01991089,0.00151003
5419.94871826,0.00145399
5421.87752563,0.00146637
5423.80633301,0.00149808
5425.73514038,0.00141812
5427.66394775,0.00139153
5429.59275513,0.00141765
5431.52156250,0.00145390
5433.45036987,0.00142560
5435.37917725,0.00129038
5437.30798462,0.00137543
5439.23679199,0.00146796
5441.16559936,0.00136446
5443.09440674,0.00137563
5445.02321411,0.00139136
5446.95202148,0.00131650
5448.88082886,0.00139866
5450.80963623,0.00143546
5452.73844360,0.00134071
5454.66725098,0.00134185
5456.59605835,0.00134208
5458.52486572,0.00144722
5460.45367310,0.00140756
5462.38248047,0.00130935
5464.31128784,0.00147990
5466.24009521,0.00144454
5468.16890259,0.00137874
5470.09770996,0.00136315
5472.02651733,0.00132107
5473.95532471,0.00132351
5475.88413208,0.00124814
5477.81293945,0.00133333
5479.74174683,0.00134900
5481.67055420,0.00130719
5483.59936157,0.00137226
5485.52816895,0.00132591
5487.45697632,0.00126022
5489.38578369,0.00123167
5491.31459106,0.00132999
5493.24339844,0.00135443
5495.17220581,0.00121648
5497.10101318,0.00130677
5499.02982056,0.00137675
5500.95862793,0.00125614
5502.88743530,0.00126566
5504.81624268,0.00126347
5506.74505005,0.00124993
5508.67385742,0.00127111
5510.60266479,0.00120854
5512.53147217,0.00124707
5514.46027954,0.00127752
5516.38908691,0.00121114
5518.31789429,0.00122079
5520.24670166,0.00130087
5522.17550903,0.00128195
5524.10431641,0.00120781
5526.03312378,0.00123987
5527.96193115,0.00128837
5529.89073853,0.00125831
5531.81954590,0.00116661
5533.74835327,0.00122441
5535.67716064,0.00124106
5537.60596802,0.00121154
5539.53477539,0.00125846
5541.46358276,0.00114852
5543.39239014,0.00118005
5545.32119751,0.00115859
5547.25000488,0.00113349
5549.17881226,0.00123175
5551.10761963,0.00116317
5553.03642700,0.00118566
5554.96523437,0.00113943
5556.89404175,0.00118215
5558.82284912,0.00124209
5560.75165649,0.00113872
5562.68046387,0.00117657
5564.60927124,0.00116649
5566.53807861,0.00118473
5568.46688599,0.00121823
5570.39569336,0.00118196
5572.32450073,0.00111116
5574.25330811,0.00114977
5576.18211548,0.00118959
5578.11092285,0.00107387
5580.03973022,0.00114613
5581.96853760,0.00112670
5583.89734497,0.00109386
5585.82615234,0.00117304
5587.75495972,0.00109767
5589.68376709,0.00105913
5591.61257446,0.00107946
5593.54138184,0.00109989
5595.47018921,0.00107703
5597.39899658,0.00116386
5599.32780395,0.00118008
5601.25661133,0.00110352
5603.18541870,0.00114295
5605.11422607,0.00105063
5607.04303345,0.00106208
5608.97184082,0.00110486
5610.90064819,0.00104696
5612.82945557,0.00106162
5614.75826294,0.00107302
5616.68707031,0.00113374
5618.61587769,0.00110721
5620.54468506,0.00105092
5622.47349243,0.00107106
5624.40229980,0.00106669
5626.33110718,0.00108958
5628.25991455,0.00110563
5630.18872192,0.00109001
5632.11752930,0.00109333
5634.04633667,0.00108472
5635.97514404,0.00104191
5637.90395142,0.00104442
5639.83275879,0.00105375
5641.76156616,0.00101862
5643.69037353,0.00103277
5645.61918091,0.00107468
5647.54798828,0.00105266
5649.47679565,0.00103030
5651.40560303,0.00102456
5653.33441040,0.00100561
5655.26321777,0.00102575
5657.19202515,0.00100776
5659.12083252,0.00102111
5661.04963989,0.00103780
5662.97844727,0.00093819
5664.90725464,0.00096250
5666.83606201,0.00102580
5668.76486938,0.00100705
5670.69367676,0.00103854
5672.62248413,0.00098830
5674.55129150,0.00096518
5676.48009888,0.00106073
5678.40890625,0.00104205
5680.33771362,0.00102733
5682.26652100,0.00102566
5684.19532837,0.00093993
5686.12413574,0.00094002
5688.05294311,0.00098189
5689.98175049,0.00096617
5691.91055786,0.00091350
5693.83936523,0.00096316
5695.76817261,0.00100232
5697.69697998,0.00090779
5699.62578735,0.00090200
5701.55459473,0.00095143
5703.48340210,0.00096278
5705.41220947,0.00090411
5707.34101685,0.00094942
5709.26982422,0.00100581
5711.19863159,0.00090114
5713.12743896,0.00093727
5715.05624634,0.00092458
5716.98505371,0.00091306
5718.91386108,0.00096435
5720.84266846,0.00087775
5722.77147583,0.00090678
5724.70028320,0.00091341
5726.62909058,0.00088849
5728.55789795,0.00100073
5730.48670532,0.00100277
5732.41551270,0.00089057
5734.34432007,0.00089940
5736.27312744,0.00088167
5738.20193481,0.00082010
5740.13074219,0.00087156
5742.05954956,0.00084864
5743.98835693,0.00090450
5745.91716431,0.00095209
5747.84597168,0.00090701
5749.77477905,0.00094630
5751.70358643,0.00086721
5753.63239380,0.00085376
5755.56120117,0.00087861
5757.49000854,0.00085369
5759.41881592,0.00085432
5761.34762329,0.00081162
5763.27643066,0.00089178
5765.20523804,0.00093914
5767.13404541,0.00089397
5769.06285278,0.00081907
5770.99166016,0.00080916
5772.92046753,0.00088574
5774.84927490,0.00079543
5776.77808228,0.00078591
5778.70688965,0.00084240
5780.63569702,0.00079474
5782.56450439,0.00082458
5784.49331177,0.00083639
5786.42211914,0.00081578
5788.35092651,0.00083160
5790.27973389,0.00085261
5792.20854126,0.00081174
5794.13734863,0.00076291
5796.06615601,0.00080030
5797.99496338,0.00079156
5799.92377075,0.00079602
5801.85257812,0.00084088
5803.78138550,0.00082803
5805.71019287,0.00084815
5807.63900024,0.00080760
5809.56780762,0.00068243
5811.49661499,0.00071439
5813.42542236,0.00083355
5815.35422974,0.00081388
5817.28303711,0.00080182
5819.21184448,0.00081706
5821.14065186,0.00074558
5823.06945923,0.00080663
5824.99826660,0.00085630
5826.92707397,0.00077194
5828.85588135,0.00079211
5830.78468872,0.00077278
5832.71349609,0.00071935
5834.64230347,0.00076566
5836.57111084,0.00076235
5838.49991821,0.00071944
5840.42872559,0.00069739
5842.35753296,0.00072532
5844.28634033,0.00074626
5846.21514770,0.00068428
5848.14395508,0.00073634
5850.07276245,0.00077964
5852.00156982,0.00071766
5853.93037720,0.00078340
5855.85918457,0.00074455
5857.78799194,0.00067984
5859.71679932,0.00073705
5861.64560669,0.00067244
5863.57441406,0.00070908
5865.50322144,0.00073052
5867.43202881,0.00061290
5869.36083618,0.00071744
5871.28964355,0.00079141
5873.21845093,0.00068345
5875.14725830,0.00069405
5877.07606567,0.00069752
5879.00487305,0.00065940
5880.93368042,0.00072119
5882.86248779,0.00072260
5884.79129517,0.00068877
5886.72010254,0.00069599
5888.64890991,0.00067910
5890.57771728,0.00067642
5892.50652466,0.00069407
5894.43533203,0.00066702
5896.36413940,0.00066245
5898.29294678,0.00070382
5900.22175415,0.00067361
5902.15056152,0.00069558
5904.07936890,0.00065044
5906.00817627,0.00058930
5907.93698364,0.00067129
5909.86579102,0.00059940
5911.79459839,0.00061807
5913.72340576,0.00067530
5915.65221313,0.00061261
5917.58102051,0.00066459
5919.50982788,0.00068702
5921.43863525,0.00070952
5923.36744263,0.00069812
5925.29625000,0.00063512
5927.22505737,0.00062613
5929.15386475,0.00067767
5931.08267212,0.00064190
5933.01147949,0.00057591
5934.94028686,0.00067966
5936.86909424,0.00064135
5938.79790161,0.00063395
5940.72670898,0.00063967
5942.65551636,0.00054078
5944.58432373,0.00062599
5946.51313110,0.00061231
5948.44193848,0.00061027
5950.37074585,0.00068087
5952.29955322,0.00064091
5954.22836060,0.00059935
5956.15716797,0.00060632
5958.08597534,0.00059965
5960.01478271,0.00051644
5961.94359009,0.00060165
5963.87239746,0.00064998
5965.80120483,0.00052200
5967.73001221,0.00054887
5969.65881958,0.00066329
5971.58762695,0.00064307
5973.51643433,0.00058157
5975.44524170,0.00062894
5977.37404907,0.00057219
5979.30285645,0.00053979
5981.23166382,0.00062830
5983.16047119,0.00059381
5985.08927856,0.00055847
5987.01808594,0.00058027
5988.94689331,0.00057112
5990.87570068,0.00056768
5992.80450806,0.00059061
5994.73331543,0.00057082
5996.66212280,0.00059968
5998.59093018,0.00060692
6000.51973755,0.00057803
