399.26312622,0.00054192
401.19193359,0.00060304
403.12074097,0.00044313
405.04954834,0.00077205
406.97835571,0.00060199
408.90716309,0.00036195
410.83597046,0.00043560
412.76477783,0.00053696
414.69358521,0.00106443
416.62239258,0.00103292
418.55119995,0.00066208
420.48000732,0.00107474
422.40881470,0.00122038
424.33762207,0.00086560
426.26642944,0.00097767
428.19523682,0.00061760
430.12404419,0.00051338
432.05285156,0.00081798
433.98165894,0.00072921
435.91046631,0.00100090
437.83927368,0.00078133
439.76808105,0.00073760
441.69688843,0.00066784
443.62569580,0.00072592
445.55450317,0.00110994
447.48331055,0.00075392
449.41211792,0.00121796
451.34092529,0.00101296
453.26973267,0.00054559
455.19854004,0.00085605
457.12734741,0.00044642
459.05615479,0.00037434
460.98496216,0.00061714
462.91376953,0.00059795
464.84257690,0.00016014
466.77138428,0.00030640
468.70019165,0.00042503
470.62899902,0.00014137
472.55780640,0.00063656
474.48661377,0.00068099
476.41542114,0.00060172
478.34422852,0.00063529
480.27303589,0.00061408
482.20184326,0.00025752
484.13065063,-0.00003729
486.05945801,0.00047145
487.98826538,0.00040880
489.91707275,0.00029932
491.84588013,0.00007448
493.77468750,0.00010531
495.70349487,0.00069727
497.63230225,0.00024683
499.56110962,0.00008307
501.48991699,0.00039190
503.41872437,0.00024380
505.34753174,-0.00000731
507.27633911,-0.00021447
509.20514648,-0.00004862
511.13395386,-0.00000587
513.06276123,-0.00000898
514.99156860,0.00016800
516.92037598,0.00018089
518.84918335,0.00006220
520.77799072,0.00026605
522.70679810,0.00053793
524.63560547,0.00032605
526.56441284,0.00027798
528.49322021,0.00035238
530.42202759,0.00004019
532.35083496,-0.00021599
534.27964233,0.00014941
536.20844971,0.00017060
538.13725708,-0.00032933
540.06606445,-0.00010893
541.99487183,0.00002646
543.92367920,0.00027115
545.85248657,0.00043923
547.78129395,-0.00004267
549.71010132,0.00015991
551.63890869,0.00025316
553.56771606,-0.00003131
555.49652344,0.00019810
557.42533081,0.00033089
559.35413818,0.00037552
561.28294556,0.00007490
563.21175293,0.00013597
565.14056030,0.00031131
567.06936768,-0.00043960
568.99817505,0.00004752
570.92698242,0.00020140
572.85578979,0.00002029
574.78459717,0.00012218
576.71340454,-0.00002573
578.64221191,0.00033059
580.57101929,0.00004327
582.49982666,0.00021865
584.42863403,0.00019465
586.35744141,0.00007826
588.28624878,0.00021622
590.21505615,-0.00012603
592.14386353,0.00005252
594.07267090,0.00003430
596.00147827,0.00002445
597.93028564,-0.00001581
599.85909302,0.00028651
601.78790039,0.00020007
603.71670776,-0.00010974
605.64551514,0.00012383
607.57432251,0.00054834
609.50312988,0.00050115
611.43193726,0.00001127
613.36074463,-0.00014072
615.28955200,0.00003366
617.21835938,0.00017843
619.14716675,-0.00010855
621.07597412,-0.00006212
623.00478149,0.00018148
624.93358887,-0.00012517
626.86239624,0.00015256
628.79120361,0.00013778
630.72001099,-0.00007806
632.64881836,0.00037952
634.57762573,0.00049482
636.50643311,0.00085363
638.43524048,0.00091996
640.36404785,0.00067136
642.29285522,0.00080514
644.22166260,0.00119335
646.15046997,0.00118511
648.07927734,0.00115602
650.00808472,0.00124705
651.93689209,0.00081303
653.86569946,0.00135956
655.79450684,0.00134654
657.72331421,0.00103229
659.65212158,0.00147629
661.58092896,0.00115617
663.50973633,0.00145165
665.43854370,0.00170219
667.36735107,0.00164964
669.29615845,0.00163496
671.22496582,0.00156789
673.15377319,0.00181739
675.08258057,0.00162593
677.01138794,0.00181316
678.94019531,0.00204281
680.86900269,0.00200175
682.79781006,0.00193306
684.72661743,0.00172097
686.65542480,0.00181354
688.58423218,0.00201226
690.51303955,0.00187593
692.44184692,0.00166063
694.37065430,0.00214077
696.29946167,0.00249110
698.22826904,0.00272661
700.15707642,0.00301508
702.08588379,0.00293242
704.01469116,0.00271804
705.94349854,0.00228504
707.87230591,0.00212055
709.80111328,0.00158730
711.72992065,0.00097447
713.65872803,0.00070739
715.58753540,0.00037960
717.51634277,0.00035892
719.44515015,0.00021082
721.37395752,0.00037172
723.30276489,0.00052044
725.23157227,0.00012629
727.16037964,-0.00002651
729.08918701,0.00014247
731.01799438,0.00023088
732.94680176,0.00007788
734.87560913,-0.00015972
736.80441650,-0.00003257
738.73322388,0.00026092
740.66203125,0.00039972
742.59083862,0.00015960
744.51964600,-0.00019116
746.44845337,0.00003852
748.37726074,-0.00003518
750.30606812,0.00004829
752.23487549,0.00033259
754.16368286,-0.00010077
756.09249023,-0.00009478
758.02129761,-0.00002753
759.95010498,0.00010665
761.87891235,0.00039837
763.80771973,0.00021088
765.73652710,0.00021752
767.66533447,0.00021412
769.59414185,0.00034538
771.52294922,0.00013845
773.45175659,0.00015713
775.38056396,0.00051107
777.30937134,0.00016809
779.23817871,0.00042947
781.16698608,0.00052391
783.09579346,0.00011486
785.02460083,0.00027091
786.95340820,0.00034010
788.88221558,0.00002681
790.81102295,0.00031935
792.73983032,0.00061144
794.66863770,-0.00002988
796.59744507,0.00017895
798.52625244,0.00054349
800.45505981,0.00043786
802.38386719,0.00028381
804.31267456,0.00007153
806.24148193,0.00056804
808.17028931,0.00056588
810.09909668,0.00039658
812.02790405,0.00042163
813.95671143,0.00041715
815.88551880,0.00049697
817.81432617,0.00020502
819.74313354,0.00003825
821.67194092,-0.00011275
823.60074829,0.00008623
825.52955566,0.00033886
827.45836304,0.00041497
829.38717041,0.00063224
831.31597778,0.00074285
833.24478516,0.00067512
835.17359253,0.00062067
837.10239990,0.00084263
839.03120728,0.00067982
840.96001465,0.00080361
842.88882202,0.00078077
844.81762939,0.00049828
846.74643677,0.00071914
848.67524414,0.00047165
850.60405151,0.00051016
852.53285889,0.00046837
854.46166626,0.00048472
856.39047363,0.00060129
858.31928101,0.00037321
860.24808838,0.00043208
862.17689575,0.00008039
864.10570313,0.00035001
866.03451050,0.00033930
867.96331787,0.00011083
869.89212524,0.00061667
871.82093262,0.00046938
873.74973999,0.00057348
875.67854736,0.00048564
877.60735474,0.00042620
879.53616211,0.00065333
881.46496948,0.00052201
883.39377686,0.00041156
885.32258423,0.00025161
887.25139160,0.00042691
889.18019897,0.00024157
891.10900635,0.00035640
893.03781372,0.00044704
894.96662109,0.00027305
896.89542847,0.00073563
898.82423584,0.00059926
900.75304321,0.00042974
902.68185059,0.00032983
904.61065796,0.00038511
906.53946533,0.00069473
908.46827271,0.00054407
910.39708008,0.00045286
912.32588745,0.00055474
914.25469482,0.00068915
916.18350220,0.00045174
918.11230957,0.00057485
920.04111694,0.00066918
921.96992432,0.00059220
923.89873169,0.00100558
925.82753906,0.00092355
927.75634644,0.00091739
929.68515381,0.00093012
931.61396118,0.00092548
933.54276855,0.00109838
935.47157593,0.00106715
937.40038330,0.00120290
939.32919067,0.00115924
941.25799805,0.00115784
943.18680542,0.00115129
945.11561279,0.00118760
947.04442017,0.00123029
948.97322754,0.00112874
950.90203491,0.00126749
952.83084229,0.00125266
954.75964966,0.00119291
956.68845703,0.00107476
958.61726440,0.00116831
960.54607178,0.00129401
962.47487915,0.00129135
964.40368652,0.00135736
966.33249390,0.00109472
968.26130127,0.00135292
970.19010864,0.00141929
972.11891602,0.00109884
974.04772339,0.00138248
975.97653076,0.00165390
977.90533813,0.00171307
979.83414551,0.00162972
981.76295288,0.00186176
983.69176025,0.00191830
985.62056763,0.00204097
987.54937500,0.00272896
989.47818237,0.00283552
991.40698975,0.00296153
993.33579712,0.00326303
995.26460449,0.00338873
997.19341187,0.00347424
999.12221924,0.00361127
1001.05102661,0.00415863
1002.97983398,0.00444935
1004.90864136,0.00465648
1006.83744873,0.00500391
1008.76625610,0.00523709
1010.69506348,0.00567405
1012.62387085,0.00611343
1014.55267822,0.00625687
1016.48148560,0.00628283
1018.41029297,0.00668505
1020.33910034,0.00712636
1022.26790771,0.00736605
1024.19671509,0.00769749
1026.12552246,0.00796809
1028.05432983,0.00826814
1029.98313721,0.00842817
1031.91194458,0.00860480
1033.84075195,0.00895370
1035.76955933,0.00890352
1037.69836670,0.00888383
1039.62717407,0.00910722
1041.55598145,0.00901817
1043.48478882,0.00894882
1045.41359619,0.00907827
1047.34240356,0.00893624
1049.27121094,0.00858184
1051.20001831,0.00849922
1053.12882568,0.00840571
1055.05763306,0.00811181
1056.98644043,0.00794698
1058.91524780,0.00773664
1060.84405518,0.00773416
1062.77286255,0.00757590
1064.70166992,0.00710168
1066.63047729,0.00690529
1068.55928467,0.00646826
1070.48809204,0.00631674
1072.41689941,0.00633229
1074.34570679,0.00580590
1076.27451416,0.00563564
1078.20332153,0.00554019
1080.13212891,0.00499140
1082.06093628,0.00459134
1083.98974365,0.00457746
1085.91855103,0.00454228
1087.84735840,0.00442484
1089.77616577,0.00422622
1091.70497314,0.00408788
1093.63378052,0.00407519
1095.56258789,0.00381194
1097.49139526,0.00370583
1099.42020264,0.00362290
1101.34901001,0.00342020
1103.27781738,0.00324770
1105.20662476,0.00318759
1107.13543213,0.00339638
1109.06423950,0.00333053
1110.99304687,0.00322853
1112.92185425,0.00325075
1114.85066162,0.00339334
1116.77946899,0.00332587
1118.70827637,0.00304904
1120.63708374,0.00327738
1122.56589111,0.00341820
1124.49469849,0.00329474
1126.42350586,0.00309794
1128.35231323,0.00331407
1130.28112061,0.00364291
1132.20992798,0.00363385
1134.13873535,0.00380239
1136.06754272,0.00373255
1137.99635010,0.00401933
1139.92515747,0.00433225
1141.85396484,0.00426390
1143.78277222,0.00453836
1145.71157959,0.00470923
1147.64038696,0.00495433
1149.56919434,0.00538915
1151.49800171,0.00568380
1153.42680908,0.00568190
1155.35561646,0.00611554
1157.28442383,0.00653456
1159.21323120,0.00638045
1161.14203857,0.00679520
1163.07084595,0.00689769
1164.99965332,0.00702295
1166.92846069,0.00764931
1168.85726807,0.00780511
1170.78607544,0.00792600
1172.71488281,0.00823645
1174.64369019,0.00876721
1176.57249756,0.00905190
1178.50130493,0.00933326
1180.43011230,0.00972421
1182.35891968,0.00992212
1184.28772705,0.01034556
1186.21653442,0.01073641
1188.14534180,0.01131140
1190.07414917,0.01192765
1192.00295654,0.01240368
1193.93176392,0.01291715
1195.86057129,0.01350824
1197.78937866,0.01414262
1199.71818604,0.01471690
1201.64699341,0.01551152
1203.57580078,0.01587597
1205.50460815,0.01642068
1207.43341553,0.01726456
1209.36222290,0.01743646
1211.29103027,0.01800898
1213.21983765,0.01875846
1215.14864502,0.01898186
1217.07745239,0.01916201
1219.00625977,0.01960650
1220.93506714,0.02006396
1222.86387451,0.02024063
1224.79268188,0.02037672
1226.72148926,0.02051105
1228.65029663,0.02072383
1230.57910400,0.02070888
1232.50791138,0.02075952
1234.43671875,0.02080460
1236.36552612,0.02041268
1238.29433350,0.02056412
1240.22314087,0.02071192
1242.15194824,0.02043572
1244.08075562,0.02031391
1246.00956299,0.02006656
1247.93837036,0.01994956
1249.86717773,0.02003111
1251.79598511,0.01995138
1253.72479248,0.01970586
1255.65359985,0.01951620
1257.58240723,0.01924166
1259.51121460,0.01877724
1261.44002197,0.01850127
1263.36882935,0.01841685
1265.29763672,0.01824698
1267.22644409,0.01786966
1269.15525146,0.01761059
1271.08405884,0.01740389
1273.01286621,0.01714735
1274.94167358,0.01700472
1276.87048096,0.01656506
1278.79928833,0.01627558
1280.72809570,0.01608599
1282.65690308,0.01555062
1284.58571045,0.01539500
1286.51451782,0.01509757
1288.44332520,0.01466117
1290.37213257,0.01471060
1292.30093994,0.01458386
1294.22974731,0.01437069
1296.15855469,0.01418066
1298.08736206,0.01419647
1300.01616943,0.01432779
1301.94497681,0.01426697
1303.87378418,0.01450345
1305.80259155,0.01454912
1307.73139893,0.01467831
1309.66020630,0.01507121
1311.58901367,0.01520293
1313.51782104,0.01543926
1315.44662842,0.01577727
1317.37543579,0.01621277
1319.30424316,0.01629172
1321.23305054,0.01677999
1323.16185791,0.01767744
1325.09066528,0.01797399
1327.01947266,0.01858747
1328.94828003,0.01897228
1330.87708740,0.01952049
1332.80589478,0.02007622
1334.73470215,0.01996233
1336.66350952,0.02033878
1338.59231689,0.02002988
1340.52112427,0.02014397
1342.44993164,0.02116182
1344.37873901,0.02129124
1346.30754639,0.02144356
1348.23635376,0.02118738
1350.16516113,0.02096915
1352.09396851,0.02115759
1354.02277588,0.02069353
1355.95158325,0.02056592
1357.88039062,0.02057514
1359.80919800,0.02000467
1361.73800537,0.01895992
1363.66681274,0.01892869
1365.59562012,0.02001721
1367.52442749,0.01949281
1369.45323486,0.01922658
1371.38204224,0.01946474
1373.31084961,0.01841463
1375.23965698,0.01865804
1377.16846436,0.01906971
1379.09727173,0.01897562
1381.02607910,0.01927236
1382.95488647,0.01898414
1384.88369385,0.01891353
1386.81250122,0.01821234
1388.74130859,0.01818566
1390.67011597,0.02002511
1392.59892334,0.01939545
1394.52773071,0.01784107
1396.45653809,0.01903775
1398.38534546,0.01879833
1400.31415283,0.01878891
1402.24296021,0.02036439
1404.17176758,0.01903696
1406.10057495,0.01943405
1408.02938232,0.02022336
1409.95818970,0.01933202
1411.88699707,0.01969989
1413.81580444,0.01903307
1415.74461182,0.01928613
1417.67341919,0.01721393
1419.60222656,0.01548168
1421.53103394,0.01798697
1423.45984131,0.01746348
1425.38864868,0.01705668
1427.31745605,0.01742150
1429.24626343,0.01603400
1431.17507080,0.01549105
1433.10387817,0.01589849
1435.03268555,0.01426383
1436.96149292,0.01191258
1438.89030029,0.01396947
1440.81910767,0.01429701
1442.74791504,0.01340862
1444.67672241,0.01417683
1446.60552979,0.01271387
1448.53433716,0.01302171
1450.46314453,0.01334310
1452.39195190,0.01348695
1454.32075928,0.01415558
1456.24956665,0.01149442
1458.17837402,0.01198914
1460.10718140,0.01602992
1462.03598877,0.01708174
1463.96479614,0.01688556
1465.89360352,0.01738514
1467.82241089,0.02005482
1469.75121826,0.02133412
1471.68002563,0.01850038
1473.60883301,0.01951792
1475.53764038,0.02228788
1477.46644775,0.02429545
1479.39525513,0.02666093
1481.32406250,0.02668331
1483.25286987,0.02868293
1485.18167725,0.02937885
1487.11048462,0.02862471
1489.03929199,0.02812110
1490.96809937,0.02811730
1492.89690674,0.03361547
1494.82571411,0.03220966
1496.75452148,0.02839735
1498.68332886,0.03267299
1500.61213623,0.03365310
1502.54094360,0.03656019
1504.46975098,0.03365063
1506.39855835,0.02324526
1508.32736572,0.02972981
1510.25617310,0.03532789
1512.18498047,0.03432942
1514.11378784,0.03729908
1516.04259521,0.03292350
1517.97140259,0.03465171
1519.90020996,0.03292798
1521.82901733,0.02800426
1523.75782471,0.03558356
1525.68663208,0.03466418
1527.61543945,0.03455738
1529.54424683,0.03889333
1531.47305420,0.03715482
1533.40186157,0.03345869
1535.33066895,0.03585641
1537.25947632,0.03848185
1539.18828369,0.02608764
1541.11709106,0.02809301
1543.04589844,0.03418488
1544.97470581,0.03246890
1546.90351318,0.03964719
1548.83232056,0.03636915
1550.76112793,0.03781820
1552.68993530,0.03750726
1554.61874268,0.03355328
1556.54755005,0.03605372
1558.47635742,0.02369066
1560.40516479,0.02677513
1562.33397217,0.03977221
1564.26277954,0.03695382
1566.19158691,0.03854747
1568.12039429,0.03775880
1570.04920166,0.03301065
1571.97800903,0.03914025
1573.90681641,0.03906564
1575.83562378,0.02993071
1577.76443115,0.03513032
1579.69323853,0.04016156
1581.62204590,0.03801119
1583.55085327,0.03915808
1585.47966064,0.03836665
1587.40846802,0.03866325
1589.33727539,0.03832988
1591.26608276,0.03828419
1593.19489014,0.03825613
1595.12369751,0.03763743
1597.05250488,0.03836057
1598.98131226,0.03817439
1600.91011963,0.03835697
1602.83892700,0.03755294
1604.76773437,0.03809957
1606.69654175,0.03751153
1608.62534912,0.03749468
1610.55415649,0.03724937
1612.48296387,0.03775268
1614.41177124,0.03815859
1616.34057861,0.03019639
1618.26938599,0.03369443
1620.19819336,0.03954893
1622.12700073,0.03423088
1624.05580811,0.03480783
1625.98461548,0.03675513
1627.91342285,0.03613983
1629.84223022,0.03608420
1631.77103760,0.03917608
1633.69984497,0.03514139
1635.62865234,0.02808164
1637.55745972,0.03395268
1639.48626709,0.03779622
1641.41507446,0.03680755
1643.34388184,0.03788013
1645.27268921,0.03343509
1647.20149658,0.02893804
1649.13030396,0.03729083
1651.05911133,0.03451338
1652.98791870,0.02073762
1654.91672607,0.03024476
1656.84553345,0.03872430
1658.77434082,0.03701338
1660.70314819,0.03777661
1662.63195557,0.03381161
1664.56076294,0.03624629
1666.48957031,0.03907230
1668.41837769,0.03321929
1670.34718506,0.03236306
1672.27599243,0.03759259
1674.20479980,0.03381780
1676.13360718,0.03246432
1678.06241455,0.03818059
1679.99122192,0.03631391
1681.92002930,0.03587386
1683.84883667,0.02819626
1685.77764404,0.02853476
1687.70645142,0.04012641
1689.63525879,0.03388035
1691.56406616,0.03834366
1693.49287354,0.03848857
1695.42168091,0.02698271
1697.35048828,0.03443681
1699.27929565,0.02916395
1701.20810303,0.02635885
1703.13691040,0.03745289
1705.06571777,0.03363814
1706.99452515,0.03440573
1708.92333252,0.03768083
1710.85213989,0.03591138
1712.78094727,0.03653330
1714.70975464,0.03315652
1716.63856201,0.02953375
1718.56736938,0.02927886
1720.49617676,0.03544933
1722.42498413,0.03686894
1724.35379150,0.03408234
1726.28259888,0.03763963
1728.21140625,0.03410329
1730.14021362,0.03445155
1732.06902100,0.03322987
1733.99782837,0.02432806
1735.92663574,0.03190548
1737.85544312,0.03519816
1739.78425049,0.03087733
1741.71305786,0.03425350
1743.64186523,0.03438125
1745.57067261,0.03438025
1747.49947998,0.03466782
1749.42828735,0.03276531
1751.35709473,0.03124004
1753.28590210,0.03532785
1755.21470947,0.03675483
1757.14351685,0.03308945
1759.07232422,0.03703999
1761.00113159,0.03419588
1762.92993896,0.03314584
1764.85874634,0.03844370
1766.78755371,0.03376552
1768.71636108,0.03429021
1770.64516846,0.03384098
1772.57397583,0.03016520
1774.50278320,0.03435643
1776.43159058,0.03636721
1778.36039795,0.03589949
1780.28920532,0.03521936
1782.21801270,0.03562501
1784.14682007,0.03560491
1786.07562744,0.03470870
1788.00443481,0.03677793
1789.93324219,0.03535925
1791.86204956,0.03153673
1793.79085693,0.03348709
1795.71966431,0.03628131
1797.64847168,0.03556538
1799.57727905,0.03492561
1801.50608643,0.03413636
1803.43489380,0.03531206
1805.36370117,0.03648063
1807.29250854,0.03569666
1809.22131592,0.03562306
1811.15012329,0.03470078
1813.07893066,0.03583902
1815.00773804,0.03621440
1816.93654541,0.03569933
1818.86535278,0.03586481
1820.79416016,0.03581741
1822.72296753,0.03619577
1824.65177490,0.03340118
1826.58058228,0.03480655
1828.50938965,0.03478502
1830.43819702,0.03248152
1832.36700439,0.03571596
1834.29581177,0.03537959
1836.22461914,0.03542965
1838.15342651,0.03518757
1840.08223389,0.03553446
1842.01104126,0.03532080
1843.93984863,0.03070105
1845.86865601,0.03337869
1847.79746338,0.03530721
1849.72627075,0.03457976
1851.65507812,0.03567780
1853.58388550,0.03479176
1855.51269287,0.03535045
1857.44150024,0.03493019
1859.37030762,0.03477187
1861.29911499,0.03489782
1863.22792236,0.03441720
1865.15672974,0.03485864
1867.08553711,0.03329368
1869.01434448,0.03188196
1870.94315186,0.03338986
1872.87195923,0.03486517
1874.80076660,0.03426898
1876.72957397,0.03432310
1878.65838135,0.03426432
1880.58718872,0.03413717
1882.51599609,0.03424098
1884.44480347,0.03363077
1886.37361084,0.03425802
1888.30241821,0.03317714
1890.23122559,0.03261351
1892.16003296,0.03400209
1894.08884033,0.03342321
1896.01764771,0.03327930
1897.94645508,0.03348285
1899.87526245,0.03347212
1901.80406982,0.03355294
1903.73287720,0.03318068
1905.66168457,0.03348049
1907.59049194,0.03306212
1909.51929932,0.03265468
1911.44810669,0.03294704
1913.37691406,0.03308538
1915.30572144,0.03323448
1917.23452881,0.03152113
1919.16333618,0.03159254
1921.09214355,0.03283634
1923.02095093,0.03157129
1924.94975830,0.03246271
1926.87856567,0.03282230
1928.80737305,0.03238148
1930.73618042,0.03280925
1932.66498779,0.03212924
1934.59379517,0.03269023
1936.52260254,0.03227735
1938.45140991,0.03238011
1940.38021729,0.03234351
1942.30902466,0.03092820
1944.23783203,0.03175976
1946.16663940,0.03202580
1948.09544678,0.03213215
1950.02425415,0.03224424
1951.95306152,0.03202123
1953.88186890,0.03219132
1955.81067627,0.03183363
1957.73948364,0.03195704
1959.66829102,0.03181832
1961.59709839,0.03179949
1963.52590576,0.03180078
1965.45471313,0.03146139
1967.38352051,0.03115014
1969.31232788,0.03135020
1971.24113525,0.03183651
1973.16994263,0.03157418
1975.09875000,0.03159648
1977.02755737,0.03143201
1978.95636475,0.03156306
1980.88517212,0.03148622
1982.81397949,0.03113256
1984.74278687,0.03135637
1986.67159424,0.03097739
1988.60040161,0.03115503
1990.52920898,0.03081232
1992.45801636,0.03024918
1994.38682373,0.03078078
1996.31563110,0.03086958
1998.24443848,0.03066170
2000.17324585,0.03056412
2002.10205322,0.03061294
2004.03086060,0.03049932
2005.95966797,0.03040332
2007.88847534,0.03020921
2009.81728271,0.03012684
2011.74609009,0.03031432
2013.67489746,0.03014499
2015.60370483,0.02978680
2017.53251221,0.02960388
2019.46131958,0.02988853
2021.39012695,0.02971704
2023.31893433,0.02959000
2025.24774170,0.02967423
2027.17654907,0.02949816
2029.10535645,0.02952935
2031.03416382,0.02931384
2032.96297119,0.02927798
2034.89177856,0.02919580
2036.82058594,0.02923865
2038.74939331,0.02907005
2040.67820068,0.02866846
2042.60700806,0.02895131
2044.53581543,0.02885856
2046.46462280,0.02879963
2048.39343018,0.02874517
2050.32223755,0.02852129
2052.25104492,0.02863875
2054.17985229,0.02851533
2056.10865967,0.02830784
2058.03746704,0.02832058
2059.96627441,0.02835936
2061.89508179,0.02813038
2063.82388916,0.02793522
2065.75269653,0.02794360
2067.68150391,0.02806541
2069.61031128,0.02789543
2071.53911865,0.02781204
2073.46792603,0.02797739
2075.39673340,0.02767943
2077.32554077,0.02760673
2079.25434814,0.02756613
2081.18315552,0.02753475
2083.11196289,0.02744779
2085.04077026,0.02727140
2086.96957764,0.02734416
2088.89838501,0.02707417
2090.82719238,0.02718120
2092.75599976,0.02716950
2094.68480713,0.02687735
2096.61361450,0.02697947
2098.54242187,0.02691292
2100.47122925,0.02678872
2102.40003662,0.02673955
2104.32884399,0.02675725
2106.25765137,0.02657336
2108.18645874,0.02653152
2110.11526611,0.02666235
2112.04407349,0.02660320
2113.97288086,0.02643041
2115.90168823,0.02621150
2117.83049561,0.02634945
2119.75930298,0.02641874
2121.68811035,0.02628960
2123.61691772,0.02610321
2125.54572510,0.02601655
2127.47453247,0.02603229
2129.40333984,0.02600658
2131.33214722,0.02604761
2133.26095459,0.02588601
2135.18976196,0.02593285
2137.11856934,0.02588737
2139.04737671,0.02575827
2140.97618408,0.02586843
2142.90499146,0.02572537
2144.83379883,0.02559725
2146.76260620,0.02558314
2148.69141357,0.02558423
2150.62022095,0.02542567
2152.54902832,0.02545536
2154.47783569,0.02550497
2156.40664307,0.02526634
2158.33545044,0.02533640
2160.26425781,0.02531778
2162.19306519,0.02516228
2164.12187256,0.02514252
2166.05067993,0.02515789
2167.97948730,0.02509658
2169.90829468,0.02505741
2171.83710205,0.02497932
2173.76590942,0.02481886
2175.69471680,0.02500205
2177.62352417,0.02488001
2179.55233154,0.02469384
2181.48113892,0.02478494
2183.40994629,0.02462463
2185.33875366,0.02458822
2187.26756104,0.02450761
2189.19636841,0.02449842
2191.12517578,0.02461966
2193.05398315,0.02455513
2194.98279053,0.02449002
2196.91159790,0.02437483
2198.84040527,0.02438551
2200.76921265,0.02443345
2202.69802002,0.02436218
2204.62682739,0.02417662
2206.55563477,0.02410117
2208.48444214,0.02430795
2210.41324951,0.02415814
2212.34205688,0.02401334
2214.27086426,0.02402311
2216.19967163,0.02391286
2218.12847900,0.02408741
2220.05728638,0.02398052
2221.98609375,0.02378982
2223.91490112,0.02370832
2225.84370850,0.02365231
2227.77251587,0.02381100
2229.70132324,0.02354546
2231.63013062,0.02351517
2233.55893799,0.02360475
2235.48774536,0.02339584
2237.41655273,0.02338959
2239.34536011,0.02331679
2241.27416748,0.02338279
2243.20297485,0.02332643
2245.13178223,0.02317432
2247.06058960,0.02320115
2248.98939697,0.02318849
2250.91820435,0.02313644
2252.84701172,0.02307008
2254.77581909,0.02303994
2256.70462646,0.02289034
2258.63343384,0.02288555
2260.56224121,0.02274235
2262.49104858,0.02265160
2264.41985596,0.02278165
2266.34866333,0.02267836
2268.27747070,0.02271439
2270.20627808,0.02263879
2272.13508545,0.02258491
2274.06389282,0.02250692
2275.99270020,0.02246447
2277.92150757,0.02250627
2279.85031494,0.02233642
2281.77912231,0.02249508
2283.70792969,0.02231327
2285.63673706,0.02212336
2287.56554443,0.02228483
2289.49435181,0.02210439
2291.42315918,0.02200128
2293.35196655,0.02194310
2295.28077393,0.02193280
2297.20958130,0.02190119
2299.13838867,0.02178685
2301.06719604,0.02176217
2302.99600342,0.02167437
2304.92481079,0.02155415
2306.85361816,0.02138944
2308.78242554,0.02113628
2310.71123291,0.02095278
2312.64004028,0.02078173
2314.56884766,0.02054497
2316.49765503,0.02040254
2318.42646240,0.02010364
2320.35526978,0.01992455
2322.28407715,0.01969713
2324.21288452,0.01924882
2326.14169189,0.01911440
2328.07049927,0.01885315
2329.99930664,0.01863233
2331.92811401,0.01848816
2333.85692139,0.01843350
2335.78572876,0.01842185
2337.71453613,0.01824389
2339.64334351,0.01834850
2341.57215088,0.01837638
2343.50095825,0.01853580
2345.42976562,0.01891414
2347.35857300,0.01962887
2349.28738037,0.02009143
2351.21618774,0.01942087
2353.14499512,0.01864486
2355.07380249,0.01791862
2357.00260986,0.01748712
2358.93141724,0.01719517
2360.86022461,0.01688900
2362.78903198,0.01696517
2364.71783936,0.01691450
2366.64664673,0.01719567
2368.57545410,0.01757388
2370.50426147,0.01785574
2372.43306885,0.01831790
2374.36187622,0.01875073
2376.29068359,0.01926396
2378.21949097,0.01956407
2380.14829834,0.01978798
2382.07710571,0.01997671
2384.00591309,0.02010373
2385.93472046,0.02028418
2387.86352783,0.02023121
2389.79233521,0.02018173
2391.72114258,0.02018216
2393.64994995,0.02001960
2395.57875732,0.01999471
2397.50756470,0.02003660
2399.43637207,0.02005041
2401.36517944,0.02006361
2403.29398682,0.01984928
2405.22279419,0.01980695
2407.15160156,0.01986140
2409.08040894,0.01982830
2411.00921631,0.01978757
2412.93802368,0.01962634
2414.86683105,0.01964705
2416.79563843,0.01966178
2418.72444580,0.01964113
2420.65325317,0.01953259
2422.58206055,0.01941013
2424.51086792,0.01940219
2426.43967529,0.01933936
2428.36848267,0.01930360
2430.29729004,0.01912118
2432.22609741,0.01926276
2434.15490479,0.01928718
2436.08371216,0.01909850
2438.01251953,0.01923035
2439.94132690,0.01907977
2441.87013428,0.01903514
2443.79894165,0.01904960
2445.72774902,0.01904939
2447.65655640,0.01909884
2449.58536377,0.01898116
2451.51417114,0.01896066
2453.44297852,0.01890479
2455.37178589,0.01891618
2457.30059326,0.01880605
2459.22940063,0.01872634
2461.15820801,0.01877348
2463.08701538,0.01869406
2465.01582275,0.01865178
2466.94463013,0.01859787
2468.87343750,0.01863399
2470.80224487,0.01858428
2472.73105225,0.01851930
2474.65985962,0.01856905
2476.58866699,0.01846598
2478.51747437,0.01831977
2480.44628174,0.01840225
2482.37508911,0.01839247
2484.30389648,0.01824572
2486.23270386,0.01833083
2488.16151123,0.01820576
2490.09031860,0.01820664
2492.01912598,0.01825035
2493.94793335,0.01799327
2495.87674072,0.01803100
2497.80554810,0.01806880
2499.73435547,0.01803139
2501.66316284,0.01803217
2503.59197021,0.01809281
2505.52077759,0.01803527
2507.44958496,0.01787344
2509.37839233,0.01787627
2511.30719971,0.01779203
2513.23600708,0.01777599
2515.16481445,0.01772040
2517.09362183,0.01769650
2519.02242920,0.01770698
2520.95123657,0.01765127
2522.88004395,0.01763606
2524.80885132,0.01742793
2526.73765869,0.01737542
2528.66646606,0.01746093
2530.59527344,0.01748755
2532.52408081,0.01746825
2534.45288818,0.01747537
2536.38169556,0.01744473
2538.31050293,0.01725230
2540.23931030,0.01726025
2542.16811768,0.01729140
2544.09692505,0.01728712
2546.02573242,0.01717521
2547.95453979,0.01709228
2549.88334717,0.01719548
2551.81215454,0.01710570
2553.74096191,0.01711243
2555.66976929,0.01705249
2557.59857666,0.01696714
2559.52738403,0.01698557
2561.45619141,0.01686215
2563.38499878,0.01701006
2565.31380615,0.01702795
2567.24261353,0.01681584
2569.17142090,0.01683907
2571.10022827,0.01676796
2573.02903564,0.01676253
2574.95784302,0.01683650
2576.88665039,0.01672615
2578.81545776,0.01671156
2580.74426514,0.01661878
2582.67307251,0.01649258
2584.60187988,0.01659168
2586.53068726,0.01663688
2588.45949463,0.01653479
2590.38830200,0.01640240
2592.31710937,0.01636172
2594.24591675,0.01635913
2596.17472412,0.01638246
2598.10353149,0.01637237
2600.03233887,0.01629465
2601.96114624,0.01628625
2603.88995361,0.01628737
2605.81876099,0.01621414
2607.74756836,0.01607885
2609.67637573,0.01612355
2611.60518311,0.01617957
2613.53399048,0.01617650
2615.46279785,0.01613528
2617.39160522,0.01596393
2619.32041260,0.01597310
2621.24921997,0.01588676
2623.17802734,0.01588686
2625.10683472,0.01600324
2627.03564209,0.01590365
2628.96444946,0.01577508
2630.89325684,0.01561958
2632.82206421,0.01579199
2634.75087158,0.01577539
2636.67967895,0.01550541
2638.60848633,0.01570991
2640.53729370,0.01581793
2642.46610107,0.01561348
2644.39490845,0.01549900
2646.32371582,0.01551225
2648.25252319,0.01548878
2650.18133057,0.01546346
2652.11013794,0.01542116
2654.03894531,0.01537669
2655.96775269,0.01535500
2657.89656006,0.01530934
2659.82536743,0.01530645
2661.75417480,0.01526612
2663.68298218,0.01533588
2665.61178955,0.01528272
2667.54059692,0.01515200
2669.46940430,0.01519813
2671.39821167,0.01516109
2673.32701904,0.01510738
2675.25582642,0.01505559
2677.18463379,0.01507997
2679.11344116,0.01500878
2681.04224854,0.01496471
2682.97105591,0.01497510
2684.89986328,0.01487306
2686.82867065,0.01497271
2688.75747803,0.01484633
2690.68628540,0.01474661
2692.61509277,0.01480567
2694.54390015,0.01475780
2696.47270752,0.01480663
2698.40151489,0.01464854
2700.33032227,0.01460773
2702.25912964,0.01458872
2704.18793701,0.01460467
2706.11674438,0.01477704
2708.04555176,0.01454345
2709.97435913,0.01447353
2711.90316650,0.01451339
2713.83197388,0.01439563
2715.76078125,0.01441934
2717.68958862,0.01432755
2719.61839600,0.01428729
2721.54720337,0.01431451
2723.47601074,0.01434360
2725.40481812,0.01432953
2727.33362549,0.01422135
2729.26243286,0.01428034
2731.19124023,0.01425937
2733.12004761,0.01412753
2735.04885498,0.01402716
2736.97766235,0.01404047
2738.90646973,0.01410239
2740.83527710,0.01400719
2742.76408447,0.01401846
2744.69289185,0.01399855
2746.62169922,0.01393763
2748.55050659,0.01388076
2750.47931396,0.01386253
2752.40812134,0.01391049
2754.33692871,0.01373455
2756.26573608,0.01380433
2758.19454346,0.01386321
2760.12335083,0.01371068
2762.05215820,0.01371638
2763.98096558,0.01369611
2765.90977295,0.01369698
2767.83858032,0.01362348
2769.76738770,0.01364401
2771.69619507,0.01356901
2773.62500244,0.01347672
2775.55380981,0.01352905
2777.48261719,0.01336656
2779.41142456,0.01341204
2781.34023193,0.01338649
2783.26903931,0.01330980
2785.19784668,0.01332321
2787.12665405,0.01318242
2789.05546143,0.01323223
2790.98426880,0.01325151
2792.91307617,0.01324663
2794.84188354,0.01316326
2796.77069092,0.01305684
2798.69949829,0.01309880
2800.62830566,0.01305674
2802.55711304,0.01310927
2804.48592041,0.01306133
2806.41472778,0.01296269
2808.34353516,0.01305612
2810.27234253,0.01297019
2812.20114990,0.01284479
2814.12995728,0.01286899
2816.05876465,0.01278348
2817.98757202,0.01285122
2819.91637939,0.01293146
2821.84518677,0.01274017
2823.77399414,0.01273994
2825.70280151,0.01278491
2827.63160889,0.01275897
2829.56041626,0.01268904
2831.48922363,0.01256982
2833.41803101,0.01256144
2835.34683838,0.01244995
2837.27564575,0.01240044
2839.20445312,0.01246765
2841.13326050,0.01248508
2843.06206787,0.01240794
2844.99087524,0.01233140
2846.91968262,0.01232255
2848.84848999,0.01217035
2850.77729736,0.01215154
2852.70610474,0.01217888
2854.63491211,0.01198528
2856.56371948,0.01197041
2858.49252686,0.01205746
2860.42133423,0.01202205
2862.35014160,0.01200262
2864.27894897,0.01193545
2866.20775635,0.01194986
2868.13656372,0.01194583
2870.06537109,0.01177095
2871.99417847,0.01176997
2873.92298584,0.01175140
2875.85179321,0.01180723
2877.78060059,0.01190703
2879.70940796,0.01170870
2881.63821533,0.01164810
2883.56702270,0.01172294
2885.49583008,0.01170785
2887.42463745,0.01160817
2889.35344482,0.01156129
2891.28225220,0.01159834
2893.21105957,0.01159624
2895.13986694,0.01152642
2897.06867432,0.01144366
2898.99748169,0.01148229
2900.92628906,0.01142919
2902.85509644,0.01144349
2904.78390381,0.01143029
2906.71271118,0.01131295
2908.64151855,0.01133287
2910.57032593,0.01128180
2912.49913330,0.01127914
2914.42794067,0.01122349
2916.35674805,0.01117204
2918.28555542,0.01114011
2920.21436279,0.01112037
2922.14317017,0.01110539
2924.07197754,0.01095029
2926.00078491,0.01107192
2927.92959229,0.01111027
2929.85839966,0.01103098
2931.78720703,0.01099504
2933.71601440,0.01090917
2935.64482178,0.01101861
2937.57362915,0.01098013
2939.50243652,0.01088350
2941.43124390,0.01097476
2943.36005127,0.01102079
2945.28885864,0.01091287
2947.21766602,0.01093762
2949.14647339,0.01083531
2951.07528076,0.01064723
2953.00408813,0.01077423
2954.93289551,0.01070402
2956.86170288,0.01072933
2958.79051025,0.01077251
2960.71931763,0.01066442
2962.64812500,0.01067783
2964.57693237,0.01063892
2966.50573975,0.01067631
2968.43454712,0.01062191
2970.36335449,0.01057829
2972.29216187,0.01050059
2974.22096924,0.01053383
2976.14977661,0.01067483
2978.07858398,0.01063758
2980.00739136,0.01059841
2981.93619873,0.01042795
2983.86500610,0.01048268
2985.79381348,0.01047520
2987.72262085,0.01036331
2989.65142822,0.01039478
2991.58023560,0.01035930
2993.50904297,0.01049236
2995.43785034,0.01044512
2997.36665771,0.01037271
2999.29546509,0.01031666
3001.22427246,0.01026339
3003.15307983,0.01026995
3005.08188721,0.01016204
3007.01069458,0.01025712
3008.93950195,0.01021895
3010.86830933,0.01010211
3012.79711670,0.01008429
3014.72592407,0.01009791
3016.65473145,0.01010622
3018.58353882,0.01007203
3020.51234619,0.01009546
3022.44115356,0.01000581
3024.36996094,0.01000958
3026.29876831,0.00997312
3028.22757568,0.00990812
3030.15638306,0.00989086
3032.08519043,0.00985523
3034.01399780,0.00988001
3035.94280518,0.00980098
3037.87161255,0.00984337
3039.80041992,0.00983689
3041.72922729,0.00977472
3043.65803467,0.00965832
3045.58684204,0.00957741
3047.51564941,0.00971466
3049.44445679,0.00964207
3051.37326416,0.00961198
3053.30207153,0.00960749
3055.23087891,0.00963322
3057.15968628,0.00957043
3059.08849365,0.00932661
3061.01730103,0.00946101
3062.94610840,0.00946866
3064.87491577,0.00932950
3066.80372314,0.00938427
3068.73253052,0.00942465
3070.66133789,0.00946372
3072.59014526,0.00935891
3074.51895264,0.00933626
3076.44776001,0.00943030
3078.37656738,0.00927528
3080.30537476,0.00914433
3082.23418213,0.00923071
3084.16298950,0.00925181
3086.09179687,0.00918795
3088.02060425,0.00910358
3089.94941162,0.00911294
3091.87821899,0.00920434
3093.80702637,0.00917218
3095.73583374,0.00912102
3097.66464111,0.00909323
3099.59344849,0.00905003
3101.52225586,0.00898105
3103.45106323,0.00897406
3105.37987061,0.00905591
3107.30867798,0.00896381
3109.23748535,0.00884998
3111.16629272,0.00890745
3113.09510010,0.00883876
3115.02390747,0.00875721
3116.95271484,0.00879418
3118.88152222,0.00872548
3120.81032959,0.00877373
3122.73913696,0.00878920
3124.66794434,0.00864763
3126.59675171,0.00864908
3128.52555908,0.00868502
3130.45436645,0.00868451
3132.38317383,0.00858583
3134.31198120,0.00854416
3136.24078857,0.00854796
3138.16959595,0.00849487
3140.09840332,0.00849492
3142.02721069,0.00848215
3143.95601807,0.00843739
3145.88482544,0.00833276
3147.81363281,0.00837260
3149.74244019,0.00837694
3151.67124756,0.00835568
3153.60005493,0.00829520
3155.52886230,0.00813571
3157.45766968,0.00832875
3159.38647705,0.00825823
3161.31528442,0.00810528
3163.24409180,0.00822506
3165.17289917,0.00815892
3167.10170654,0.00812381
3169.03051392,0.00808424
3170.95932129,0.00808329
3172.88812866,0.00805462
3174.81693604,0.00806544
3176.74574341,0.00808236
3178.67455078,0.00790149
3180.60335815,0.00785478
3182.53216553,0.00795188
3184.46097290,0.00792350
3186.38978027,0.00773260
3188.31858765,0.00781319
3190.24739502,0.00787260
3192.17620239,0.00775942
3194.10500977,0.00774966
3196.03381714,0.00764662
3197.96262451,0.00766954
3199.89143188,0.00769951
3201.82023926,0.00770155
3203.74904663,0.00758808
3205.67785400,0.00760151
3207.60666138,0.00777949
3209.53546875,0.00753950
3211.46427612,0.00756702
3213.39308350,0.00763161
3215.32189087,0.00744097
3217.25069824,0.00747453
3219.17950562,0.00742239
3221.10831299,0.00740426
3223.03712036,0.00747800
3224.96592773,0.00753660
3226.89473511,0.00751724
3228.82354248,0.00739122
3230.75234985,0.00736111
3232.68115723,0.00734241
3234.60996460,0.00729130
3236.53877197,0.00730560
3238.46757935,0.00725324
3240.39638672,0.00726194
3242.32519409,0.00737824
3244.25400146,0.00727533
3246.18280884,0.00727714
3248.11161621,0.00731050
3250.04042358,0.00722973
3251.96923096,0.00731022
3253.89803833,0.00725822
3255.82684570,0.00714900
3257.75565308,0.00711996
3259.68446045,0.00714735
3261.61326782,0.00715541
3263.54207520,0.00719795
3265.47088257,0.00724339
3267.39968994,0.00710999
3269.32849731,0.00712111
3271.25730469,0.00711366
3273.18611206,0.00712684
3275.11491943,0.00710223
3277.04372681,0.00698769
3278.97253418,0.00713378
3280.90134155,0.00705628
3282.83014893,0.00696320
3284.75895630,0.00698823
3286.68776367,0.00691130
3288.61657104,0.00701500
3290.54537842,0.00705340
3292.47418579,0.00699922
3294.40299316,0.00697073
3296.33180054,0.00693033
3298.26060791,0.00690348
3300.18941528,0.00691109
3302.11822266,0.00690663
3304.04703003,0.00687584
3305.97583740,0.00684856
3307.90464478,0.00672643
3309.83345215,0.00678253
3311.76225952,0.00685987
3313.69106689,0.00680555
3315.61987427,0.00691358
3317.54868164,0.00685140
3319.47748901,0.00674747
3321.40629639,0.00678375
3323.33510376,0.00673631
3325.26391113,0.00671030
3327.19271851,0.00671512
3329.12152588,0.00683652
3331.05033325,0.00678952
3332.97914062,0.00665508
3334.90794800,0.00675331
3336.83675537,0.00662733
3338.76556274,0.00660186
3340.69437012,0.00669823
3342.62317749,0.00654179
3344.55198486,0.00654441
3346.48079224,0.00660279
3348.40959961,0.00659006
3350.33840698,0.00653292
3352.26721436,0.00652674
3354.19602173,0.00657328
3356.12482910,0.00643180
3358.05363647,0.00640631
3359.98244385,0.00645290
3361.91125122,0.00641987
3363.84005859,0.00648240
3365.76886597,0.00649237
3367.69767334,0.00643331
3369.62648071,0.00639212
3371.55528809,0.00637016
3373.48409546,0.00638529
3375.41290283,0.00637245
3377.34171020,0.00637700
3379.27051758,0.00632993
3381.19932495,0.00624333
3383.12813232,0.00635232
3385.05693970,0.00628462
3386.98574707,0.00615783
3388.91455444,0.00631138
3390.84336182,0.00631068
3392.77216919,0.00624141
3394.70097656,0.00621745
3396.62978394,0.00623793
3398.55859131,0.00618761
3400.48739868,0.00607782
3402.41620605,0.00615226
3404.34501343,0.00612912
3406.27382080,0.00616506
3408.20262817,0.00616830
3410.13143555,0.00604691
3412.06024292,0.00599631
3413.98905029,0.00597721
3415.91785767,0.00611967
3417.84666504,0.00605090
3419.77547241,0.00593389
3421.70427979,0.00597326
3423.63308716,0.00595437
3425.56189453,0.00594790
3427.49070190,0.00594891
3429.41950928,0.00600491
3431.34831665,0.00592651
3433.27712402,0.00593799
3435.20593140,0.00592936
3437.13473877,0.00585316
3439.06354614,0.00595052
3440.99235352,0.00579455
3442.92116089,0.00585785
3444.84996826,0.00593562
3446.77877563,0.00569783
3448.70758301,0.00581082
3450.63639038,0.00586826
3452.56519775,0.00578897
3454.49400513,0.00581552
3456.42281250,0.00576352
3458.35161987,0.00573791
3460.28042725,0.00574652
3462.20923462,0.00570973
3464.13804199,0.00567410
3466.06684937,0.00572347
3467.99565674,0.00568553
3469.92446411,0.00560842
3471.85327148,0.00564428
3473.78207886,0.00556406
3475.71088623,0.00559546
3477.63969360,0.00574894
3479.56850098,0.00567392
3481.49730835,0.00562298
3483.42611572,0.00563960
3485.35492310,0.00562281
3487.28373047,0.00559459
3489.21253784,0.00560391
3491.14134521,0.00566778
3493.07015259,0.00558504
3494.99895996,0.00556601
3496.92776733,0.00557251
3498.85657471,0.00551504
3500.78538208,0.00547409
3502.71418945,0.00531306
3504.64299683,0.00545650
3506.57180420,0.00562227
3508.50061157,0.00544170
3510.42941895,0.00546444
3512.35822632,0.00550320
3514.28703369,0.00545993
3516.21584106,0.00555876
3518.14464844,0.00552071
3520.07345581,0.00546425
3522.00226318,0.00543450
3523.93107056,0.00525791
3525.85987793,0.00527816
3527.78868530,0.00533921
3529.71749268,0.00532170
3531.64630005,0.00546750
3533.57510742,0.00542322
3535.50391479,0.00529179
3537.43272217,0.00538807
3539.36152954,0.00542324
3541.29033691,0.00532566
3543.21914429,0.00532122
3545.14795166,0.00521623
3547.07675903,0.00520795
3549.00556641,0.00547295
3550.93437378,0.00534357
3552.86318115,0.00520451
3554.79198853,0.00527522
3556.72079590,0.00528508
3558.64960327,0.00536556
3560.57841064,0.00520294
3562.50721802,0.00520499
3564.43602539,0.00523230
3566.36483276,0.00483860
3568.29364014,0.00477973
3570.22244751,0.00519917
3572.15125488,0.00537109
3574.08006226,0.00521557
3576.00886963,0.00523612
3577.93767700,0.00527671
3579.86648437,0.00525608
3581.79529175,0.00523817
3583.72409912,0.00531892
3585.65290649,0.00515664
3587.58171387,0.00457791
3589.51052124,0.00484740
3591.43932861,0.00531039
3593.36813599,0.00501249
3595.29694336,0.00491405
3597.22575073,0.00509589
3599.15455811,0.00509268
3601.08336548,0.00507110
3603.01217285,0.00526718
3604.94098022,0.00528029
3606.86978760,0.00500904
3608.79859497,0.00466034
3610.72740234,0.00478637
3612.65620972,0.00489702
3614.58501709,0.00471698
3616.51382446,0.00509229
3618.44263184,0.00466379
3620.37143921,0.00460355
3622.30024658,0.00519282
3624.22905395,0.00495702
3626.15786133,0.00523022
3628.08666870,0.00436955
3630.01547607,0.00389134
3631.94428345,0.00504621
3633.87309082,0.00499438
3635.80189819,0.00498352
3637.73070557,0.00509852
3639.65951294,0.00500165
3641.58832031,0.00505531
3643.51712769,0.00504919
3645.44593506,0.00506236
3647.37474243,0.00451144
3649.30354980,0.00403216
3651.23235718,0.00413206
3653.16116455,0.00496143
3655.08997192,0.00481878
3657.01877930,0.00435988
3658.94758667,0.00509331
3660.87639404,0.00498554
3662.80520142,0.00503315
3664.73400879,0.00504363
3666.66281616,0.00497555
3668.59162354,0.00474616
3670.52043091,0.00384099
3672.44923828,0.00470153
3674.37804565,0.00438531
3676.30685303,0.00364230
3678.23566040,0.00475815
3680.16446777,0.00474621
3682.09327515,0.00478087
3684.02208252,0.00496498
3685.95088989,0.00477719
3687.87969727,0.00433173
3689.80850464,0.00393005
3691.73731201,0.00448120
3693.66611938,0.00466149
3695.59492676,0.00473517
3697.52373413,0.00475009
3699.45254150,0.00474966
3701.38134888,0.00458026
3703.31015625,0.00445586
3705.23896362,0.00494319
3707.16777100,0.00465691
3709.09657837,0.00456893
3711.02538574,0.00421307
3712.95419312,0.00395601
3714.88300049,0.00468141
3716.81180786,0.00455992
3718.74061523,0.00461720
3720.66942261,0.00452832
3722.59822998,0.00441623
3724.52703735,0.00454663
3726.45584473,0.00417734
3728.38465210,0.00453862
3730.31345947,0.00452895
3732.24226685,0.00405797
3734.17107422,0.00391455
3736.09988159,0.00384179
3738.02868896,0.00392232
3739.95749634,0.00433203
3741.88630371,0.00453609
3743.81511108,0.00332473
3745.74391846,0.00325609
3747.67272583,0.00423595
3749.60153320,0.00359770
3751.53034058,0.00335268
3753.45914795,0.00390423
3755.38795532,0.00427436
3757.31676270,0.00440056
3759.24557007,0.00398679
3761.17437744,0.00418119
3763.10318481,0.00454359
3765.03199219,0.00422594
3766.96079956,0.00428701
3768.88960693,0.00415535
3770.81841431,0.00402357
3772.74722168,0.00442076
3774.67602905,0.00441526
3776.60483643,0.00444277
3778.53364380,0.00419437
3780.46245117,0.00407356
3782.39125854,0.00435052
3784.32006592,0.00425995
3786.24887329,0.00428188
3788.17768066,0.00422248
3790.10648804,0.00425101
3792.03529541,0.00427366
3793.96410278,0.00435091
3795.89291016,0.00403080
3797.82171753,0.00391345
3799.75052490,0.00413017
3801.67933228,0.00321349
3803.60813965,0.00398970
3805.53694702,0.00427614
3807.46575439,0.00333706
3809.39456177,0.00425658
3811.32336914,0.00424587
3813.25217651,0.00423517
3815.18098389,0.00368479
3817.10979126,0.00337179
3819.03859863,0.00424334
3820.96740601,0.00326060
3822.89621338,0.00364367
3824.82502075,0.00425190
3826.75382812,0.00373914
3828.68263550,0.00413008
3830.61144287,0.00396862
3832.54025024,0.00386662
3834.46905762,0.00390880
3836.39786499,0.00360678
3838.32667236,0.00331089
3840.25547974,0.00362659
3842.18428711,0.00384294
3844.11309448,0.00370203
3846.04190186,0.00407092
3847.97070923,0.00390702
3849.89951660,0.00391946
3851.82832397,0.00350784
3853.75713135,0.00253812
3855.68593872,0.00313258
3857.61474609,0.00387101
3859.54355347,0.00373680
3861.47236084,0.00379433
3863.40116821,0.00366873
3865.32997559,0.00336466
3867.25878296,0.00373636
3869.18759033,0.00336762
3871.11639770,0.00317050
3873.04520508,0.00378524
3874.97401245,0.00340753
3876.90281982,0.00380469
3878.83162720,0.00384061
3880.76043457,0.00320950
3882.68924194,0.00383716
3884.61804932,0.00354650
3886.54685669,0.00325083
3888.47566406,0.00384310
3890.40447144,0.00356971
3892.33327881,0.00328269
3894.26208618,0.00368906
3896.19089355,0.00382505
3898.11970093,0.00354063
3900.04850830,0.00337900
3901.97731567,0.00330638
3903.90612305,0.00325410
3905.83493042,0.00337229
3907.76373779,0.00366675
3909.69254517,0.00365521
3911.62135254,0.00359164
3913.55015991,0.00374422
3915.47896728,0.00359120
3917.40777466,0.00340443
3919.33658203,0.00339152
3921.26538940,0.00353383
3923.19419678,0.00350480
3925.12300415,0.00335897
3927.05181152,0.00355977
3928.98061890,0.00366315
3930.90942627,0.00345271
3932.83823364,0.00332100
3934.76704102,0.00349683
3936.69584839,0.00349619
3938.62465576,0.00348629
3940.55346313,0.00351472
3942.48227051,0.00329096
3944.41107788,0.00343216
3946.33988525,0.00349319
3948.26869263,0.00336266
3950.19750000,0.00342414
3952.12630737,0.00344419
3954.05511475,0.00343203
3955.98392212,0.00333221
3957.91272949,0.00335167
3959.84153687,0.00343324
3961.77034424,0.00341188
3963.69915161,0.00332269
3965.62795898,0.00330878
3967.55676636,0.00336817
3969.48557373,0.00331818
3971.41438110,0.00335161
3973.34318848,0.00333727
3975.27199585,0.00333137
3977.20080322,0.00334145
3979.12961060,0.00324189
3981.05841797,0.00331486
3982.98722534,0.00338371
3984.91603271,0.00332891
3986.84484009,0.00325027
3988.77364746,0.00320991
3990.70245483,0.00325226
3992.63126221,0.00329378
3994.56006958,0.00329531
3996.48887695,0.00327245
3998.41768433,0.00330699
4000.34649170,0.00327467
4002.27529907,0.00316878
4004.20410645,0.00315910
4006.13291382,0.00315867
4008.06172119,0.00315681
4009.99052856,0.00315087
4011.91933594,0.00309899
4013.84814331,0.00309385
4015.77695068,0.00308793
4017.70575806,0.00312273
4019.63456543,0.00318013
4021.56337280,0.00314333
4023.49218018,0.00309295
4025.42098755,0.00301137
4027.34979492,0.00309614
4029.27860229,0.00320043
4031.20740967,0.00306812
4033.13621704,0.00305777
4035.06502441,0.00307546
4036.99383179,0.00303419
4038.92263916,0.00304419
4040.85144653,0.00299931
4042.78025391,0.00298421
4044.70906128,0.00301279
4046.63786865,0.00300671
4048.56667603,0.00300289
4050.49548340,0.00298900
4052.42429077,0.00294835
4054.35309814,0.00301864
4056.28190552,0.00305444
4058.21071289,0.00298934
4060.13952026,0.00295956
4062.06832764,0.00295326
4063.99713501,0.00300504
4065.92594238,0.00301893
4067.85474976,0.00304608
4069.78355713,0.00299975
4071.71236450,0.00298643
4073.64117187,0.00302726
4075.56997925,0.00285962
4077.49878662,0.00289931
4079.42759399,0.00291323
4081.35640137,0.00285032
4083.28520874,0.00293258
4085.21401611,0.00282611
4087.14282349,0.00290378
4089.07163086,0.00300104
4091.00043823,0.00289443
4092.92924561,0.00285362
4094.85805298,0.00282151
4096.78686035,0.00281252
4098.71566772,0.00275835
4100.64447510,0.00283238
4102.57328247,0.00286293
4104.50208984,0.00271707
4106.43089722,0.00278466
4108.35970459,0.00280766
4110.28851196,0.00276496
4112.21731934,0.00282328
4114.14612671,0.00273310
4116.07493408,0.00274457
4118.00374145,0.00283880
4119.93254883,0.00273517
4121.86135620,0.00271701
4123.79016357,0.00276907
4125.71897095,0.00277627
4127.64777832,0.00274514
4129.57658569,0.00267452
4131.50539307,0.00269854
4133.43420044,0.00267130
4135.36300781,0.00264687
4137.29181519,0.00266152
4139.22062256,0.00267875
4141.14942993,0.00268129
4143.07823730,0.00257313
4145.00704468,0.00267996
4146.93585205,0.00267080
4148.86465942,0.00252542
4150.79346680,0.00264618
4152.72227417,0.00260313
4154.65108154,0.00260493
4156.57988892,0.00264214
4158.50869629,0.00258079
4160.43750366,0.00261611
4162.36631103,0.00255165
4164.29511841,0.00258258
4166.22392578,0.00254581
4168.15273315,0.00252723
4170.08154053,0.00257916
4172.01034790,0.00245511
4173.93915527,0.00252741
4175.86796265,0.00253142
4177.79677002,0.00248479
4179.72557739,0.00247121
4181.65438477,0.00243311
4183.58319214,0.00254524
4185.51199951,0.00249383
4187.44080688,0.00253619
4189.36961426,0.00252975
4191.29842163,0.00245516
4193.22722900,0.00254751
4195.15603638,0.00246604
4197.08484375,0.00248738
4199.01365112,0.00249257
4200.94245850,0.00250921
4202.87126587,0.00253819
4204.80007324,0.00236687
4206.72888062,0.00242088
4208.65768799,0.00246597
4210.58649536,0.00241687
4212.51530273,0.00240709
4214.44411011,0.00240376
4216.37291748,0.00244564
4218.30172485,0.00236642
4220.23053223,0.00233790
4222.15933960,0.00236453
4224.08814697,0.00230915
4226.01695435,0.00230732
4227.94576172,0.00236250
4229.87456909,0.00232907
4231.80337646,0.00234364
4233.73218384,0.00239205
4235.66099121,0.00229164
4237.58979858,0.00229098
4239.51860596,0.00226108
4241.44741333,0.00222748
4243.37622070,0.00232001
4245.30502808,0.00231446
4247.23383545,0.00236717
4249.16264282,0.00231670
4251.09145020,0.00225424
4253.02025757,0.00232831
4254.94906494,0.00223461
4256.87787231,0.00226153
4258.80667969,0.00229761
4260.73548706,0.00215481
4262.66429443,0.00217667
4264.59310181,0.00220788
4266.52190918,0.00219221
4268.45071655,0.00221024
4270.37952393,0.00218837
4272.30833130,0.00217263
4274.23713867,0.00212756
4276.16594604,0.00214153
4278.09475342,0.00220536
4280.02356079,0.00219749
4281.95236816,0.00218279
4283.88117554,0.00218367
4285.80998291,0.00218403
4287.73879028,0.00217605
4289.66759766,0.00214534
4291.59640503,0.00213953
4293.52521240,0.00218637
4295.45401978,0.00212593
4297.38282715,0.00209272
4299.31163452,0.00214750
4301.24044189,0.00209829
4303.16924927,0.00214027
4305.09805664,0.00212508
4307.02686401,0.00209335
4308.95567139,0.00214880
4310.88447876,0.00204986
4312.81328613,0.00204144
4314.74209351,0.00207365
4316.67090088,0.00204327
4318.59970825,0.00199811
4320.52851562,0.00201157
4322.45732300,0.00209298
4324.38613037,0.00204907
4326.31493774,0.00205012
4328.24374512,0.00206163
4330.17255249,0.00206974
4332.10135986,0.00200737
4334.03016724,0.00192024
4335.95897461,0.00202937
4337.88778198,0.00202486
4339.81658936,0.00197926
4341.74539673,0.00197182
4343.67420410,0.00193364
4345.60301147,0.00194447
4347.53181885,0.00192406
4349.46062622,0.00186039
4351.38943359,0.00189973
4353.31824097,0.00202568
4355.24704834,0.00195148
4357.17585571,0.00194525
4359.10466309,0.00195317
4361.03347046,0.00187236
4362.96227783,0.00197344
4364.89108520,0.00197075
4366.81989258,0.00194111
4368.74869995,0.00191365
4370.67750732,0.00192822
4372.60631470,0.00197220
4374.53512207,0.00188155
4376.46392944,0.00187035
4378.39273682,0.00184925
4380.32154419,0.00188215
4382.25035156,0.00186823
4384.17915894,0.00182713
4386.10796631,0.00185441
4388.03677368,0.00183876
4389.96558105,0.00192435
4391.89438843,0.00183697
4393.82319580,0.00176138
4395.75200317,0.00184177
4397.68081055,0.00185575
4399.60961792,0.00180079
4401.53842529,0.00175066
4403.46723267,0.00190206
4405.39604004,0.00187072
4407.32484741,0.00177551
4409.25365478,0.00175612
4411.18246216,0.00168456
4413.11126953,0.00178401
4415.04007690,0.00173340
4416.96888428,0.00172700
4418.89769165,0.00180357
4420.82649902,0.00176443
4422.75530640,0.00186630
4424.68411377,0.00184634
4426.61292114,0.00176544
4428.54172852,0.00176618
4430.47053589,0.00171251
4432.39934326,0.00174910
4434.32815063,0.00175409
4436.25695801,0.00167926
4438.18576538,0.00179165
4440.11457275,0.00175715
4442.04338013,0.00155957
4443.97218750,0.00165105
4445.90099487,0.00167426
4447.82980225,0.00165762
4449.75860962,0.00167154
4451.68741699,0.00160136
4453.61622437,0.00173150
4455.54503174,0.00175928
4457.47383911,0.00167359
4459.40264648,0.00162220
4461.33145386,0.00164175
4463.26026123,0.00173536
4465.18906860,0.00168402
4467.11787598,0.00169671
4469.04668335,0.00162935
4470.97549072,0.00157118
4472.90429810,0.00164144
4474.83310547,0.00160081
4476.76191284,0.00165586
4478.69072021,0.00164534
4480.61952759,0.00162068
4482.54833496,0.00161815
4484.47714233,0.00154467
4486.40594971,0.00159142
4488.33475708,0.00156832
4490.26356445,0.00158181
4492.19237183,0.00158409
4494.12117920,0.00152794
4496.04998657,0.00164374
4497.97879395,0.00166277
4499.90760132,0.00156576
4501.83640869,0.00152532
4503.76521606,0.00154590
4505.69402344,0.00157736
4507.62283081,0.00152370
4509.55163818,0.00140524
4511.48044556,0.00141429
4513.40925293,0.00156486
4515.33806030,0.00154407
4517.26686768,0.00152283
4519.19567505,0.00156080
4521.12448242,0.00145536
4523.05328979,0.00145293
4524.98209717,0.00145050
4526.91090454,0.00143556
4528.83971191,0.00149701
4530.76851929,0.00140008
4532.69732666,0.00139471
4534.62613403,0.00148577
4536.55494141,0.00144735
4538.48374878,0.00144095
4540.41255615,0.00145544
4542.34136353,0.00151259
4544.27017090,0.00150111
4546.19897827,0.00136801
4548.12778564,0.00139762
4550.05659302,0.00143402
4551.98540039,0.00141875
4553.91420776,0.00150405
4555.84301514,0.00147165
4557.77182251,0.00135554
4559.70062988,0.00138981
4561.62943726,0.00144179
4563.55824463,0.00139780
4565.48705200,0.00140194
4567.41585937,0.00141273
4569.34466675,0.00138610
4571.27347412,0.00142530
4573.20228149,0.00145457
4575.13108887,0.00141055
4577.05989624,0.00138355
4578.98870361,0.00140441
4580.91751099,0.00140678
4582.84631836,0.00138458
4584.77512573,0.00131778
4586.70393311,0.00133699
4588.63274048,0.00143203
4590.56154785,0.00136945
4592.49035522,0.00135153
4594.41916260,0.00134401
4596.34796997,0.00131916
4598.27677734,0.00138647
4600.20558472,0.00131165
4602.13439209,0.00129251
4604.06319946,0.00127503
4605.99200684,0.00124229
4607.92081421,0.00138736
4609.84962158,0.00132998
4611.77842895,0.00124867
4613.70723633,0.00131980
4615.63604370,0.00131148
4617.56485107,0.00130424
4619.49365845,0.00128208
4621.42246582,0.00125189
4623.35127319,0.00127962
4625.28008057,0.00131656
4627.20888794,0.00128812
4629.13769531,0.00128083
4631.06650269,0.00130641
4632.99531006,0.00123440
4634.92411743,0.00124354
4636.85292480,0.00130057
4638.78173218,0.00124276
4640.71053955,0.00126528
4642.63934692,0.00128641
4644.56815430,0.00117146
4646.49696167,0.00119275
4648.42576904,0.00124653
4650.35457642,0.00119349
4652.28338379,0.00126423
4654.21219116,0.00123528
4656.14099853,0.00113345
4658.06980591,0.00119856
4659.99861328,0.00123843
4661.92742065,0.00126947
4663.85622803,0.00121737
4665.78503540,0.00114329
4667.71384277,0.00124498
4669.64265015,0.00129217
4671.57145752,0.00121303
4673.50026489,0.00117590
4675.42907227,0.00125095
4677.35787964,0.00124752
4679.28668701,0.00116503
4681.21549438,0.00116881
4683.14430176,0.00113025
4685.07310913,0.00114023
4687.00191650,0.00122526
4688.93072388,0.00122010
4690.85953125,0.00113141
4692.78833862,0.00107248
4694.71714600,0.00115154
4696.64595337,0.00116685
4698.57476074,0.00111836
4700.50356812,0.00112461
4702.43237549,0.00112779
4704.36118286,0.00116902
4706.28999023,0.00113227
4708.21879761,0.00110045
4710.14760498,0.00113027
4712.07641235,0.00117006
4714.00521973,0.00123599
4715.93402710,0.00114949
4717.86283447,0.00108008
4719.79164185,0.00107373
4721.72044922,0.00112512
4723.64925659,0.00117432
4725.57806396,0.00106154
4727.50687134,0.00114341
4729.43567871,0.00112237
4731.36448608,0.00099607
4733.29329346,0.00107794
4735.22210083,0.00103727
4737.15090820,0.00105840
4739.07971558,0.00107666
4741.00852295,0.00108241
4742.93733032,0.00111033
4744.86613770,0.00104949
4746.79494507,0.00108318
4748.72375244,0.00098393
4750.65255981,0.00102674
4752.58136719,0.00115552
4754.51017456,0.00101960
4756.43898193,0.00098663
4758.36778931,0.00103921
4760.29659668,0.00107369
4762.22540405,0.00106088
4764.15421143,0.00111299
4766.08301880,0.00115150
4768.01182617,0.00104845
4769.94063354,0.00106026
4771.86944092,0.00106085
4773.79824829,0.00105038
4775.72705566,0.00106694
4777.65586304,0.00099391
4779.58467041,0.00093615
4781.51347778,0.00100143
4783.44228516,0.00104326
4785.37109253,0.00095346
4787.29989990,0.00098406
4789.22870728,0.00103238
4791.15751465,0.00102276
4793.08632202,0.00100526
4795.01512939,0.00096190
4796.94393677,0.00101519
4798.87274414,0.00100709
4800.80155151,0.00096910
4802.73035889,0.00097243
4804.65916626,0.00096385
4806.58797363,0.00095027
4808.51678101,0.00092716
4810.44558838,0.00093801
4812.37439575,0.00092740
4814.30320312,0.00094468
4816.23201050,0.00095992
4818.16081787,0.00097296
4820.08962524,0.00097206
4822.01843262,0.00095727
4823.94723999,0.00103509
4825.87604736,0.00100744
4827.80485474,0.00094269
4829.73366211,0.00096415
4831.66246948,0.00096449
4833.59127686,0.00093740
4835.52008423,0.00093229
4837.44889160,0.00095919
4839.37769897,0.00090228
4841.30650635,0.00090030
4843.23531372,0.00093832
4845.16412109,0.00089606
4847.09292847,0.00089306
4849.02173584,0.00088989
4850.95054321,0.00090451
4852.87935059,0.00090728
4854.80815796,0.00085714
4856.73696533,0.00084077
4858.66577270,0.00087814
4860.59458008,0.00089286
4862.52338745,0.00085006
4864.45219482,0.00085671
4866.38100220,0.00087278
4868.30980957,0.00089172
4870.23861694,0.00088893
4872.16742432,0.00088511
4874.09623169,0.00094719
4876.02503906,0.00085149
4877.95384644,0.00081931
4879.88265381,0.00087952
4881.81146118,0.00080175
4883.74026855,0.00087547
4885.66907593,0.00089550
4887.59788330,0.00088354
4889.52669067,0.00093676
4891.45549805,0.00079046
4893.38430542,0.00083243
4895.31311279,0.00087367
4897.24192017,0.00082257
4899.17072754,0.00095178
4901.09953491,0.00083587
4903.02834228,0.00076299
4904.95714966,0.00088100
4906.88595703,0.00084048
4908.81476440,0.00083476
4910.74357178,0.00083306
4912.67237915,0.00080000
4914.60118652,0.00079676
4916.52999390,0.00079006
4918.45880127,0.00079750
4920.38760864,0.00076336
4922.31641602,0.00077655
4924.24522339,0.00080093
4926.17403076,0.00080574
4928.10283813,0.00085233
4930.03164551,0.00081924
4931.96045288,0.00081589
4933.88926025,0.00080763
4935.81806763,0.00076746
4937.74687500,0.00083236
4939.67568237,0.00079253
4941.60448975,0.00073031
4943.53329712,0.00077909
4945.46210449,0.00086371
4947.39091187,0.00086855
4949.31971924,0.00077222
4951.24852661,0.00079864
4953.17733398,0.00080363
4955.10614136,0.00077868
4957.03494873,0.00078481
4958.96375610,0.00078044
4960.89256348,0.00082292
4962.82137085,0.00075452
4964.75017822,0.00070352
4966.67898560,0.00072502
4968.60779297,0.00076555
4970.53660034,0.00078718
4972.46540771,0.00076683
4974.39421509,0.00075959
4976.32302246,0.00068165
4978.25182983,0.00073287
4980.18063721,0.00078700
4982.10944458,0.00072246
4984.03825195,0.00071431
4985.96705933,0.00072559
4987.89586670,0.00074418
4989.82467407,0.00071643
4991.75348145,0.00070949
4993.68228882,0.00065962
4995.61109619,0.00066921
4997.53990356,0.00072251
4999.46871094,0.00065986
5001.39751831,0.00068902
5003.32632568,0.00072088
5005.25513306,0.00070876
5007.18394043,0.00065611
5009.11274780,0.00072997
5011.04155518,0.00079282
5012.97036255,0.00063915
5014.89916992,0.00066126
5016.82797729,0.00068872
5018.75678467,0.00069745
5020.68559204,0.00070424
5022.61439941,0.00066458
5024.54320679,0.00071168
5026.47201416,0.00065523
5028.40082153,0.00065964
5030.32962891,0.00069751
5032.25843628,0.00070178
5034.18724365,0.00069898
5036.11605103,0.00065689
5038.04485840,0.00064274
5039.97366577,0.00061354
5041.90247314,0.00065830
5043.83128052,0.00067956
5045.76008789,0.00072194
5047.68889526,0.00065279
5049.61770264,0.00054741
5051.54651001,0.00068111
5053.47531738,0.00061711
5055.40412476,0.00057618
5057.33293213,0.00066950
5059.26173950,0.00060552
5061.19054687,0.00061454
5063.11935425,0.00063916
5065.04816162,0.00063216
5066.97696899,0.00066677
5068.90577637,0.00068812
5070.83458374,0.00067302
5072.76339111,0.00063876
5074.69219849,0.00063476
5076.62100586,0.00066760
5078.54981323,0.00063149
5080.47862061,0.00062103
5082.40742798,0.00069828
5084.33623535,0.00058610
5086.26504272,0.00056462
5088.19385010,0.00069617
5090.12265747,0.00063386
5092.05146484,0.00063462
5093.98027222,0.00067564
5095.90907959,0.00059525
5097.83788696,0.00055315
5099.76669434,0.00059781
5101.69550171,0.00060019
5103.62430908,0.00060236
5105.55311645,0.00066770
5107.48192383,0.00053625
5109.41073120,0.00050747
5111.33953857,0.00064670
5113.26834595,0.00056905
5115.19715332,0.00060371
5117.12596069,0.00064383
5119.05476807,0.00054358
5120.98357544,0.00058631
5122.91238281,0.00060230
5124.84119019,0.00062278
5126.76999756,0.00064150
5128.69880493,0.00055816
5130.62761230,0.00055150
5132.55641968,0.00054734
5134.48522705,0.00056209
5136.41403442,0.00060939
5138.34284180,0.00053990
5140.27164917,0.00058069
5142.20045654,0.00064982
5144.12926392,0.00054111
5146.05807129,0.00054142
5147.98687866,0.00059694
5149.91568603,0.00059988
5151.84449341,0.00054935
5153.77330078,0.00049374
5155.70210815,0.00057240
5157.63091553,0.00053754
5159.55972290,0.00052505
5161.48853027,0.00055191
5163.41733765,0.00047468
5165.34614502,0.00054770
5167.27495239,0.00055726
5169.20375977,0.00051451
5171.13256714,0.00053124
5173.06137451,0.00053668
5174.99018188,0.00060016
5176.91898926,0.00054930
5178.84779663,0.00045008
5180.77660400,0.00047445
5182.70541138,0.00053480
5184.63421875,0.00051571
5186.56302612,0.00047129
5188.49183350,0.00046083
5190.42064087,0.00048487
5192.34944824,0.00050587
5194.27825562,0.00049247
5196.20706299,0.00051985
5198.13587036,0.00051408
5200.06467773,0.00054847
5201.99348511,0.00050747
5203.92229248,0.00044226
5205.85109985,0.00057695
5207.77990723,0.00054335
5209.70871460,0.00049506
5211.63752197,0.00055759
5213.56632935,0.00051476
5215.49513672,0.00048189
5217.42394409,0.00048359
5219.35275146,0.00048241
5221.28155884,0.00048812
5223.21036621,0.00052590
5225.13917358,0.00047319
5227.06798096,0.00048213
5228.99678833,0.00050056
5230.92559570,0.00041414
5232.85440308,0.00047061
5234.78321045,0.00047565
5236.71201782,0.00047699
5238.64082520,0.00049339
5240.56963257,0.00044409
5242.49843994,0.00045574
5244.42724731,0.00047600
5246.35605469,0.00049284
5248.28486206,0.00041214
5250.21366943,0.00041295
5252.14247681,0.00047614
5254.07128418,0.00047177
5256.00009155,0.00052795
5257.92889893,0.00051929
5259.85770630,0.00045397
5261.78651367,0.00041497
5263.71532104,0.00046623
5265.64412842,0.00047433
5267.57293579,0.00036455
5269.50174316,0.00040368
5271.43055054,0.00049414
5273.35935791,0.00046722
5275.28816528,0.00044440
5277.21697266,0.00045236
5279.14578003,0.00044436
5281.07458740,0.00043656
5283.00339478,0.00040531
5284.93220215,0.00042280
5286.86100952,0.00047988
5288.78981689,0.00045202
5290.71862427,0.00046191
5292.64743164,0.00051887
5294.57623901,0.00042893
5296.50504639,0.00037361
5298.43385376,0.00045681
5300.36266113,0.00036708
5302.29146851,0.00034349
5304.22027588,0.00048687
5306.14908325,0.00047697
5308.07789062,0.00040449
5310.00669800,0.00038219
5311.93550537,0.00047490
5313.86431274,0.00043680
5315.79312012,0.00032862
5317.72192749,0.00038204
5319.65073486,0.00040215
5321.57954224,0.00041343
5323.50834961,0.00038153
5325.43715698,0.00039473
5327.36596436,0.00038910
5329.29477173,0.00037110
5331.22357910,0.00046481
5333.15238647,0.00043991
5335.08119385,0.00041688
5337.01000122,0.00039592
5338.93880859,0.00035450
5340.86761597,0.00038891
5342.79642334,0.00044912
5344.72523071,0.00042733
5346.65403809,0.00035855
5348.58284546,0.00043702
5350.51165283,0.00047242
5352.44046020,0.00041634
5354.36926758,0.00035269
5356.29807495,0.00040769
5358.22688232,0.00046139
5360.15568970,0.00037153
5362.08449707,0.00039933
5364.01330444,0.00039142
5365.94211182,0.00035910
5367.87091919,0.00034828
5369.79972656,0.00036693
5371.72853394,0.00041756
5373.65734131,0.00038239
5375.58614868,0.00039173
5377.51495605,0.00035021
5379.44376343,0.00034209
5381.37257080,0.00034018
5383.30137817,0.00034075
5385.23018555,0.00036261
5387.15899292,0.00032305
5389.08780029,0.00044526
5391.01660767,0.00043347
5392.94541504,0.00031757
5394.87422241,0.00036921
5396.80302978,0.00039158
5398.73183716,0.00038293
5400.66064453,0.00036794
5402.58945190,0.00031626
5404.51825928,0.00030425
5406.44706665,0.00033855
5408.37587402,0.00034990
5410.30468140,0.00036685
5412.23348877,0.00030357
5414.16229614,0.00032626
5416.09110352,0.00035742
5418.01991089,0.00026262
5419.94871826,0.00035996
5421.87752563,0.00037352
5423.80633301,0.00033953
5425.73514038,0.00032917
5427.66394775,0.00025628
5429.59275513,0.00030172
5431.52156250,0.00030410
5433.45036987,0.00037375
5435.37917725,0.00036541
5437.30798462,0.00032040
5439.23679199,0.00037294
5441.16559936,0.00028574
5443.09440674,0.00032225
5445.02321411,0.00037917
5446.95202148,0.00032399
5448.88082886,0.00030699
5450.80963623,0.00029817
5452.73844360,0.00035712
5454.66725098,0.00037433
5456.59605835,0.00034811
5458.52486572,0.00038222
5460.45367310,0.00035269
5462.38248047,0.00033771
5464.31128784,0.00035282
5466.24009521,0.00029176
5468.16890259,0.00035832
5470.09770996,0.00036951
5472.02651733,0.00024774
5473.95532471,0.00028425
5475.88413208,0.00031259
5477.81293945,0.00029377
5479.74174683,0.00027983
5481.67055420,0.00027891
5483.59936157,0.00031687
5485.52816895,0.00028186
5487.45697632,0.00026695
5489.38578369,0.00028280
5491.31459106,0.00027819
5493.24339844,0.00030359
5495.17220581,0.00028437
5497.10101318,0.00031961
5499.02982056,0.00038489
5500.95862793,0.00032264
5502.88743530,0.00035012
5504.81624268,0.00033636
5506.74505005,0.00028124
5508.67385742,0.00032960
5510.60266479,0.00026502
5512.53147217,0.00031408
5514.46027954,0.00036573
5516.38908691,0.00031256
5518.31789429,0.00025701
5520.24670166,0.00024355
5522.17550903,0.00038248
5524.10431641,0.00029696
5526.03312378,0.00027759
5527.96193115,0.00036738
5529.89073853,0.00024277
5531.81954590,0.00027515
5533.74835327,0.00034049
5535.67716064,0.00028637
5537.60596802,0.00026734
5539.53477539,0.00030086
5541.46358276,0.00034426
5543.39239014,0.00035328
5545.32119751,0.00027758
5547.25000488,0.00027501
5549.17881226,0.00031999
5551.10761963,0.00027310
5553.03642700,0.00033922
5554.96523437,0.00030879
5556.89404175,0.00027919
5558.82284912,0.00032801
5560.75165649,0.00026810
5562.68046387,0.00027080
5564.60927124,0.00030735
5566.53807861,0.00033904
5568.46688599,0.00025208
5570.39569336,0.00028231
5572.32450073,0.00029475
5574.25330811,0.00017728
5576.18211548,0.00025078
5578.11092285,0.00025012
5580.03973022,0.00028312
5581.96853760,0.00024405
5583.89734497,0.00020220
5585.82615234,0.00025777
5587.75495972,0.00021580
5589.68376709,0.00026749
5591.61257446,0.00019916
5593.54138184,0.00023130
5595.47018921,0.00032102
5597.39899658,0.00025440
5599.32780395,0.00028716
5601.25661133,0.00028777
5603.18541870,0.00025993
5605.11422607,0.00028681
5607.04303345,0.00030919
5608.97184082,0.00019362
5610.90064819,0.00018971
5612.82945557,0.00024336
5614.75826294,0.00017031
5616.68707031,0.00025040
5618.61587769,0.00028794
5620.54468506,0.00024756
5622.47349243,0.00022910
5624.40229980,0.00023062
5626.33110718,0.00023024
5628.25991455,0.00026613
5630.18872192,0.00032001
5632.11752930,0.00024515
5634.04633667,0.00027292
5635.97514404,0.00026204
5637.90395142,0.00021230
5639.83275879,0.00024422
5641.76156616,0.00026238
5643.69037353,0.00028141
5645.61918091,0.00022965
5647.54798828,0.00031941
5649.47679565,0.00032340
5651.40560303,0.00026481
5653.33441040,0.00033189
5655.26321777,0.00021881
5657.19202515,0.00023226
5659.12083252,0.00026582
5661.04963989,0.00018801
5662.97844727,0.00028219
5664.90725464,0.00021392
5666.83606201,0.00014551
5668.76486938,0.00022970
5670.69367676,0.00020172
5672.62248413,0.00026157
5674.55129150,0.00025820
5676.48009888,0.00022574
5678.40890625,0.00022624
5680.33771362,0.00015209
5682.26652100,0.00023648
5684.19532837,0.00018151
5686.12413574,0.00018152
5688.05294311,0.00026288
5689.98175049,0.00019595
5691.91055786,0.00026002
5693.83936523,0.00018654
5695.76817261,0.00019746
5697.69697998,0.00027023
5699.62578735,0.00024177
5701.55459473,0.00026590
5703.48340210,0.00020110
5705.41220947,0.00025269
5707.34101685,0.00023932
5709.26982422,0.00022250
5711.19863159,0.00022967
5713.12743896,0.00018429
5715.05624634,0.00028396
5716.98505371,0.00024721
5718.91386108,0.00022280
5720.84266846,0.00026355
5722.77147583,0.00024290
5724.70028320,0.00016334
5726.62909058,0.00015795
5728.55789795,0.00030330
5730.48670532,0.00022902
5732.41551270,0.00020435
5734.34432007,0.00024138
5736.27312744,0.00013668
5738.20193481,0.00017387
5740.13074219,0.00018157
5742.05954956,0.00017603
5743.98835693,0.00024414
5745.91716431,0.00019490
5747.84597168,0.00020213
5749.77477905,0.00021063
5751.70358643,0.00015965
5753.63239380,0.00024400
5755.56120117,0.00017905
5757.49000854,0.00015350
5759.41881592,0.00023587
5761.34762329,0.00011794
5763.27643066,0.00017048
5765.20523804,0.00021774
5767.13404541,0.00022598
5769.06285278,0.00030396
5770.99166016,0.00018707
5772.92046753,0.00015088
5774.84927490,0.00016898
5776.77808228,0.00019507
5778.70688965,0.00020406
5780.63569702,0.00011844
5782.56450439,0.00014533
5784.49331177,0.00018156
5786.42211914,0.00019393
5788.35092651,0.00019649
5790.27973389,0.00015322
5792.20854126,0.00014519
5794.13734863,0.00013916
5796.06615601,0.00016711
5797.99496338,0.00026803
5799.92377075,0.00022769
5801.85257812,0.00009551
5803.78138550,0.00015007
5805.71019287,0.00018493
5807.63900024,0.00016047
5809.56780762,0.00022049
5811.49661499,0.00018143
5813.42542236,0.00014585
5815.35422974,0.00019030
5817.28303711,0.00016769
5819.21184448,0.00018527
5821.14065186,0.00017899
5823.06945923,0.00017266
5824.99826660,0.00025618
5826.92707397,0.00019660
5828.85588135,0.00016810
5830.78468872,0.00020145
5832.71349609,0.00014544
5834.64230347,0.00014693
5836.57111084,0.00015766
5838.49991821,0.00018122
5840.42872559,0.00016570
5842.35753296,0.00013224
5844.28634033,0.00015254
5846.21514770,0.00014511
5848.14395508,0.00016582
5850.07276245,0.00017621
5852.00156982,0.00014095
5853.93037720,0.00009273
5855.85918457,0.00012106
5857.78799194,0.00016103
5859.71679932,0.00012495
5861.64560669,0.00013792
5863.57441406,0.00015852
5865.50322144,0.00016791
5867.43202881,0.00014052
5869.36083618,0.00010772
5871.28964355,0.00014126
5873.21845093,0.00018578
5875.14725830,0.00019449
5877.07606567,0.00017632
5879.00487305,0.00015467
5880.93368042,0.00009697
5882.86248779,0.00016057
5884.79129517,0.00020157
5886.72010254,0.00013783
5888.64890991,0.00017814
5890.57771728,0.00016214
5892.50652466,0.00016976
5894.43533203,0.00018086
5896.36413940,0.00011141
5898.29294678,0.00015646
5900.22175415,0.00017272
5902.15056152,0.00013691
5904.07936890,0.00018576
5906.00817627,0.00018788
5907.93698364,0.00012757
5909.86579102,0.00011737
5911.79459839,0.00009793
5913.72340576,0.00006790
5915.65221313,0.00011323
5917.58102051,0.00016333
5919.50982788,0.00009961
5921.43863525,0.00007210
5923.36744263,0.00012056
5925.29625000,0.00009335
5927.22505737,0.00013160
5929.15386475,0.00015437
5931.08267212,0.00013355
5933.01147949,0.00015846
5934.94028686,0.00011770
5936.86909424,0.00016543
5938.79790161,0.00020016
5940.72670898,0.00015153
5942.65551636,0.00015450
5944.58432373,0.00014579
5946.51313110,0.00012134
5948.44193848,0.00007743
5950.37074585,0.00012930
5952.29955322,0.00018977
5954.22836060,0.00013605
5956.15716797,0.00010135
5958.08597534,0.00012339
5960.01478271,0.00013880
5961.94359009,0.00007189
5963.87239746,0.00010337
5965.80120483,0.00016878
5967.73001221,0.00009296
5969.65881958,0.00008879
5971.58762695,0.00010079
5973.51643433,0.00008645
5975.44524170,0.00013485
5977.37404907,0.00014527
5979.30285645,0.00012187
5981.23166382,0.00010306
5983.16047119,0.00012906
5985.08927856,0.00014583
5987.01808594,0.00004658
5988.94689331,0.00003847
5990.87570068,0.00017068
5992.80450806,0.00015174
5994.73331543,0.00009128
5996.66212280,0.00014275
5998.59093018,0.00012999
6000.51973755,0.00012996
