399.26312622,0.00033829
401.19193359,-0.00002619
403.12074097,0.00014054
405.04954834,0.00020848
406.97835571,0.00068539
408.90716309,0.00063695
410.83597046,0.00051669
412.76477783,0.00079895
414.69358521,0.00027897
416.62239258,0.00043348
418.55119995,0.00046856
420.48000732,0.00021914
422.40881470,0.00085060
424.33762207,0.00065781
426.26642944,0.00062137
428.19523682,0.00086682
430.12404419,0.00071294
432.05285156,0.00065907
433.98165894,0.00075226
435.91046631,0.00103356
437.83927368,0.00048351
439.76808105,0.00038712
441.69688843,0.00085267
443.62569580,0.00060118
445.55450317,0.00039583
447.48331055,0.00060119
449.41211792,0.00051352
451.34092529,0.00007256
453.26973267,0.00047550
455.19854004,0.00025222
457.12734741,0.00000383
459.05615479,0.00064918
460.98496216,0.00042369
462.91376953,0.00038983
464.84257690,0.00039132
466.77138428,0.00025736
468.70019165,0.00021264
470.62899902,-0.00004952
472.55780640,-0.00014882
474.48661377,0.00022817
476.41542114,0.00042361
478.34422852,0.00037709
480.27303589,0.00071138
482.20184326,0.00028817
484.13065063,0.00014675
486.05945801,0.00009549
487.98826538,0.00028765
489.91707275,0.00036799
491.84588013,-0.00015082
493.77468750,0.00041430
495.70349487,0.00018371
497.63230225,0.00048583
499.56110962,0.00063041
501.48991699,-0.00015064
503.41872437,0.00032620
505.34753174,0.00001379
507.27633911,-0.00018285
509.20514648,-0.00005355
511.13395386,-0.00007567
513.06276123,-0.00004282
514.99156860,-0.00019505
516.92037598,0.00017092
518.84918335,0.00008216
520.77799072,0.00030374
522.70679810,0.00047966
524.63560547,-0.00004643
526.56441284,0.00003402
528.49322021,0.00035912
530.42202759,0.00008084
532.35083496,0.00001427
534.27964233,0.00038119
536.20844971,-0.00000921
538.13725708,-0.00006469
540.06606445,0.00040863
541.99487183,0.00022401
543.92367920,0.00023070
545.85248657,0.00021407
547.78129395,0.00000646
549.71010132,-0.00004978
551.63890869,-0.00014737
553.56771606,-0.00016511
555.49652344,-0.00006100
557.42533081,0.00022826
559.35413818,0.00024119
561.28294556,0.00010927
563.21175293,0.00023077
565.14056030,0.00009845
567.06936768,0.00010603
568.99817505,0.00010477
570.92698242,0.00012368
572.85578979,0.00025660
574.78459717,-0.00005014
576.71340454,0.00027942
578.64221191,0.00023042
580.57101929,-0.00045344
582.49982666,0.00004292
584.42863403,0.00021301
586.35744141,-0.00029347
588.28624878,0.00014312
590.21505615,0.00029881
592.14386353,0.00005305
594.07267090,0.00039117
596.00147827,0.00026896
597.93028564,-0.00007682
599.85909302,-0.00013260
601.78790039,0.00008063
603.71670776,0.00008131
605.64551514,-0.00014390
607.57432251,0.00000023
609.50312988,0.00000995
611.43193726,0.00008640
613.36074463,0.00002427
615.28955200,0.00001320
617.21835938,0.00034404
619.14716675,-0.00005386
621.07597412,-0.00011891
623.00478149,0.00010654
624.93358887,-0.00007988
626.86239624,0.00007545
628.79120361,-0.00008506
630.72001099,0.00014653
632.64881836,0.00065863
634.57762573,0.00075613
636.50643311,0.00072761
638.43524048,0.00066903
640.36404785,0.00072145
642.29285522,0.00060112
644.22166260,0.00067144
646.15046997,0.00076575
648.07927734,0.00091957
650.00808472,0.00099379
651.93689209,0.00055400
653.86569946,0.00072691
655.79450684,0.00074796
657.72331421,0.00071201
659.65212158,0.00120468
661.58092896,0.00096671
663.50973633,0.00079180
665.43854370,0.00099244
667.36735107,0.00105013
669.29615845,0.00103757
671.22496582,0.00102332
673.15377319,0.00123485
675.08258057,0.00139816
677.01138794,0.00151929
678.94019531,0.00155751
680.86900269,0.00143637
682.79781006,0.00135356
684.72661743,0.00118103
686.65542480,0.00116385
688.58423218,0.00155529
690.51303955,0.00153308
692.44184692,0.00125118
694.37065430,0.00167273
696.29946167,0.00199995
698.22826904,0.00196876
700.15707642,0.00225529
702.08588379,0.00233536
704.01469116,0.00206257
705.94349854,0.00196071
707.87230591,0.00168166
709.80111328,0.00124676
711.72992065,0.00097122
713.65872803,0.00065438
715.58753540,0.00031550
717.51634277,0.00006484
719.44515015,0.00018466
721.37395752,0.00017441
723.30276489,0.00002696
725.23157227,0.00000585
727.16037964,-0.00004385
729.08918701,0.00021949
731.01799438,-0.00005765
732.94680176,-0.00021413
734.87560913,0.00024903
736.80441650,0.00009894
738.73322388,0.00010888
740.66203125,0.00006569
742.59083862,0.00015130
744.51964600,0.00018029
746.44845337,-0.00006852
748.37726074,0.00016294
750.30606812,0.00019300
752.23487549,0.00008949
754.16368286,0.00033023
756.09249023,0.00031912
758.02129761,0.00009635
759.95010498,0.00015755
761.87891235,0.00003251
763.80771973,0.00020100
765.73652710,0.00032187
767.66533447,-0.00001567
769.59414185,0.00035377
771.52294922,0.00026531
773.45175659,0.00018062
775.38056396,0.00035447
777.30937134,0.00005443
779.23817871,0.00019839
781.16698608,0.00008718
783.09579346,-0.00002693
785.02460083,0.00014904
786.95340820,0.00031408
788.88221558,0.00041691
790.81102295,0.00033494
792.73983032,0.00038648
794.66863770,0.00030208
796.59744507,0.00034696
798.52625244,0.00036026
800.45505981,0.00029603
802.38386719,0.00046755
804.31267456,0.00037539
806.24148193,0.00012500
808.17028931,0.00020827
810.09909668,0.00032901
812.02790405,0.00023254
813.95671143,0.00030681
815.88551880,0.00027695
817.81432617,0.00012787
819.74313354,-0.00002197
821.67194092,-0.00000583
823.60074829,0.00007769
825.52955566,0.00010908
827.45836304,0.00048832
829.38717041,0.00047891
831.31597778,0.00025704
833.24478516,0.00028214
835.17359253,0.00032474
837.10239990,0.00032869
839.03120728,0.00044972
840.96001465,0.00063355
842.88882202,0.00043250
844.81762939,0.00043538
846.74643677,0.00048190
848.67524414,0.00035288
850.60405151,0.00033179
852.53285889,0.00038885
854.46166626,0.00040470
856.39047363,0.00032229
858.31928101,0.00041379
860.24808838,0.00011933
862.17689575,0.00010268
864.10570313,0.00041138
866.03451050,0.00026432
867.96331787,0.00031646
869.89212524,0.00029079
871.82093262,0.00036547
873.74973999,0.00037735
875.67854736,0.00011132
877.60735474,0.00034481
879.53616211,0.00047751
881.46496948,0.00016321
883.39377686,0.00020772
885.32258423,0.00028736
887.25139160,0.00013139
889.18019897,0.00028629
891.10900635,0.00030011
893.03781372,0.00031458
894.96662109,0.00034834
896.89542847,0.00018818
898.82423584,0.00030071
900.75304321,0.00016438
902.68185059,0.00031381
904.61065796,0.00045753
906.53946533,0.00017455
908.46827271,0.00040380
910.39708008,0.00028106
912.32588745,0.00015764
914.25469482,0.00057776
916.18350220,0.00059849
918.11230957,0.00033369
920.04111694,0.00027166
921.96992432,0.00062508
923.89873169,0.00081871
925.82753906,0.00063007
927.75634644,0.00072759
929.68515381,0.00079778
931.61396118,0.00066112
933.54276855,0.00082057
935.47157593,0.00079432
937.40038330,0.00069926
939.32919067,0.00080585
941.25799805,0.00097121
943.18680542,0.00118623
945.11561279,0.00105755
947.04442017,0.00097349
948.97322754,0.00097193
950.90203491,0.00096759
952.83084229,0.00094022
954.75964966,0.00076839
956.68845703,0.00083090
958.61726440,0.00076413
960.54607178,0.00076841
962.47487915,0.00088925
964.40368652,0.00079505
966.33249390,0.00093860
968.26130127,0.00116886
970.19010864,0.00110271
972.11891602,0.00108919
974.04772339,0.00120771
975.97653076,0.00109511
977.90533813,0.00119167
979.83414551,0.00130915
981.76295288,0.00135417
983.69176025,0.00163806
985.62056763,0.00181645
987.54937500,0.00207001
989.47818237,0.00222908
991.40698975,0.00243745
993.33579712,0.00274457
995.26460449,0.00318668
997.19341187,0.00364982
999.12221924,0.00344099
1001.05102661,0.00369439
1002.97983398,0.00432264
1004.90864136,0.00449508
1006.83744873,0.00469103
1008.76625610,0.00485775
1010.69506348,0.00506252
1012.62387085,0.00528477
1014.55267822,0.00569642
1016.48148560,0.00601768
1018.41029297,0.00603824
1020.33910034,0.00648606
1022.26790771,0.00688715
1024.19671509,0.00701232
1026.12552246,0.00734123
1028.05432983,0.00743970
1029.98313721,0.00739583
1031.91194458,0.00775357
1033.84075195,0.00814569
1035.76955933,0.00827447
1037.69836670,0.00837067
1039.62717407,0.00827721
1041.55598145,0.00826618
1043.48478882,0.00833626
1045.41359619,0.00811584
1047.34240356,0.00832549
1049.27121094,0.00821493
1051.20001831,0.00784233
1053.12882568,0.00804413
1055.05763306,0.00774004
1056.98644043,0.00759818
1058.91524780,0.00741559
1060.84405518,0.00711097
1062.77286255,0.00718732
1064.70166992,0.00671861
1066.63047729,0.00648277
1068.55928467,0.00606991
1070.48809204,0.00569628
1072.41689941,0.00572487
1074.34570679,0.00536843
1076.27451416,0.00516526
1078.20332153,0.00489231
1080.13212891,0.00476160
1082.06093628,0.00452825
1083.98974365,0.00439030
1085.91855103,0.00418152
1087.84735840,0.00370414
1089.77616577,0.00389772
1091.70497314,0.00355819
1093.63378052,0.00333984
1095.56258789,0.00347021
1097.49139526,0.00317978
1099.42020264,0.00327702
1101.34901001,0.00336040
1103.27781738,0.00319143
1105.20662476,0.00290128
1107.13543213,0.00295122
1109.06423950,0.00288931
1110.99304687,0.00281596
1112.92185425,0.00305358
1114.85066162,0.00279871
1116.77946899,0.00285166
1118.70827637,0.00303335
1120.63708374,0.00280632
1122.56589111,0.00280566
1124.49469849,0.00305888
1126.42350586,0.00300400
1128.35231323,0.00289918
1130.28112061,0.00319613
1132.20992798,0.00330887
1134.13873535,0.00333156
1136.06754272,0.00348456
1137.99635010,0.00365661
1139.92515747,0.00372574
1141.85396484,0.00399475
1143.78277222,0.00430159
1145.71157959,0.00442499
1147.64038696,0.00466931
1149.56919434,0.00484418
1151.49800171,0.00531641
1153.42680908,0.00555311
1155.35561646,0.00574738
1157.28442383,0.00595639
1159.21323120,0.00611192
1161.14203857,0.00663982
1163.07084595,0.00654622
1164.99965332,0.00699448
1166.92846069,0.00723022
1168.85726807,0.00717510
1170.78607544,0.00785788
1172.71488281,0.00774576
1174.64369019,0.00811326
1176.57249756,0.00858524
1178.50130493,0.00881092
1180.43011230,0.00921584
1182.35891968,0.00955313
1184.28772705,0.01037144
1186.21653442,0.01061427
1188.14534180,0.01098678
1190.07414917,0.01138153
1192.00295654,0.01188576
1193.93176392,0.01267357
1195.86057129,0.01290552
1197.78937866,0.01382260
1199.71818604,0.01446644
1201.64699341,0.01492512
1203.57580078,0.01578758
1205.50460815,0.01630339
1207.43341553,0.01688548
1209.36222290,0.01710541
1211.29103027,0.01752044
1213.21983765,0.01825323
1215.14864502,0.01867197
1217.07745239,0.01912447
1219.00625977,0.01941200
1220.93506714,0.01958218
1222.86387451,0.02002822
1224.79268188,0.02023350
1226.72148926,0.02019702
1228.65029663,0.02043835
1230.57910400,0.02045526
1232.50791138,0.02054793
1234.43671875,0.02081271
1236.36552612,0.02080808
1238.29433350,0.02081009
1240.22314087,0.02093638
1242.15194824,0.02093681
1244.08075562,0.02056341
1246.00956299,0.02062124
1247.93837036,0.02053394
1249.86717773,0.02012649
1251.79598511,0.02030969
1253.72479248,0.02007475
1255.65359985,0.01982996
1257.58240723,0.01973921
1259.51121460,0.01920737
1261.44002197,0.01893619
1263.36882935,0.01879309
1265.29763672,0.01859964
1267.22644409,0.01841796
1269.15525146,0.01803301
1271.08405884,0.01779206
1273.01286621,0.01775844
1274.94167358,0.01724343
1276.87048096,0.01685003
1278.79928833,0.01684886
1280.72809570,0.01646701
1282.65690308,0.01602633
1284.58571045,0.01554593
1286.51451782,0.01529362
1288.44332520,0.01537121
1290.37213257,0.01506458
1292.30093994,0.01487495
1294.22974731,0.01500707
1296.15855469,0.01467946
1298.08736206,0.01445030
1300.01616943,0.01475022
1301.94497681,0.01502845
1303.87378418,0.01533381
1305.80259155,0.01527341
1307.73139893,0.01526809
1309.66020630,0.01553264
1311.58901367,0.01563499
1313.51782104,0.01605557
1315.44662842,0.01639456
1317.37543579,0.01683890
1319.30424316,0.01740294
1321.23305054,0.01797429
1323.16185791,0.01857823
1325.09066528,0.01899749
1327.01947266,0.01970765
1328.94828003,0.01999421
1330.87708740,0.02041374
1332.80589478,0.02112130
1334.73470215,0.02142033
1336.66350952,0.02168231
1338.59231689,0.02133258
1340.52112427,0.02153307
1342.44993164,0.02252711
1344.37873901,0.02285612
1346.30754639,0.02285697
1348.23635376,0.02271448
1350.16516113,0.02266164
1352.09396851,0.02275304
1354.02277588,0.02227007
1355.95158325,0.02187272
1357.88039062,0.02215619
1359.80919800,0.02193027
1361.73800537,0.02054582
1363.66681274,0.02015847
1365.59562012,0.02145170
1367.52442749,0.02100290
1369.45323486,0.02055569
1371.38204224,0.02113515
1373.31084961,0.01984553
1375.23965698,0.01999984
1377.16846436,0.02100195
1379.09727173,0.02069911
1381.02607910,0.02063810
1382.95488647,0.02067718
1384.88369385,0.02071418
1386.81250122,0.01947935
1388.74130859,0.01963460
1390.67011597,0.02187820
1392.59892334,0.02103184
1394.52773071,0.01931949
1396.45653809,0.02066400
1398.38534546,0.02051360
1400.31415283,0.02045159
1402.24296021,0.02246709
1404.17176758,0.02104147
1406.10057495,0.02128638
1408.02938232,0.02201112
1409.95818970,0.02093792
1411.88699707,0.02179161
1413.81580444,0.02082004
1415.74461182,0.02124636
1417.67341919,0.01892157
1419.60222656,0.01644588
1421.53103394,0.01978608
1423.45984131,0.01915655
1425.38864868,0.01852686
1427.31745605,0.01906229
1429.24626343,0.01751526
1431.17507080,0.01692915
1433.10387817,0.01720860
1435.03268555,0.01574376
1436.96149292,0.01307919
1438.89030029,0.01520060
1440.81910767,0.01582139
1442.74791504,0.01456552
1444.67672241,0.01526227
1446.60552979,0.01397394
1448.53433716,0.01428897
1450.46314453,0.01451247
1452.39195190,0.01495876
1454.32075928,0.01575038
1456.24956665,0.01252856
1458.17837402,0.01284094
1460.10718140,0.01769320
1462.03598877,0.01913715
1463.96479614,0.01874415
1465.89360352,0.01928497
1467.82241089,0.02227210
1469.75121826,0.02414529
1471.68002563,0.02068149
1473.60883301,0.02178347
1475.53764038,0.02542532
1477.46644775,0.02733797
1479.39525513,0.03069313
1481.32406250,0.03098088
1483.25286987,0.03280824
1485.18167725,0.03393128
1487.11048462,0.03299793
1489.03929199,0.03257678
1490.96809937,0.03255958
1492.89690674,0.03895608
1494.82571411,0.03790532
1496.75452148,0.03312326
1498.68332886,0.03808199
1500.61213623,0.03938687
1502.54094360,0.04271805
1504.46975098,0.04027943
1506.39855835,0.02719394
1508.32736572,0.03400128
1510.25617310,0.04161504
1512.18498047,0.03997942
1514.11378784,0.04410771
1516.04259521,0.03901620
1517.97140259,0.04053364
1519.90020996,0.03964839
1521.82901733,0.03283749
1523.75782471,0.04174366
1525.68663208,0.04132907
1527.61543945,0.04075785
1529.54424683,0.04638707
1531.47305420,0.04427418
1533.40186157,0.03950440
1535.33066895,0.04210011
1537.25947632,0.04636299
1539.18828369,0.03128158
1541.11709106,0.03218181
1543.04589844,0.04049625
1544.97470581,0.03820211
1546.90351318,0.04712566
1548.83232056,0.04377044
1550.76112793,0.04486289
1552.68993530,0.04517695
1554.61874268,0.03997301
1556.54755005,0.04346833
1558.47635742,0.02859609
1560.40516479,0.03083163
1562.33397217,0.04778892
1564.26277954,0.04472388
1566.19158691,0.04610059
1568.12039429,0.04581825
1570.04920166,0.03951350
1571.97800903,0.04692549
1573.90681641,0.04787569
1575.83562378,0.03635261
1577.76443115,0.04193551
1579.69323853,0.04832717
1581.62204590,0.04615149
1583.55085327,0.04781671
1585.47966064,0.04690614
1587.40846802,0.04754066
1589.33727539,0.04709630
1591.26608276,0.04692327
1593.19489014,0.04720904
1595.12369751,0.04630885
1597.05250488,0.04719327
1598.98131226,0.04707282
1600.91011963,0.04720828
1602.83892700,0.04625869
1604.76773437,0.04727265
1606.69654175,0.04651500
1608.62534912,0.04623368
1610.55415649,0.04638981
1612.48296387,0.04684817
1614.41177124,0.04767361
1616.34057861,0.03762462
1618.26938599,0.04104635
1620.19819336,0.04954253
1622.12700073,0.04293900
1624.05580811,0.04277011
1625.98461548,0.04568282
1627.91342285,0.04541842
1629.84223022,0.04531854
1631.77103760,0.04904812
1633.69984497,0.04459100
1635.62865234,0.03517095
1637.55745972,0.04201102
1639.48626709,0.04741682
1641.41507446,0.04612716
1643.34388184,0.04774844
1645.27268921,0.04230990
1647.20149658,0.03575512
1649.13030396,0.04649100
1651.05911133,0.04444418
1652.98791870,0.02581914
1654.91672607,0.03697675
1656.84553345,0.04894846
1658.77434082,0.04675765
1660.70314819,0.04821458
1662.63195557,0.04287211
1664.56076294,0.04559294
1666.48957031,0.05002014
1668.41837769,0.04233089
1670.34718506,0.04070647
1672.27599243,0.04753725
1674.20479980,0.04339430
1676.13360718,0.04121637
1678.06241455,0.04876166
1679.99122192,0.04673164
1681.92002930,0.04589424
1683.84883667,0.03604045
1685.77764404,0.03528872
1687.70645142,0.05153625
1689.63525879,0.04395418
1691.56406616,0.04878124
1693.49287354,0.05054035
1695.42168091,0.03466909
1697.35048828,0.04427218
1699.27929565,0.03826896
1701.20810303,0.03309182
1703.13691040,0.04846998
1705.06571777,0.04398912
1706.99452515,0.04413023
1708.92333252,0.04914933
1710.85213989,0.04684729
1712.78094727,0.04775681
1714.70975464,0.04388713
1716.63856201,0.03862931
1718.56736938,0.03771253
1720.49617676,0.04614205
1722.42498413,0.04873180
1724.35379150,0.04456593
1726.28259888,0.04945492
1728.21140625,0.04522583
1730.14021362,0.04508486
1732.06902100,0.04432471
1733.99782837,0.03193082
1735.92663574,0.04130214
1737.85544312,0.04678416
1739.78425049,0.04053569
1741.71305786,0.04483786
1743.64186523,0.04555359
1745.57067261,0.04558900
1747.49947998,0.04578242
1749.42828735,0.04364163
1751.35709473,0.04143258
1753.28590210,0.04643283
1755.21470947,0.04938075
1757.14351685,0.04399289
1759.07232422,0.04940454
1761.00113159,0.04606389
1762.92993896,0.04361764
1764.85874634,0.05177170
1766.78755371,0.04578754
1768.71636108,0.04604791
1770.64516846,0.04578463
1772.57397583,0.04028161
1774.50278320,0.04603583
1776.43159058,0.04909622
1778.36039795,0.04847176
1780.28920532,0.04762460
1782.21801270,0.04804853
1784.14682007,0.04798926
1786.07562744,0.04674177
1788.00443481,0.04995204
1789.93324219,0.04846643
1791.86204956,0.04268096
1793.79085693,0.04492946
1795.71966431,0.04908392
1797.64847168,0.04834556
1799.57727905,0.04751012
1801.50608643,0.04643316
1803.43489380,0.04828092
1805.36370117,0.04977403
1807.29250854,0.04886436
1809.22131592,0.04913736
1811.15012329,0.04741255
1813.07893066,0.04917078
1815.00773804,0.04976642
1816.93654541,0.04893250
1818.86535278,0.04949988
1820.79416016,0.04931499
1822.72296753,0.05029067
1824.65177490,0.04627949
1826.58058228,0.04797110
1828.50938965,0.04833901
1830.43819702,0.04461974
1832.36700439,0.04954790
1834.29581177,0.04929042
1836.22461914,0.04902744
1838.15342651,0.04909536
1840.08223389,0.04933856
1842.01104126,0.04964868
1843.93984863,0.04298766
1845.86865601,0.04600394
1847.79746338,0.04937961
1849.72627075,0.04807824
1851.65507812,0.04987267
1853.58388550,0.04884747
1855.51269287,0.04932870
1857.44150024,0.04902405
1859.37030762,0.04857918
1861.29911499,0.04911530
1863.22792236,0.04851156
1865.15672974,0.04921222
1867.08553711,0.04734887
1869.01434448,0.04467840
1870.94315186,0.04690766
1872.87195923,0.04935453
1874.80076660,0.04833456
1876.72957397,0.04870140
1878.65838135,0.04854190
1880.58718872,0.04816753
1882.51599609,0.04884898
1884.44480347,0.04789570
1886.37361084,0.04877985
1888.30241821,0.04745395
1890.23122559,0.04619045
1892.16003296,0.04848412
1894.08884033,0.04769811
1896.01764771,0.04751999
1897.94645508,0.04816666
1899.87526245,0.04787710
1901.80406982,0.04819508
1903.73287720,0.04767457
1905.66168457,0.04804549
1907.59049194,0.04751569
1909.51929932,0.04708922
1911.44810669,0.04761663
1913.37691406,0.04758449
1915.30572144,0.04816396
1917.23452881,0.04557523
1919.16333618,0.04557744
1921.09214355,0.04786748
1923.02095093,0.04597009
1924.94975830,0.04717286
1926.87856567,0.04773820
1928.80737305,0.04702638
1930.73618042,0.04774147
1932.66498779,0.04686864
1934.59379517,0.04764372
1936.52260254,0.04719712
1938.45140991,0.04743961
1940.38021729,0.04747685
1942.30902466,0.04535868
1944.23783203,0.04658638
1946.16663940,0.04726477
1948.09544678,0.04708176
1950.02425415,0.04733435
1951.95306152,0.04719748
1953.88186890,0.04724383
1955.81067627,0.04693840
1957.73948364,0.04731401
1959.66829102,0.04713960
1961.59709839,0.04700357
1963.52590576,0.04730629
1965.45471313,0.04684459
1967.38352051,0.04632404
1969.31232788,0.04682554
1971.24113525,0.04719090
1973.16994263,0.04686117
1975.09875000,0.04716972
1977.02755737,0.04686139
1978.95636475,0.04694599
1980.88517212,0.04693211
1982.81397949,0.04646584
1984.74278687,0.04686975
1986.67159424,0.04651029
1988.60040161,0.04653807
1990.52920898,0.04613490
1992.45801636,0.04554701
1994.38682373,0.04640628
1996.31563110,0.04644164
1998.24443848,0.04615625
2000.17324585,0.04636111
2002.10205322,0.04625402
2004.03086060,0.04617319
2005.95966797,0.04611653
2007.88847534,0.04592779
2009.81728271,0.04608697
2011.74609009,0.04603983
2013.67489746,0.04589399
2015.60370483,0.04556179
2017.53251221,0.04511467
2019.46131958,0.04568832
2021.39012695,0.04559023
2023.31893433,0.04536082
2025.24774170,0.04556446
2027.17654907,0.04523842
2029.10535645,0.04528395
2031.03416382,0.04506728
2032.96297119,0.04501869
2034.89177856,0.04502865
2036.82058594,0.04487175
2038.74939331,0.04499123
2040.67820068,0.04466862
2042.60700806,0.04461253
2044.53581543,0.04467178
2046.46462280,0.04462645
2048.39343018,0.04459229
2050.32223755,0.04436886
2052.25104492,0.04446062
2054.17985229,0.04434489
2056.10865967,0.04415396
2058.03746704,0.04422753
2059.96627441,0.04400171
2061.89508179,0.04405990
2063.82388916,0.04398312
2065.75269653,0.04353019
2067.68150391,0.04375635
2069.61031128,0.04384694
2071.53911865,0.04370591
2073.46792603,0.04359640
2075.39673340,0.04354195
2077.32554077,0.04366938
2079.25434814,0.04343281
2081.18315552,0.04345687
2083.11196289,0.04330973
2085.04077026,0.04329929
2086.96957764,0.04350723
2088.89838501,0.04305189
2090.82719238,0.04307655
2092.75599976,0.04304624
2094.68480713,0.04287072
2096.61361450,0.04300010
2098.54242187,0.04281234
2100.47122925,0.04278544
2102.40003662,0.04278865
2104.32884399,0.04255389
2106.25765137,0.04248261
2108.18645874,0.04257529
2110.11526611,0.04258522
2112.04407349,0.04260423
2113.97288086,0.04255009
2115.90168823,0.04242150
2117.83049561,0.04224227
2119.75930298,0.04216043
2121.68811035,0.04227303
2123.61691772,0.04223461
2125.54572510,0.04220488
2127.47453247,0.04201738
2129.40333984,0.04192215
2131.33214722,0.04193408
2133.26095459,0.04191798
2135.18976196,0.04192317
2137.11856934,0.04174518
2139.04737671,0.04189910
2140.97618408,0.04171719
2142.90499146,0.04165471
2144.83379883,0.04189152
2146.76260620,0.04167792
2148.69141357,0.04172533
2150.62022095,0.04160447
2152.54902832,0.04152134
2154.47783569,0.04156485
2156.40664307,0.04152731
2158.33545044,0.04145492
2160.26425781,0.04127756
2162.19306519,0.04147030
2164.12187256,0.04141538
2166.05067993,0.04119854
2167.97948730,0.04116234
2169.90829468,0.04119509
2171.83710205,0.04113051
2173.76590942,0.04103947
2175.69471680,0.04108111
2177.62352417,0.04094306
2179.55233154,0.04104284
2181.48113892,0.04101367
2183.40994629,0.04093422
2185.33875366,0.04108121
2187.26756104,0.04105522
2189.19636841,0.04098876
2191.12517578,0.04082064
2193.05398315,0.04078309
2194.98279053,0.04076707
2196.91159790,0.04078907
2198.84040527,0.04074388
2200.76921265,0.04061240
2202.69802002,0.04063749
2204.62682739,0.04058651
2206.55563477,0.04056054
2208.48444214,0.04046974
2210.41324951,0.04051344
2212.34205688,0.04045649
2214.27086426,0.04034920
2216.19967163,0.04034572
2218.12847900,0.04013655
2220.05728638,0.04025442
2221.98609375,0.04029433
2223.91490112,0.04019177
2225.84370850,0.04016042
2227.77251587,0.04006750
2229.70132324,0.04016513
2231.63013062,0.04011723
2233.55893799,0.03996583
2235.48774536,0.03984819
2237.41655273,0.03986924
2239.34536011,0.03990799
2241.27416748,0.03969982
2243.20297485,0.03965869
2245.13178223,0.03967836
2247.06058960,0.03945281
2248.98939697,0.03937215
2250.91820435,0.03947820
2252.84701172,0.03946678
2254.77581909,0.03941387
2256.70462646,0.03933695
2258.63343384,0.03924605
2260.56224121,0.03919229
2262.49104858,0.03924400
2264.41985596,0.03920396
2266.34866333,0.03912563
2268.27747070,0.03925174
2270.20627808,0.03914943
2272.13508545,0.03900313
2274.06389282,0.03894804
2275.99270020,0.03891180
2277.92150757,0.03890775
2279.85031494,0.03881649
2281.77912231,0.03888639
2283.70792969,0.03886129
2285.63673706,0.03870223
2287.56554443,0.03861757
2289.49435181,0.03868505
2291.42315918,0.03863705
2293.35196655,0.03842839
2295.28077393,0.03842704
2297.20958130,0.03832702
2299.13838867,0.03819736
2301.06719604,0.03803096
2302.99600342,0.03795522
2304.92481079,0.03784266
2306.85361816,0.03740235
2308.78242554,0.03723822
2310.71123291,0.03707235
2312.64004028,0.03661150
2314.56884766,0.03619820
2316.49765503,0.03592663
2318.42646240,0.03556351
2320.35526978,0.03511731
2322.28407715,0.03464133
2324.21288452,0.03418947
2326.14169189,0.03394816
2328.07049927,0.03356779
2329.99930664,0.03315032
2331.92811401,0.03280409
2333.85692139,0.03276261
2335.78572876,0.03276326
2337.71453613,0.03256486
2339.64334351,0.03257343
2341.57215088,0.03267501
2343.50095825,0.03324218
2345.42976562,0.03376971
2347.35857300,0.03499261
2349.28738037,0.03620230
2351.21618774,0.03499023
2353.14499512,0.03332705
2355.07380249,0.03215867
2357.00260986,0.03129916
2358.93141724,0.03069774
2360.86022461,0.03014284
2362.78903198,0.03035412
2364.71783936,0.03057224
2366.64664673,0.03099822
2368.57545410,0.03163086
2370.50426147,0.03221826
2372.43306885,0.03307076
2374.36187622,0.03385994
2376.29068359,0.03476432
2378.21949097,0.03547703
2380.14829834,0.03603335
2382.07710571,0.03642035
2384.00591309,0.03660946
2385.93472046,0.03684006
2387.86352783,0.03677034
2389.79233521,0.03670016
2391.72114258,0.03682905
2393.64994995,0.03683043
2395.57875732,0.03669470
2397.50756470,0.03669168
2399.43637207,0.03666189
2401.36517944,0.03654727
2403.29398682,0.03649847
2405.22279419,0.03647584
2407.15160156,0.03654519
2409.08040894,0.03646629
2411.00921631,0.03636853
2412.93802368,0.03631554
2414.86683105,0.03622849
2416.79563843,0.03629714
2418.72444580,0.03627655
2420.65325317,0.03615704
2422.58206055,0.03619419
2424.51086792,0.03626429
2426.43967529,0.03609522
2428.36848267,0.03587613
2430.29729004,0.03593157
2432.22609741,0.03605069
2434.15490479,0.03590411
2436.08371216,0.03585260
2438.01251953,0.03597861
2439.94132690,0.03586035
2441.87013428,0.03580373
2443.79894165,0.03574467
2445.72774902,0.03561790
2447.65655640,0.03561399
2449.58536377,0.03556692
2451.51417114,0.03561492
2453.44297852,0.03559754
2455.37178589,0.03554060
2457.30059326,0.03558059
2459.22940063,0.03550100
2461.15820801,0.03539378
2463.08701538,0.03534117
2465.01582275,0.03535124
2466.94463013,0.03536136
2468.87343750,0.03525829
2470.80224487,0.03524436
2472.73105225,0.03523871
2474.65985962,0.03507434
2476.58866699,0.03513781
2478.51747437,0.03513709
2480.44628174,0.03499131
2482.37508911,0.03506503
2484.30389648,0.03493694
2486.23270386,0.03483919
2488.16151123,0.03496492
2490.09031860,0.03489085
2492.01912598,0.03470435
2493.94793335,0.03470298
2495.87674072,0.03477031
2497.80554810,0.03467380
2499.73435547,0.03459508
2501.66316284,0.03459942
2503.59197021,0.03464785
2505.52077759,0.03463243
2507.44958496,0.03453125
2509.37839233,0.03443448
2511.30719971,0.03442233
2513.23600708,0.03448053
2515.16481445,0.03446919
2517.09362183,0.03444592
2519.02242920,0.03424718
2520.95123657,0.03419695
2522.88004395,0.03429953
2524.80885132,0.03418504
2526.73765869,0.03414004
2528.66646606,0.03410353
2530.59527344,0.03406208
2532.52408081,0.03401979
2534.45288818,0.03407988
2536.38169556,0.03404140
2538.31050293,0.03388369
2540.23931030,0.03386811
2542.16811768,0.03374451
2544.09692505,0.03373591
2546.02573242,0.03367711
2547.95453979,0.03379468
2549.88334717,0.03385083
2551.81215454,0.03359812
2553.74096191,0.03374978
2555.66976929,0.03366825
2557.59857666,0.03354236
2559.52738403,0.03350309
2561.45619141,0.03343436
2563.38499878,0.03356240
2565.31380615,0.03342610
2567.24261353,0.03341486
2569.17142090,0.03335624
2571.10022827,0.03331575
2573.02903564,0.03339382
2574.95784302,0.03329978
2576.88665039,0.03333355
2578.81545776,0.03327172
2580.74426514,0.03321729
2582.67307251,0.03314783
2584.60187988,0.03311836
2586.53068726,0.03310893
2588.45949463,0.03296360
2590.38830200,0.03306757
2592.31710937,0.03303098
2594.24591675,0.03280840
2596.17472412,0.03285121
2598.10353149,0.03290834
2600.03233887,0.03277566
2601.96114624,0.03271247
2603.88995361,0.03272111
2605.81876099,0.03271437
2607.74756836,0.03266552
2609.67637573,0.03254673
2611.60518311,0.03261899
2613.53399048,0.03263440
2615.46279785,0.03253861
2617.39160522,0.03241544
2619.32041260,0.03236039
2621.24921997,0.03245229
2623.17802734,0.03234892
2625.10683472,0.03245269
2627.03564209,0.03241026
2628.96444946,0.03207136
2630.89325684,0.03220027
2632.82206421,0.03228905
2634.75087158,0.03203742
2636.67967895,0.03197815
2638.60848633,0.03215195
2640.53729370,0.03204638
2642.46610107,0.03197686
2644.39490845,0.03202217
2646.32371582,0.03181495
2648.25252319,0.03184947
2650.18133057,0.03190508
2652.11013794,0.03187753
2654.03894531,0.03185310
2655.96775269,0.03169632
2657.89656006,0.03164488
2659.82536743,0.03160678
2661.75417480,0.03165411
2663.68298218,0.03159048
2665.61178955,0.03148505
2667.54059692,0.03157886
2669.46940430,0.03151526
2671.39821167,0.03138894
2673.32701904,0.03133066
2675.25582642,0.03134106
2677.18463379,0.03134279
2679.11344116,0.03126371
2681.04224854,0.03127244
2682.97105591,0.03126649
2684.89986328,0.03112048
2686.82867065,0.03108374
2688.75747803,0.03113467
2690.68628540,0.03100430
2692.61509277,0.03094088
2694.54390015,0.03097784
2696.47270752,0.03100108
2698.40151489,0.03094475
2700.33032227,0.03083018
2702.25912964,0.03088649
2704.18793701,0.03078199
2706.11674438,0.03068951
2708.04555176,0.03077454
2709.97435913,0.03072422
2711.90316650,0.03060274
2713.83197388,0.03050178
2715.76078125,0.03061664
2717.68958862,0.03059032
2719.61839600,0.03043276
2721.54720337,0.03043546
2723.47601074,0.03031667
2725.40481812,0.03024928
2727.33362549,0.03031583
2729.26243286,0.03032993
2731.19124023,0.03015823
2733.12004761,0.03010408
2735.04885498,0.03017905
2736.97766235,0.03005615
2738.90646973,0.03002685
2740.83527710,0.03003560
2742.76408447,0.03000900
2744.69289185,0.02996254
2746.62169922,0.02991146
2748.55050659,0.02986269
2750.47931396,0.02982226
2752.40812134,0.02991619
2754.33692871,0.02977313
2756.26573608,0.02961589
2758.19454346,0.02968804
2760.12335083,0.02970019
2762.05215820,0.02959195
2763.98096558,0.02950498
2765.90977295,0.02957368
2767.83858032,0.02955000
2769.76738770,0.02949572
2771.69619507,0.02941250
2773.62500244,0.02934384
2775.55380981,0.02927603
2777.48261719,0.02914216
2779.41142456,0.02918372
2781.34023193,0.02914533
2783.26903931,0.02915063
2785.19784668,0.02908918
2787.12665405,0.02899803
2789.05546143,0.02905630
2790.98426880,0.02890708
2792.91307617,0.02887163
2794.84188354,0.02879040
2796.77069092,0.02873491
2798.69949829,0.02879131
2800.62830566,0.02871735
2802.55711304,0.02871054
2804.48592041,0.02854924
2806.41472778,0.02850959
2808.34353516,0.02851511
2810.27234253,0.02842261
2812.20114990,0.02845813
2814.12995728,0.02833578
2816.05876465,0.02824120
2817.98757202,0.02826492
2819.91637939,0.02820208
2821.84518677,0.02813153
2823.77399414,0.02819039
2825.70280151,0.02809330
2827.63160889,0.02796199
2829.56041626,0.02803806
2831.48922363,0.02787409
2833.41803101,0.02774002
2835.34683838,0.02767427
2837.27564575,0.02756334
2839.20445312,0.02761260
2841.13326050,0.02749675
2843.06206787,0.02730747
2844.99087524,0.02715424
2846.91968262,0.02699161
2848.84848999,0.02682712
2850.77729736,0.02677968
2852.70610474,0.02694753
2854.63491211,0.02691295
2856.56371948,0.02685849
2858.49252686,0.02694732
2860.42133423,0.02690745
2862.35014160,0.02689695
2864.27894897,0.02681977
2866.20775635,0.02675005
2868.13656372,0.02676584
2870.06537109,0.02667212
2871.99417847,0.02667724
2873.92298584,0.02665719
2875.85179321,0.02659728
2877.78060059,0.02660015
2879.70940796,0.02649324
2881.63821533,0.02648665
2883.56702270,0.02653337
2885.49583008,0.02645412
2887.42463745,0.02633414
2889.35344482,0.02628019
2891.28225220,0.02624208
2893.21105957,0.02613490
2895.13986694,0.02609914
2897.06867432,0.02604759
2898.99748169,0.02590590
2900.92628906,0.02585848
2902.85509644,0.02587091
2904.78390381,0.02570795
2906.71271118,0.02561745
2908.64151855,0.02559201
2910.57032593,0.02541762
2912.49913330,0.02537982
2914.42794067,0.02518782
2916.35674805,0.02500123
2918.28555542,0.02496723
2920.21436279,0.02491697
2922.14317017,0.02511963
2924.07197754,0.02515629
2926.00078491,0.02511396
2927.92959229,0.02508529
2929.85839966,0.02506315
2931.78720703,0.02522998
2933.71601440,0.02518725
2935.64482178,0.02514748
2937.57362915,0.02522162
2939.50243652,0.02527518
2941.43124390,0.02529804
2943.36005127,0.02535170
2945.28885864,0.02529948
2947.21766602,0.02504960
2949.14647339,0.02506834
2951.07528076,0.02507618
2953.00408813,0.02499009
2954.93289551,0.02495030
2956.86170288,0.02488823
2958.79051025,0.02487159
2960.71931763,0.02472873
2962.64812500,0.02471840
2964.57693237,0.02474856
2966.50573975,0.02471976
2968.43454712,0.02476009
2970.36335449,0.02480718
2972.29216187,0.02491579
2974.22096924,0.02489789
2976.14977661,0.02488048
2978.07858398,0.02483666
2980.00739136,0.02474437
2981.93619873,0.02483140
2983.86500610,0.02481879
2985.79381348,0.02470953
2987.72262085,0.02469397
2989.65142822,0.02472154
2991.58023560,0.02477473
2993.50904297,0.02474253
2995.43785034,0.02468666
2997.36665771,0.02469974
2999.29546509,0.02460488
3001.22427246,0.02455117
3003.15307983,0.02454216
3005.08188721,0.02434798
3007.01069458,0.02427682
3008.93950195,0.02434614
3010.86830933,0.02430509
3012.79711670,0.02428582
3014.72592407,0.02420162
3016.65473145,0.02409571
3018.58353882,0.02421850
3020.51234619,0.02418767
3022.44115356,0.02404430
3024.36996094,0.02399643
3026.29876831,0.02393454
3028.22757568,0.02396877
3030.15638306,0.02375195
3032.08519043,0.02364809
3034.01399780,0.02380005
3035.94280518,0.02375809
3037.87161255,0.02373907
3039.80041992,0.02364909
3041.72922729,0.02361563
3043.65803467,0.02351260
3045.58684204,0.02346072
3047.51564941,0.02351766
3049.44445679,0.02331216
3051.37326416,0.02333871
3053.30207153,0.02336314
3055.23087891,0.02323162
3057.15968628,0.02321324
3059.08849365,0.02322183
3061.01730103,0.02316152
3062.94610840,0.02311565
3064.87491577,0.02314942
3066.80372314,0.02301497
3068.73253052,0.02304503
3070.66133789,0.02297108
3072.59014526,0.02287436
3074.51895264,0.02298708
3076.44776001,0.02288480
3078.37656738,0.02285671
3080.30537476,0.02271493
3082.23418213,0.02267652
3084.16298950,0.02267029
3086.09179687,0.02260775
3088.02060425,0.02273657
3089.94941162,0.02255512
3091.87821899,0.02252852
3093.80702637,0.02254681
3095.73583374,0.02236912
3097.66464111,0.02231825
3099.59344849,0.02229715
3101.52225586,0.02230753
3103.45106323,0.02219734
3105.37987061,0.02220823
3107.30867798,0.02221405
3109.23748535,0.02203064
3111.16629272,0.02207002
3113.09510010,0.02212964
3115.02390747,0.02194195
3116.95271484,0.02181920
3118.88152222,0.02177074
3120.81032959,0.02178088
3122.73913696,0.02184937
3124.66794434,0.02177428
3126.59675171,0.02174846
3128.52555908,0.02160964
3130.45436645,0.02157810
3132.38317383,0.02150836
3134.31198120,0.02127441
3136.24078857,0.02142365
3138.16959595,0.02134522
3140.09840332,0.02136009
3142.02721069,0.02137196
3143.95601807,0.02118579
3145.88482544,0.02128028
3147.81363281,0.02105546
3149.74244019,0.02103806
3151.67124756,0.02109725
3153.60005493,0.02094765
3155.52886230,0.02095285
3157.45766968,0.02081672
3159.38647705,0.02074619
3161.31528442,0.02078972
3163.24409180,0.02084845
3165.17289917,0.02070095
3167.10170654,0.02057741
3169.03051392,0.02059818
3170.95932129,0.02054913
3172.88812866,0.02050461
3174.81693604,0.02035756
3176.74574341,0.02037014
3178.67455078,0.02032443
3180.60335815,0.02026229
3182.53216553,0.02032135
3184.46097290,0.02015777
3186.38978027,0.02015547
3188.31858765,0.02021460
3190.24739502,0.02001656
3192.17620239,0.01992029
3194.10500977,0.01993931
3196.03381714,0.01986849
3197.96262451,0.01983692
3199.89143188,0.01977447
3201.82023926,0.01975678
3203.74904663,0.01977489
3205.67785400,0.01971480
3207.60666138,0.01966905
3209.53546875,0.01955207
3211.46427612,0.01959454
3213.39308350,0.01957016
3215.32189087,0.01949360
3217.25069824,0.01950413
3219.17950562,0.01939515
3221.10831299,0.01945389
3223.03712036,0.01945910
3224.96592773,0.01940470
3226.89473511,0.01936495
3228.82354248,0.01924365
3230.75234985,0.01911410
3232.68115723,0.01913439
3234.60996460,0.01921615
3236.53877197,0.01907481
3238.46757935,0.01908575
3240.39638672,0.01908958
3242.32519409,0.01907525
3244.25400146,0.01900992
3246.18280884,0.01894655
3248.11161621,0.01902263
3250.04042358,0.01891712
3251.96923096,0.01904799
3253.89803833,0.01891323
3255.82684570,0.01877615
3257.75565308,0.01891599
3259.68446045,0.01878180
3261.61326782,0.01884135
3263.54207520,0.01882441
3265.47088257,0.01885550
3267.39968994,0.01886435
3269.32849731,0.01874530
3271.25730469,0.01868786
3273.18611206,0.01861612
3275.11491943,0.01873268
3277.04372681,0.01863178
3278.97253418,0.01861893
3280.90134155,0.01865848
3282.83014893,0.01856014
3284.75895630,0.01859743
3286.68776367,0.01860636
3288.61657104,0.01860216
3290.54537842,0.01849078
3292.47418579,0.01850545
3294.40299316,0.01851409
3296.33180054,0.01846788
3298.26060791,0.01848225
3300.18941528,0.01843187
3302.11822266,0.01844797
3304.04703003,0.01844934
3305.97583740,0.01841983
3307.90464478,0.01831965
3309.83345215,0.01836688
3311.76225952,0.01831902
3313.69106689,0.01819140
3315.61987427,0.01831108
3317.54868164,0.01824697
3319.47748901,0.01823283
3321.40629639,0.01822370
3323.33510376,0.01813339
3325.26391113,0.01820965
3327.19271851,0.01816038
3329.12152588,0.01809380
3331.05033325,0.01810254
3332.97914062,0.01806091
3334.90794800,0.01803448
3336.83675537,0.01790366
3338.76556274,0.01791932
3340.69437012,0.01804117
3342.62317749,0.01782675
3344.55198486,0.01786782
3346.48079224,0.01797143
3348.40959961,0.01781252
3350.33840698,0.01778409
3352.26721436,0.01777930
3354.19602173,0.01779782
3356.12482910,0.01768388
3358.05363647,0.01776506
3359.98244385,0.01773072
3361.91125122,0.01753307
3363.84005859,0.01765153
3365.76886597,0.01761217
3367.69767334,0.01763493
3369.62648071,0.01753610
3371.55528809,0.01749741
3373.48409546,0.01761258
3375.41290283,0.01750345
3377.34171020,0.01746641
3379.27051758,0.01743932
3381.19932495,0.01741983
3383.12813232,0.01729737
3385.05693970,0.01733060
3386.98574707,0.01729570
3388.91455444,0.01731046
3390.84336182,0.01739565
3392.77216919,0.01716535
3394.70097656,0.01723221
3396.62978394,0.01708569
3398.55859131,0.01708604
3400.48739868,0.01723180
3402.41620605,0.01704957
3404.34501343,0.01709725
3406.27382080,0.01701024
3408.20262817,0.01695458
3410.13143555,0.01692750
3412.06024292,0.01697847
3413.98905029,0.01698901
3415.91785767,0.01686835
3417.84666504,0.01688920
3419.77547241,0.01682126
3421.70427979,0.01680348
3423.63308716,0.01670543
3425.56189453,0.01675400
3427.49070190,0.01676236
3429.41950928,0.01663249
3431.34831665,0.01667031
3433.27712402,0.01670024
3435.20593140,0.01663144
3437.13473877,0.01646287
3439.06354614,0.01662858
3440.99235352,0.01655738
3442.92116089,0.01641887
3444.84996826,0.01652847
3446.77877563,0.01630040
3448.70758301,0.01633139
3450.63639038,0.01644452
3452.56519775,0.01633463
3454.49400513,0.01638533
3456.42281250,0.01637410
3458.35161987,0.01624034
3460.28042725,0.01630546
3462.20923462,0.01624995
3464.13804199,0.01629926
3466.06684937,0.01636314
3467.99565674,0.01612646
3469.92446411,0.01627544
3471.85327148,0.01621486
3473.78207886,0.01612814
3475.71088623,0.01611156
3477.63969360,0.01617270
3479.56850098,0.01630320
3481.49730835,0.01585925
3483.42611572,0.01598525
3485.35492310,0.01605022
3487.28373047,0.01597047
3489.21253784,0.01604708
3491.14134521,0.01597680
3493.07015259,0.01617784
3494.99895996,0.01589378
3496.92776733,0.01587113
3498.85657471,0.01604519
3500.78538208,0.01600356
3502.71418945,0.01572081
3504.64299683,0.01563967
3506.57180420,0.01610076
3508.50061157,0.01583765
3510.42941895,0.01576096
3512.35822632,0.01587881
3514.28703369,0.01598733
3516.21584106,0.01603988
3518.14464844,0.01587267
3520.07345581,0.01606818
3522.00226318,0.01569881
3523.93107056,0.01550452
3525.85987793,0.01557482
3527.78868530,0.01561102
3529.71749268,0.01579102
3531.64630005,0.01578645
3533.57510742,0.01605282
3535.50391479,0.01586320
3537.43272217,0.01560922
3539.36152954,0.01592230
3541.29033691,0.01593539
3543.21914429,0.01570222
3545.14795166,0.01536966
3547.07675903,0.01507066
3549.00556641,0.01571783
3550.93437378,0.01585447
3552.86318115,0.01531999
3554.79198853,0.01585703
3556.72079590,0.01586059
3558.64960327,0.01579663
3560.57841064,0.01571854
3562.50721802,0.01543797
3564.43602539,0.01561797
3566.36483276,0.01431637
3568.29364014,0.01393040
3570.22244751,0.01539725
3572.15125488,0.01581805
3574.08006226,0.01566443
3576.00886963,0.01577417
3577.93767700,0.01561552
3579.86648437,0.01557471
3581.79529175,0.01570353
3583.72409912,0.01573125
3585.65290649,0.01534798
3587.58171387,0.01382382
3589.51052124,0.01425931
3591.43932861,0.01583011
3593.36813599,0.01526115
3595.29694336,0.01492213
3597.22575073,0.01532119
3599.15455811,0.01546603
3601.08336548,0.01515870
3603.01217285,0.01540276
3604.94098022,0.01585117
3606.86978760,0.01515104
3608.79859497,0.01411740
3610.72740234,0.01447761
3612.65620972,0.01479916
3614.58501709,0.01422443
3616.51382446,0.01554157
3618.44263184,0.01417293
3620.37143921,0.01356178
3622.30024658,0.01577774
3624.22905395,0.01520917
3626.15786133,0.01600645
3628.08666870,0.01318777
3630.01547607,0.01176539
3631.94428345,0.01548764
3633.87309082,0.01500386
3635.80189819,0.01537612
3637.73070557,0.01574303
3639.65951294,0.01546151
3641.58832031,0.01562694
3643.51712769,0.01535578
3645.44593506,0.01551197
3647.37474243,0.01369949
3649.30354980,0.01238971
3651.23235718,0.01249787
3653.16116455,0.01542618
3655.08997192,0.01520264
3657.01877930,0.01327357
3658.94758667,0.01575924
3660.87639404,0.01538702
3662.80520142,0.01561283
3664.73400879,0.01550839
3666.66281616,0.01532193
3668.59162354,0.01480572
3670.52043091,0.01161275
3672.44923828,0.01464049
3674.37804565,0.01378297
3676.30685303,0.01095617
3678.23566040,0.01451406
3680.16446777,0.01487034
3682.09327515,0.01485011
3684.02208252,0.01543413
3685.95088989,0.01512996
3687.87969727,0.01345713
3689.80850464,0.01214499
3691.73731201,0.01411404
3693.66611938,0.01470338
3695.59492676,0.01506642
3697.52373413,0.01504980
3699.45254150,0.01489176
3701.38134888,0.01441318
3703.31015625,0.01380172
3705.23896362,0.01546734
3707.16777100,0.01461336
3709.09657837,0.01410259
3711.02538574,0.01320591
3712.95419312,0.01219677
3714.88300049,0.01461017
3716.81180786,0.01447914
3718.74061523,0.01460422
3720.66942261,0.01422195
3722.59822998,0.01368329
3724.52703735,0.01428622
3726.45584473,0.01303459
3728.38465210,0.01439196
3730.31345947,0.01429221
3732.24226685,0.01287108
3734.17107422,0.01251979
3736.09988159,0.01179981
3738.02868896,0.01268559
3739.95749634,0.01389957
3741.88630371,0.01456960
3743.81511108,0.01093512
3745.74391846,0.01012638
3747.67272583,0.01373509
3749.60153320,0.01162463
3751.53034058,0.01046433
3753.45914795,0.01234630
3755.38795532,0.01355143
3757.31676270,0.01414836
3759.24557007,0.01299634
3761.17437744,0.01353154
3763.10318481,0.01446356
3765.03199219,0.01344913
3766.96079956,0.01369857
3768.88960693,0.01350751
3770.81841431,0.01289600
3772.74722168,0.01407324
3774.67602905,0.01405771
3776.60483643,0.01408922
3778.53364380,0.01369598
3780.46245117,0.01304753
3782.39125854,0.01401176
3784.32006592,0.01366983
3786.24887329,0.01361213
3788.17768066,0.01401883
3790.10648804,0.01396469
3792.03529541,0.01377542
3793.96410278,0.01399005
3795.89291016,0.01307162
3797.82171753,0.01286059
3799.75052490,0.01375243
3801.67933228,0.01047325
3803.60813965,0.01248452
3805.53694702,0.01381687
3807.46575439,0.01092910
3809.39456177,0.01371414
3811.32336914,0.01337139
3813.25217651,0.01384217
3815.18098389,0.01244432
3817.10979126,0.01066789
3819.03859863,0.01383805
3820.96740601,0.01081597
3822.89621338,0.01159679
3824.82502075,0.01380769
3826.75382812,0.01223845
3828.68263550,0.01342585
3830.61144287,0.01287731
3832.54025024,0.01237324
3834.46905762,0.01262123
3836.39786499,0.01192206
3838.32667236,0.01062417
3840.25547974,0.01160442
3842.18428711,0.01265203
3844.11309448,0.01200970
3846.04190186,0.01315377
3847.97070923,0.01304904
3849.89951660,0.01312195
3851.82832397,0.01143094
3853.75713135,0.00817085
3855.68593872,0.01004914
3857.61474609,0.01294425
3859.54355347,0.01270660
3861.47236084,0.01239642
3863.40116821,0.01197843
3865.32997559,0.01110197
3867.25878296,0.01267181
3869.18759033,0.01146395
3871.11639770,0.01041210
3873.04520508,0.01270206
3874.97401245,0.01151905
3876.90281982,0.01262776
3878.83162720,0.01291169
3880.76043457,0.01072902
3882.68924194,0.01278132
3884.61804932,0.01183227
3886.54685669,0.01059069
3888.47566406,0.01280035
3890.40447144,0.01197534
3892.33327881,0.01112941
3894.26208618,0.01248061
3896.19089355,0.01265263
3898.11970093,0.01198268
3900.04850830,0.01126912
3901.97731567,0.01103062
3903.90612305,0.01082895
3905.83493042,0.01109522
3907.76373779,0.01243795
3909.69254517,0.01239727
3911.62135254,0.01233458
3913.55015991,0.01259483
3915.47896728,0.01206370
3917.40777466,0.01170120
3919.33658203,0.01154669
3921.26538940,0.01217086
3923.19419678,0.01204454
3925.12300415,0.01165174
3927.05181152,0.01197801
3928.98061890,0.01212899
3930.90942627,0.01182755
3932.83823364,0.01131634
3934.76704102,0.01199490
3936.69584839,0.01214926
3938.62465576,0.01198397
3940.55346313,0.01217903
3942.48227051,0.01154947
3944.41107788,0.01169069
3946.33988525,0.01194229
3948.26869263,0.01157082
3950.19750000,0.01162951
3952.12630737,0.01187095
3954.05511475,0.01185656
3955.98392212,0.01178781
3957.91272949,0.01178580
3959.84153687,0.01182077
3961.77034424,0.01175711
3963.69915161,0.01167153
3965.62795898,0.01179319
3967.55676636,0.01162294
3969.48557373,0.01163464
3971.41438110,0.01171225
3973.34318848,0.01161832
3975.27199585,0.01165180
3977.20080322,0.01153215
3979.12961060,0.01160778
3981.05841797,0.01154439
3982.98722534,0.01149981
3984.91603271,0.01149597
3986.84484009,0.01151136
3988.77364746,0.01157776
3990.70245483,0.01134412
3992.63126221,0.01139813
3994.56006958,0.01140482
3996.48887695,0.01143904
3998.41768433,0.01144723
4000.34649170,0.01133117
4002.27529907,0.01139139
4004.20410645,0.01132481
4006.13291382,0.01134319
4008.06172119,0.01126640
4009.99052856,0.01123410
4011.91933594,0.01122092
4013.84814331,0.01119341
4015.77695068,0.01122922
4017.70575806,0.01115649
4019.63456543,0.01116590
4021.56337280,0.01113940
4023.49218018,0.01115100
4025.42098755,0.01105633
4027.34979492,0.01104089
4029.27860229,0.01106428
4031.20740967,0.01102792
4033.13621704,0.01105316
4035.06502441,0.01088845
4036.99383179,0.01092024
4038.92263916,0.01093556
4040.85144653,0.01086001
4042.78025391,0.01084278
4044.70906128,0.01081728
4046.63786865,0.01087718
4048.56667603,0.01085017
4050.49548340,0.01081026
4052.42429077,0.01081872
4054.35309814,0.01084924
4056.28190552,0.01075244
4058.21071289,0.01069860
4060.13952026,0.01069427
4062.06832764,0.01068306
4063.99713501,0.01063482
4065.92594238,0.01059559
4067.85474976,0.01071509
4069.78355713,0.01058881
4071.71236450,0.01056906
4073.64117187,0.01057209
4075.56997925,0.01051946
4077.49878662,0.01053187
4079.42759399,0.01047260
4081.35640137,0.01054868
4083.28520874,0.01039681
4085.21401611,0.01042854
4087.14282349,0.01044731
4089.07163086,0.01032862
4091.00043823,0.01039150
4092.92924561,0.01033132
4094.85805298,0.01039358
4096.78686035,0.01036462
4098.71566772,0.01031863
4100.64447510,0.01024156
4102.57328247,0.01024219
4104.50208984,0.01022903
4106.43089722,0.01006736
4108.35970459,0.01018443
4110.28851196,0.01013945
4112.21731934,0.01011992
4114.14612671,0.01015268
4116.07493408,0.01016415
4118.00374145,0.01015263
4119.93254883,0.01006314
4121.86135620,0.01010953
4123.79016357,0.00998740
4125.71897095,0.00997385
4127.64777832,0.00998515
4129.57658569,0.01001045
4131.50539307,0.01000234
4133.43420044,0.00987896
4135.36300781,0.00987275
4137.29181519,0.00980166
4139.22062256,0.00985682
4141.14942993,0.00984320
4143.07823730,0.00986489
4145.00704468,0.00987655
4146.93585205,0.00982384
4148.86465942,0.00979518
4150.79346680,0.00969093
4152.72227417,0.00981306
4154.65108154,0.00969062
4156.57988892,0.00962901
4158.50869629,0.00971056
4160.43750366,0.00961063
4162.36631103,0.00963438
4164.29511841,0.00960615
4166.22392578,0.00961815
4168.15273315,0.00958200
4170.08154053,0.00954736
4172.01034790,0.00951274
4173.93915527,0.00947509
4175.86796265,0.00949271
4177.79677002,0.00947614
4179.72557739,0.00952121
4181.65438477,0.00943816
4183.58319214,0.00942376
4185.51199951,0.00940958
4187.44080688,0.00936883
4189.36961426,0.00939635
4191.29842163,0.00937697
4193.22722900,0.00939514
4195.15603638,0.00930831
4197.08484375,0.00928957
4199.01365112,0.00930157
4200.94245850,0.00924649
4202.87126587,0.00922382
4204.80007324,0.00925081
4206.72888062,0.00925016
4208.65768799,0.00914247
4210.58649536,0.00913831
4212.51530273,0.00917536
4214.44411011,0.00915893
4216.37291748,0.00909351
4218.30172485,0.00910708
4220.23053223,0.00909652
4222.15933960,0.00899354
4224.08814697,0.00897697
4226.01695435,0.00898406
4227.94576172,0.00904175
4229.87456909,0.00895508
4231.80337646,0.00889320
4233.73218384,0.00899133
4235.66099121,0.00895275
4237.58979858,0.00889257
4239.51860596,0.00889457
4241.44741333,0.00881384
4243.37622070,0.00879496
4245.30502808,0.00885406
4247.23383545,0.00877425
4249.16264282,0.00886989
4251.09145020,0.00880665
4253.02025757,0.00864984
4254.94906494,0.00877605
4256.87787231,0.00867177
4258.80667969,0.00865713
4260.73548706,0.00873927
4262.66429443,0.00871107
4264.59310181,0.00862612
4266.52190918,0.00861354
4268.45071655,0.00866396
4270.37952393,0.00853604
4272.30833130,0.00855383
4274.23713867,0.00855141
4276.16594604,0.00855635
4278.09475342,0.00846229
4280.02356079,0.00847436
4281.95236816,0.00865290
4283.88117554,0.00843009
4285.80998291,0.00844404
4287.73879028,0.00847123
4289.66759766,0.00845577
4291.59640503,0.00853162
4293.52521240,0.00837003
4295.45401978,0.00836234
4297.38282715,0.00837367
4299.31163452,0.00835552
4301.24044189,0.00828184
4303.16924927,0.00832909
4305.09805664,0.00836516
4307.02686401,0.00822063
4308.95567139,0.00822688
4310.88447876,0.00820574
4312.81328613,0.00826521
4314.74209351,0.00824675
4316.67090088,0.00813968
4318.59970825,0.00814735
4320.52851562,0.00815614
4322.45732300,0.00817697
4324.38613037,0.00814806
4326.31493774,0.00812023
4328.24374512,0.00812298
4330.17255249,0.00815126
4332.10135986,0.00809053
4334.03016724,0.00810163
4335.95897461,0.00808793
4337.88778198,0.00800098
4339.81658936,0.00805415
4341.74539673,0.00796880
4343.67420410,0.00790332
4345.60301147,0.00790314
4347.53181885,0.00790157
4349.46062622,0.00785729
4351.38943359,0.00785211
4353.31824097,0.00789561
4355.24704834,0.00777007
4357.17585571,0.00785120
4359.10466309,0.00789758
4361.03347046,0.00782799
4362.96227783,0.00776070
4364.89108520,0.00767026
4366.81989258,0.00780321
4368.74869995,0.00779699
4370.67750732,0.00772599
4372.60631470,0.00769420
4374.53512207,0.00767674
4376.46392944,0.00772222
4378.39273682,0.00765979
4380.32154419,0.00767632
4382.25035156,0.00767796
4384.17915894,0.00759636
4386.10796631,0.00754487
4388.03677368,0.00751660
4389.96558105,0.00760314
4391.89438843,0.00765250
4393.82319580,0.00756844
4395.75200317,0.00758048
4397.68081055,0.00757006
4399.60961792,0.00746681
4401.53842529,0.00747826
4403.46723267,0.00746105
4405.39604004,0.00744271
4407.32484741,0.00746038
4409.25365478,0.00740197
4411.18246216,0.00734742
4413.11126953,0.00734876
4415.04007690,0.00737025
4416.96888428,0.00739068
4418.89769165,0.00736842
4420.82649902,0.00727721
4422.75530640,0.00729464
4424.68411377,0.00729490
4426.61292114,0.00729682
4428.54172852,0.00729956
4430.47053589,0.00715437
4432.39934326,0.00718788
4434.32815063,0.00721275
4436.25695801,0.00717244
4438.18576538,0.00720047
4440.11457275,0.00713069
4442.04338013,0.00708330
4443.97218750,0.00710879
4445.90099487,0.00714771
4447.82980225,0.00712060
4449.75860962,0.00704962
4451.68741699,0.00702238
4453.61622437,0.00709731
4455.54503174,0.00701628
4457.47383911,0.00688972
4459.40264648,0.00701301
4461.33145386,0.00701518
4463.26026123,0.00696523
4465.18906860,0.00694528
4467.11787598,0.00688419
4469.04668335,0.00685441
4470.97549072,0.00688908
4472.90429810,0.00693478
4474.83310547,0.00688967
4476.76191284,0.00688432
4478.69072021,0.00681583
4480.61952759,0.00684015
4482.54833496,0.00682609
4484.47714233,0.00673059
4486.40594971,0.00679703
4488.33475708,0.00676455
4490.26356445,0.00680633
4492.19237183,0.00680756
4494.12117920,0.00675618
4496.04998657,0.00671909
4497.97879395,0.00663842
4499.90760132,0.00669234
4501.83640869,0.00666544
4503.76521606,0.00664518
4505.69402344,0.00660475
4507.62283081,0.00659793
4509.55163818,0.00660940
4511.48044556,0.00655514
4513.40925293,0.00656256
4515.33806030,0.00649671
4517.26686768,0.00657581
4519.19567505,0.00655444
4521.12448242,0.00644796
4523.05328979,0.00650391
4524.98209717,0.00645672
4526.91090454,0.00645453
4528.83971191,0.00646870
4530.76851929,0.00642014
4532.69732666,0.00636900
4534.62613403,0.00644341
4536.55494141,0.00647602
4538.48374878,0.00637649
4540.41255615,0.00644017
4542.34136353,0.00642210
4544.27017090,0.00634526
4546.19897827,0.00632375
4548.12778564,0.00626972
4550.05659302,0.00627394
4551.98540039,0.00626808
4553.91420776,0.00629662
4555.84301514,0.00630226
4557.77182251,0.00626775
4559.70062988,0.00632967
4561.62943726,0.00628830
4563.55824463,0.00619338
4565.48705200,0.00623147
4567.41585937,0.00618691
4569.34466675,0.00617363
4571.27347412,0.00622099
4573.20228149,0.00616169
4575.13108887,0.00613930
4577.05989624,0.00611404
4578.98870361,0.00610382
4580.91751099,0.00607609
4582.84631836,0.00606101
4584.77512573,0.00609320
4586.70393311,0.00603785
4588.63274048,0.00606971
4590.56154785,0.00605355
4592.49035522,0.00594640
4594.41916260,0.00597219
4596.34796997,0.00593359
4598.27677734,0.00585783
4600.20558472,0.00595467
4602.13439209,0.00602497
4604.06319946,0.00592181
4605.99200684,0.00581139
4607.92081421,0.00585824
4609.84962158,0.00594297
4611.77842895,0.00585879
4613.70723633,0.00586424
4615.63604370,0.00587700
4617.56485107,0.00578958
4619.49365845,0.00587530
4621.42246582,0.00587119
4623.35127319,0.00584161
4625.28008057,0.00577343
4627.20888794,0.00567226
4629.13769531,0.00576913
4631.06650269,0.00574388
4632.99531006,0.00577475
4634.92411743,0.00579237
4636.85292480,0.00569791
4638.78173218,0.00575995
4640.71053955,0.00574104
4642.63934692,0.00567591
4644.56815430,0.00563599
4646.49696167,0.00565778
4648.42576904,0.00566099
4650.35457642,0.00560456
4652.28338379,0.00562788
4654.21219116,0.00558252
4656.14099853,0.00560137
4658.06980591,0.00561140
4659.99861328,0.00558294
4661.92742065,0.00561548
4663.85622803,0.00551005
4665.78503540,0.00543368
4667.71384277,0.00544683
4669.64265015,0.00551527
4671.57145752,0.00551717
4673.50026489,0.00544604
4675.42907227,0.00551154
4677.35787964,0.00551585
4679.28668701,0.00544077
4681.21549438,0.00538173
4683.14430176,0.00537500
4685.07310913,0.00542059
4687.00191650,0.00545013
4688.93072388,0.00544080
4690.85953125,0.00540307
4692.78833862,0.00539050
4694.71714600,0.00530116
4696.64595337,0.00533244
4698.57476074,0.00537014
4700.50356812,0.00527663
4702.43237549,0.00534901
4704.36118286,0.00535486
4706.28999023,0.00523807
4708.21879761,0.00522707
4710.14760498,0.00533033
4712.07641235,0.00525015
4714.00521973,0.00517276
4715.93402710,0.00528230
4717.86283447,0.00520700
4719.79164185,0.00521075
4721.72044922,0.00515510
4723.64925659,0.00509179
4725.57806396,0.00517092
4727.50687134,0.00512134
4729.43567871,0.00517967
4731.36448608,0.00516967
4733.29329346,0.00515841
4735.22210083,0.00515186
4737.15090820,0.00511924
4739.07971558,0.00511481
4741.00852295,0.00501511
4742.93733032,0.00507463
4744.86613770,0.00504372
4746.79494507,0.00505637
4748.72375244,0.00509713
4750.65255981,0.00499586
4752.58136719,0.00501621
4754.51017456,0.00498296
4756.43898193,0.00501784
4758.36778931,0.00503139
4760.29659668,0.00500394
4762.22540405,0.00502095
4764.15421143,0.00495699
4766.08301880,0.00491797
4768.01182617,0.00487917
4769.94063354,0.00487301
4771.86944092,0.00489039
4773.79824829,0.00485616
4775.72705566,0.00480704
4777.65586304,0.00490572
4779.58467041,0.00492958
4781.51347778,0.00488367
4783.44228516,0.00489321
4785.37109253,0.00481373
4787.29989990,0.00486951
4789.22870728,0.00479417
4791.15751465,0.00474554
4793.08632202,0.00483331
4795.01512939,0.00480860
4796.94393677,0.00479400
4798.87274414,0.00470892
4800.80155151,0.00470150
4802.73035889,0.00463240
4804.65916626,0.00474685
4806.58797363,0.00477399
4808.51678101,0.00461614
4810.44558838,0.00478315
4812.37439575,0.00464212
4814.30320312,0.00464766
4816.23201050,0.00472975
4818.16081787,0.00460769
4820.08962524,0.00473533
4822.01843262,0.00465205
4823.94723999,0.00459561
4825.87604736,0.00459309
4827.80485474,0.00463599
4829.73366211,0.00469392
4831.66246948,0.00457198
4833.59127686,0.00457486
4835.52008423,0.00455019
4837.44889160,0.00457815
4839.37769897,0.00456827
4841.30650635,0.00449564
4843.23531372,0.00448299
4845.16412109,0.00441656
4847.09292847,0.00448625
4849.02173584,0.00448856
4850.95054321,0.00440783
4852.87935059,0.00445617
4854.80815796,0.00446589
4856.73696533,0.00445641
4858.66577270,0.00448253
4860.59458008,0.00445613
4862.52338745,0.00446480
4864.45219482,0.00447083
4866.38100220,0.00440366
4868.30980957,0.00437332
4870.23861694,0.00438672
4872.16742432,0.00441478
4874.09623169,0.00432829
4876.02503906,0.00426710
4877.95384644,0.00426665
4879.88265381,0.00425398
4881.81146118,0.00436204
4883.74026855,0.00436339
4885.66907593,0.00431283
4887.59788330,0.00428909
4889.52669067,0.00431163
4891.45549805,0.00434667
4893.38430542,0.00426475
4895.31311279,0.00432040
4897.24192017,0.00428155
4899.17072754,0.00423514
4901.09953491,0.00429534
4903.02834228,0.00417197
4904.95714966,0.00419630
4906.88595703,0.00418492
4908.81476440,0.00414739
4910.74357178,0.00428769
4912.67237915,0.00416738
4914.60118652,0.00409448
4916.52999390,0.00416595
4918.45880127,0.00410302
4920.38760864,0.00414444
4922.31641602,0.00417740
4924.24522339,0.00413110
4926.17403076,0.00412915
4928.10283813,0.00413234
4930.03164551,0.00410364
4931.96045288,0.00406559
4933.88926025,0.00408057
4935.81806763,0.00405767
4937.74687500,0.00404762
4939.67568237,0.00402434
4941.60448975,0.00398096
4943.53329712,0.00405233
4945.46210449,0.00406931
4947.39091187,0.00400350
4949.31971924,0.00395510
4951.24852661,0.00393465
4953.17733398,0.00388649
4955.10614136,0.00388008
4957.03494873,0.00394093
4958.96375610,0.00389841
4960.89256348,0.00388391
4962.82137085,0.00394716
4964.75017822,0.00398351
4966.67898560,0.00394858
4968.60779297,0.00386006
4970.53660034,0.00384555
4972.46540771,0.00387142
4974.39421509,0.00385247
4976.32302246,0.00387742
4978.25182983,0.00386285
4980.18063721,0.00374683
4982.10944458,0.00382667
4984.03825195,0.00387126
4985.96705933,0.00377991
4987.89586670,0.00379303
4989.82467407,0.00382201
4991.75348145,0.00382179
4993.68228882,0.00369089
4995.61109619,0.00372610
4997.53990356,0.00378414
4999.46871094,0.00373978
5001.39751831,0.00378133
5003.32632568,0.00367453
5005.25513306,0.00370809
5007.18394043,0.00370350
5009.11274780,0.00368959
5011.04155518,0.00373671
5012.97036255,0.00364569
5014.89916992,0.00371082
5016.82797729,0.00368871
5018.75678467,0.00371170
5020.68559204,0.00366197
5022.61439941,0.00360970
5024.54320679,0.00367829
5026.47201416,0.00357864
5028.40082153,0.00370317
5030.32962891,0.00361597
5032.25843628,0.00352881
5034.18724365,0.00361216
5036.11605103,0.00350589
5038.04485840,0.00363895
5039.97366577,0.00357873
5041.90247314,0.00347475
5043.83128052,0.00357570
5045.76008789,0.00356874
5047.68889526,0.00356723
5049.61770264,0.00351898
5051.54651001,0.00352115
5053.47531738,0.00352090
5055.40412476,0.00349971
5057.33293213,0.00346279
5059.26173950,0.00341043
5061.19054687,0.00347894
5063.11935425,0.00352144
5065.04816162,0.00347690
5066.97696899,0.00342228
5068.90577637,0.00342894
5070.83458374,0.00344956
5072.76339111,0.00349106
5074.69219849,0.00349113
5076.62100586,0.00341040
5078.54981323,0.00341605
5080.47862061,0.00339251
5082.40742798,0.00338971
5084.33623535,0.00344551
5086.26504272,0.00340598
5088.19385010,0.00339515
5090.12265747,0.00340253
5092.05146484,0.00334770
5093.98027222,0.00329408
5095.90907959,0.00328594
5097.83788696,0.00333456
5099.76669434,0.00334686
5101.69550171,0.00328892
5103.62430908,0.00326449
5105.55311645,0.00325638
5107.48192383,0.00323910
5109.41073120,0.00325487
5111.33953857,0.00325481
5113.26834595,0.00322621
5115.19715332,0.00322949
5117.12596069,0.00326763
5119.05476807,0.00326604
5120.98357544,0.00321608
5122.91238281,0.00316061
5124.84119019,0.00317774
5126.76999756,0.00325988
5128.69880493,0.00320488
5130.62761230,0.00314423
5132.55641968,0.00321078
5134.48522705,0.00319632
5136.41403442,0.00316701
5138.34284180,0.00317186
5140.27164917,0.00314879
5142.20045654,0.00315625
5144.12926392,0.00318192
5146.05807129,0.00316495
5147.98687866,0.00310626
5149.91568603,0.00312812
5151.84449341,0.00313644
5153.77330078,0.00314017
5155.70210815,0.00317550
5157.63091553,0.00306017
5159.55972290,0.00304519
5161.48853027,0.00306076
5163.41733765,0.00296528
5165.34614502,0.00301908
5167.27495239,0.00306050
5169.20375977,0.00296934
5171.13256714,0.00290992
5173.06137451,0.00301329
5174.99018188,0.00306821
5176.91898926,0.00301688
5178.84779663,0.00299131
5180.77660400,0.00292584
5182.70541138,0.00298228
5184.63421875,0.00299701
5186.56302612,0.00295908
5188.49183350,0.00297473
5190.42064087,0.00291445
5192.34944824,0.00298381
5194.27825562,0.00299322
5196.20706299,0.00287896
5198.13587036,0.00287982
5200.06467773,0.00291069
5201.99348511,0.00293500
5203.92229248,0.00292211
5205.85109985,0.00285422
5207.77990723,0.00284014
5209.70871460,0.00285586
5211.63752197,0.00284854
5213.56632935,0.00288879
5215.49513672,0.00283275
5217.42394409,0.00285449
5219.35275146,0.00291338
5221.28155884,0.00281956
5223.21036621,0.00291150
5225.13917358,0.00284951
5227.06798096,0.00275558
5228.99678833,0.00284708
5230.92559570,0.00277714
5232.85440308,0.00280206
5234.78321045,0.00283847
5236.71201782,0.00284838
5238.64082520,0.00283365
5240.56963257,0.00278587
5242.49843994,0.00279928
5244.42724731,0.00275897
5246.35605469,0.00275915
5248.28486206,0.00264155
5250.21366943,0.00267686
5252.14247681,0.00282366
5254.07128418,0.00269241
5256.00009155,0.00268235
5257.92889893,0.00273746
5259.85770630,0.00269557
5261.78651367,0.00266979
5263.71532104,0.00269906
5265.64412842,0.00269887
5267.57293579,0.00267968
5269.50174316,0.00274365
5271.43055054,0.00269877
5273.35935791,0.00271590
5275.28816528,0.00273414
5277.21697266,0.00263343
5279.14578003,0.00265055
5281.07458740,0.00263510
5283.00339478,0.00260857
5284.93220215,0.00262074
5286.86100952,0.00263357
5288.78981689,0.00259720
5290.71862427,0.00251823
5292.64743164,0.00261072
5294.57623901,0.00265180
5296.50504639,0.00260639
5298.43385376,0.00263881
5300.36266113,0.00260602
5302.29146851,0.00262365
5304.22027588,0.00263715
5306.14908325,0.00255134
5308.07789062,0.00259036
5310.00669800,0.00258321
5311.93550537,0.00253765
5313.86431274,0.00263851
5315.79312012,0.00256965
5317.72192749,0.00252994
5319.65073486,0.00263416
5321.57954224,0.00253736
5323.50834961,0.00252553
5325.43715698,0.00256382
5327.36596436,0.00248688
5329.29477173,0.00251862
5331.22357910,0.00247800
5333.15238647,0.00239999
5335.08119385,0.00249015
5337.01000122,0.00242593
5338.93880859,0.00230954
5340.86761597,0.00249655
5342.79642334,0.00246986
5344.72523071,0.00233346
5346.65403809,0.00245742
5348.58284546,0.00243067
5350.51165283,0.00249405
5352.44046020,0.00249374
5354.36926758,0.00227566
5356.29807495,0.00233749
5358.22688232,0.00238748
5360.15568970,0.00236783
5362.08449707,0.00241582
5364.01330444,0.00238653
5365.94211182,0.00236188
5367.87091919,0.00240408
5369.79972656,0.00238637
5371.72853394,0.00232478
5373.65734131,0.00236712
5375.58614868,0.00232116
5377.51495605,0.00230767
5379.44376343,0.00235253
5381.37257080,0.00230742
5383.30137817,0.00235767
5385.23018555,0.00232799
5387.15899292,0.00226398
5389.08780029,0.00230079
5391.01660767,0.00234333
5392.94541504,0.00234025
5394.87422241,0.00223432
5396.80302978,0.00223282
5398.73183716,0.00232710
5400.66064453,0.00231341
5402.58945190,0.00226080
5404.51825928,0.00223499
5406.44706665,0.00219564
5408.37587402,0.00221718
5410.30468140,0.00223934
5412.23348877,0.00217527
5414.16229614,0.00218103
5416.09110352,0.00226127
5418.01991089,0.00227818
5419.94871826,0.00224487
5421.87752563,0.00228021
5423.80633301,0.00224156
5425.73514038,0.00217976
5427.66394775,0.00215919
5429.59275513,0.00208890
5431.52156250,0.00217649
5433.45036987,0.00213752
5435.37917725,0.00207897
5437.30798462,0.00221491
5439.23679199,0.00212422
5441.16559936,0.00207719
5443.09440674,0.00218180
5445.02321411,0.00213013
5446.95202148,0.00208490
5448.88082886,0.00215737
5450.80963623,0.00213579
5452.73844360,0.00214831
5454.66725098,0.00215957
5456.59605835,0.00207347
5458.52486572,0.00220122
5460.45367310,0.00216360
5462.38248047,0.00201549
5464.31128784,0.00203985
5466.24009521,0.00205920
5468.16890259,0.00211953
5470.09770996,0.00206264
5472.02651733,0.00207428
5473.95532471,0.00210640
5475.88413208,0.00210263
5477.81293945,0.00209851
5479.74174683,0.00199625
5481.67055420,0.00207420
5483.59936157,0.00208001
5485.52816895,0.00208752
5487.45697632,0.00208170
5489.38578369,0.00196142
5491.31459106,0.00204294
5493.24339844,0.00199793
5495.17220581,0.00199025
5497.10101318,0.00208470
5499.02982056,0.00202430
5500.95862793,0.00201106
5502.88743530,0.00199703
5504.81624268,0.00197217
5506.74505005,0.00195555
5508.67385742,0.00196359
5510.60266479,0.00195167
5512.53147217,0.00190826
5514.46027954,0.00198795
5516.38908691,0.00202002
5518.31789429,0.00194236
5520.24670166,0.00190243
5522.17550903,0.00191967
5524.10431641,0.00197756
5526.03312378,0.00196835
5527.96193115,0.00194222
5529.89073853,0.00192051
5531.81954590,0.00189824
5533.74835327,0.00198186
5535.67716064,0.00193455
5537.60596802,0.00188500
5539.53477539,0.00192135
5541.46358276,0.00184065
5543.39239014,0.00190078
5545.32119751,0.00192119
5547.25000488,0.00187971
5549.17881226,0.00192908
5551.10761963,0.00190748
5553.03642700,0.00191572
5554.96523437,0.00190012
5556.89404175,0.00190362
5558.82284912,0.00186880
5560.75165649,0.00182908
5562.68046387,0.00190659
5564.60927124,0.00187442
5566.53807861,0.00183885
5568.46688599,0.00183536
5570.39569336,0.00181582
5572.32450073,0.00186229
5574.25330811,0.00189501
5576.18211548,0.00179746
5578.11092285,0.00176376
5580.03973022,0.00189253
5581.96853760,0.00183468
5583.89734497,0.00179233
5585.82615234,0.00187047
5587.75495972,0.00184486
5589.68376709,0.00184168
5591.61257446,0.00183170
5593.54138184,0.00183430
5595.47018921,0.00183931
5597.39899658,0.00180745
5599.32780395,0.00179927
5601.25661133,0.00182123
5603.18541870,0.00184553
5605.11422607,0.00180289
5607.04303345,0.00178454
5608.97184082,0.00179025
5610.90064819,0.00179970
5612.82945557,0.00181592
5614.75826294,0.00175784
5616.68707031,0.00173658
5618.61587769,0.00180677
5620.54468506,0.00179045
5622.47349243,0.00171625
5624.40229980,0.00180069
5626.33110718,0.00181445
5628.25991455,0.00171429
5630.18872192,0.00174789
5632.11752930,0.00172123
5634.04633667,0.00169751
5635.97514404,0.00173355
5637.90395142,0.00171757
5639.83275879,0.00176321
5641.76156616,0.00172193
5643.69037353,0.00165617
5645.61918091,0.00169085
5647.54798828,0.00167904
5649.47679565,0.00167642
5651.40560303,0.00167831
5653.33441040,0.00169751
5655.26321777,0.00170863
5657.19202515,0.00165952
5659.12083252,0.00166682
5661.04963989,0.00165061
5662.97844727,0.00164517
5664.90725464,0.00169369
5666.83606201,0.00168778
5668.76486938,0.00170484
5670.69367676,0.00169129
5672.62248413,0.00162829
5674.55129150,0.00162437
5676.48009888,0.00161404
5678.40890625,0.00160721
5680.33771362,0.00160710
5682.26652100,0.00154739
5684.19532837,0.00157172
5686.12413574,0.00163384
5688.05294311,0.00162018
5689.98175049,0.00162871
5691.91055786,0.00157008
5693.83936523,0.00158620
5695.76817261,0.00167518
5697.69697998,0.00160848
5699.62578735,0.00161579
5701.55459473,0.00160450
5703.48340210,0.00155187
5705.41220947,0.00158027
5707.34101685,0.00148232
5709.26982422,0.00149603
5711.19863159,0.00159609
5713.12743896,0.00152881
5715.05624634,0.00152429
5716.98505371,0.00157440
5718.91386108,0.00156376
5720.84266846,0.00153855
5722.77147583,0.00152515
5724.70028320,0.00153345
5726.62909058,0.00150951
5728.55789795,0.00151554
5730.48670532,0.00154529
5732.41551270,0.00150254
5734.34432007,0.00149060
5736.27312744,0.00150870
5738.20193481,0.00148783
5740.13074219,0.00149591
5742.05954956,0.00152622
5743.98835693,0.00150731
5745.91716431,0.00148191
5747.84597168,0.00150283
5749.77477905,0.00150124
5751.70358643,0.00147698
5753.63239380,0.00145039
5755.56120117,0.00142872
5757.49000854,0.00141319
5759.41881592,0.00144425
5761.34762329,0.00152066
5763.27643066,0.00143814
5765.20523804,0.00140461
5767.13404541,0.00150666
5769.06285278,0.00146376
5770.99166016,0.00140030
5772.92046753,0.00137208
5774.84927490,0.00141734
5776.77808228,0.00145111
5778.70688965,0.00140064
5780.63569702,0.00143706
5782.56450439,0.00139144
5784.49331177,0.00135160
5786.42211914,0.00142147
5788.35092651,0.00142211
5790.27973389,0.00139864
5792.20854126,0.00138990
5794.13734863,0.00142980
5796.06615601,0.00147748
5797.99496338,0.00146776
5799.92377075,0.00144286
5801.85257812,0.00141393
5803.78138550,0.00133801
5805.71019287,0.00133858
5807.63900024,0.00141254
5809.56780762,0.00133920
5811.49661499,0.00133395
5813.42542236,0.00137220
5815.35422974,0.00131350
5817.28303711,0.00132655
5819.21184448,0.00131069
5821.14065186,0.00139493
5823.06945923,0.00144829
5824.99826660,0.00127120
5826.92707397,0.00125116
5828.85588135,0.00131072
5830.78468872,0.00128328
5832.71349609,0.00124848
5834.64230347,0.00125235
5836.57111084,0.00137936
5838.49991821,0.00138085
5840.42872559,0.00129795
5842.35753296,0.00133887
5844.28634033,0.00130055
5846.21514770,0.00128972
5848.14395508,0.00134416
5850.07276245,0.00132645
5852.00156982,0.00133409
5853.93037720,0.00129224
5855.85918457,0.00126682
5857.78799194,0.00130549
5859.71679932,0.00126272
5861.64560669,0.00123770
5863.57441406,0.00124863
5865.50322144,0.00122517
5867.43202881,0.00127010
5869.36083618,0.00129981
5871.28964355,0.00120355
5873.21845093,0.00123221
5875.14725830,0.00126878
5877.07606567,0.00120985
5879.00487305,0.00128205
5880.93368042,0.00124735
5882.86248779,0.00119360
5884.79129517,0.00121618
5886.72010254,0.00117661
5888.64890991,0.00123631
5890.57771728,0.00121971
5892.50652466,0.00114978
5894.43533203,0.00117605
5896.36413940,0.00120189
5898.29294678,0.00120114
5900.22175415,0.00117671
5902.15056152,0.00119115
5904.07936890,0.00117286
5906.00817627,0.00116321
5907.93698364,0.00120120
5909.86579102,0.00120312
5911.79459839,0.00118521
5913.72340576,0.00119657
5915.65221313,0.00123774
5917.58102051,0.00123104
5919.50982788,0.00120162
5921.43863525,0.00114040
5923.36744263,0.00115715
5925.29625000,0.00116709
5927.22505737,0.00110616
5929.15386475,0.00120081
5931.08267212,0.00117032
5933.01147949,0.00110623
5934.94028686,0.00117134
5936.86909424,0.00113142
5938.79790161,0.00112649
5940.72670898,0.00112845
5942.65551636,0.00113121
5944.58432373,0.00113852
5946.51313110,0.00107458
5948.44193848,0.00109307
5950.37074585,0.00111840
5952.29955322,0.00105402
5954.22836060,0.00109373
5956.15716797,0.00116970
5958.08597534,0.00112695
5960.01478271,0.00113786
5961.94359009,0.00108602
5963.87239746,0.00103524
5965.80120483,0.00109594
5967.73001221,0.00105178
5969.65881958,0.00109856
5971.58762695,0.00109373
5973.51643433,0.00102006
5975.44524170,0.00109401
5977.37404907,0.00107808
5979.30285645,0.00107853
5981.23166382,0.00108652
5983.16047119,0.00104329
5985.08927856,0.00105408
5987.01808594,0.00105818
5988.94689331,0.00106924
5990.87570068,0.00105363
5992.80450806,0.00106759
5994.73331543,0.00106372
5996.66212280,0.00102606
5998.59093018,0.00104483
6000.51973755,0.00102127
