399.26312622,0.00068146
401.19193359,0.00064299
403.12074097,0.00038776
405.04954834,0.00082984
406.97835571,0.00055703
408.90716309,0.00022862
410.83597046,0.00094979
412.76477783,0.00087530
414.69358521,0.00051714
416.62239258,0.00083774
418.55119995,0.00056025
420.48000732,0.00071875
422.40881470,0.00079987
424.33762207,0.00052160
426.26642944,0.00085877
428.19523682,0.00064908
430.12404419,0.00061772
432.05285156,0.00104575
433.98165894,0.00095967
435.91046631,0.00066737
437.83927368,0.00065673
439.76808105,0.00088312
441.69688843,0.00055676
443.62569580,0.00013602
445.55450317,0.00076797
447.48331055,0.00129121
449.41211792,0.00100022
451.34092529,0.00081848
453.26973267,0.00049566
455.19854004,0.00051987
457.12734741,0.00056981
459.05615479,0.00024423
460.98496216,0.00059300
462.91376953,0.00079186
464.84257690,0.00067874
466.77138428,0.00038321
468.70019165,0.00035085
470.62899902,0.00056431
472.55780640,0.00036043
474.48661377,0.00049925
476.41542114,0.00020720
478.34422852,0.00013107
480.27303589,0.00025938
482.20184326,0.00026826
484.13065063,0.00085149
486.05945801,0.00027792
487.98826538,-0.00013786
489.91707275,0.00012141
491.84588013,-0.00004137
493.77468750,0.00003038
495.70349487,0.00021346
497.63230225,0.00048752
499.56110962,0.00014822
501.48991699,-0.00014073
503.41872437,0.00020886
505.34753174,0.00027555
507.27633911,-0.00004581
509.20514648,-0.00000863
511.13395386,0.00023340
513.06276123,-0.00002998
514.99156860,-0.00001200
516.92037598,0.00029813
518.84918335,0.00018610
520.77799072,-0.00019171
522.70679810,0.00018109
524.63560547,0.00053657
526.56441284,0.00017499
528.49322021,0.00017706
530.42202759,0.00002218
532.35083496,0.00027388
534.27964233,0.00063847
536.20844971,0.00013433
538.13725708,0.00010019
540.06606445,0.00004965
541.99487183,-0.00013366
543.92367920,0.00009065
545.85248657,0.00023369
547.78129395,0.00018596
549.71010132,0.00004273
551.63890869,0.00007457
553.56771606,0.00014294
555.49652344,0.00000969
557.42533081,0.00010642
559.35413818,0.00047915
561.28294556,0.00044306
563.21175293,0.00016097
565.14056030,0.00015941
567.06936768,0.00013679
568.99817505,0.00000875
570.92698242,0.00008207
572.85578979,0.00001920
574.78459717,-0.00007438
576.71340454,0.00019284
578.64221191,0.00007954
580.57101929,0.00003358
582.49982666,0.00025390
584.42863403,0.00008571
586.35744141,0.00022414
588.28624878,0.00009318
590.21505615,0.00010487
592.14386353,0.00023539
594.07267090,0.00002987
596.00147827,0.00022152
597.93028564,0.00030545
599.85909302,0.00014253
601.78790039,-0.00000380
603.71670776,0.00038251
605.64551514,0.00014071
607.57432251,-0.00036042
609.50312988,0.00006056
611.43193726,0.00006665
613.36074463,-0.00014414
615.28955200,0.00011075
617.21835938,0.00023981
619.14716675,-0.00017879
621.07597412,0.00009114
623.00478149,0.00026941
624.93358887,-0.00016626
626.86239624,-0.00001722
628.79120361,0.00010279
630.72001099,0.00055998
632.64881836,0.00053769
634.57762573,0.00037191
636.50643311,0.00080747
638.43524048,0.00048824
640.36404785,0.00052856
642.29285522,0.00084243
644.22166260,0.00077291
646.15046997,0.00065040
648.07927734,0.00044536
650.00808472,0.00103596
651.93689209,0.00117004
653.86569946,0.00102034
655.79450684,0.00148111
657.72331421,0.00128873
659.65212158,0.00133759
661.58092896,0.00145291
663.50973633,0.00112902
665.43854370,0.00130410
667.36735107,0.00127939
669.29615845,0.00122627
671.22496582,0.00154747
673.15377319,0.00157675
675.08258057,0.00137023
677.01138794,0.00146409
678.94019531,0.00159838
680.86900269,0.00141711
682.79781006,0.00150389
684.72661743,0.00161374
686.65542480,0.00142988
688.58423218,0.00146147
690.51303955,0.00181654
692.44184692,0.00177759
694.37065430,0.00173039
696.29946167,0.00245431
698.22826904,0.00266592
700.15707642,0.00245321
702.08588379,0.00226587
704.01469116,0.00236892
705.94349854,0.00250014
707.87230591,0.00152527
709.80111328,0.00133675
711.72992065,0.00123518
713.65872803,0.00046583
715.58753540,0.00052011
717.51634277,0.00028721
719.44515015,0.00048163
721.37395752,0.00065371
723.30276489,0.00001595
725.23157227,0.00022227
727.16037964,0.00037163
729.08918701,0.00026258
731.01799438,0.00045615
732.94680176,0.00008212
734.87560913,-0.00011054
736.80441650,0.00024182
738.73322388,0.00022621
740.66203125,0.00028930
742.59083862,0.00046039
744.51964600,0.00022173
746.44845337,0.00022785
748.37726074,0.00030907
750.30606812,0.00006106
752.23487549,0.00012670
754.16368286,0.00023405
756.09249023,0.00009573
758.02129761,0.00015655
759.95010498,0.00020204
761.87891235,0.00011575
763.80771973,0.00017953
765.73652710,-0.00000987
767.66533447,0.00007071
769.59414185,0.00036136
771.52294922,0.00017933
773.45175659,0.00026098
775.38056396,0.00030882
777.30937134,0.00016520
779.23817871,0.00021062
781.16698608,0.00035309
783.09579346,0.00027063
785.02460083,0.00017019
786.95340820,0.00034337
788.88221558,0.00032018
790.81102295,0.00043956
792.73983032,0.00029130
794.66863770,0.00026183
796.59744507,0.00060684
798.52625244,0.00036020
800.45505981,0.00023102
802.38386719,0.00019633
804.31267456,0.00019573
806.24148193,0.00041702
808.17028931,0.00052470
810.09909668,0.00043908
812.02790405,0.00029732
813.95671143,0.00036688
815.88551880,0.00043371
817.81432617,0.00039389
819.74313354,0.00015887
821.67194092,0.00023946
823.60074829,0.00026403
825.52955566,0.00016810
827.45836304,0.00049789
829.38717041,0.00049947
831.31597778,0.00050276
833.24478516,0.00045692
835.17359253,0.00074871
837.10239990,0.00083022
839.03120728,0.00033035
840.96001465,0.00083320
842.88882202,0.00074360
844.81762939,0.00043835
846.74643677,0.00080516
848.67524414,0.00056984
850.60405151,0.00055241
852.53285889,0.00065941
854.46166626,0.00058057
856.39047363,0.00047363
858.31928101,0.00036736
860.24808838,0.00047371
862.17689575,0.00055182
864.10570313,0.00045769
866.03451050,0.00023855
867.96331787,0.00017139
869.89212524,0.00019382
871.82093262,0.00027852
873.74973999,0.00026170
875.67854736,0.00031997
877.60735474,0.00049711
879.53616211,0.00029119
881.46496948,0.00030599
883.39377686,0.00051145
885.32258423,0.00039173
887.25139160,0.00033715
889.18019897,0.00048899
891.10900635,0.00054772
893.03781372,0.00060730
894.96662109,0.00059688
896.89542847,0.00016427
898.82423584,0.00015100
900.75304321,0.00024169
902.68185059,0.00039061
904.61065796,0.00072704
906.53946533,0.00033854
908.46827271,0.00053624
910.39708008,0.00074056
912.32588745,0.00050974
914.25469482,0.00066202
916.18350220,0.00046234
918.11230957,0.00052167
920.04111694,0.00068235
921.96992432,0.00071928
923.89873169,0.00070617
925.82753906,0.00063652
927.75634644,0.00077134
929.68515381,0.00080175
931.61396118,0.00099726
933.54276855,0.00102165
935.47157593,0.00096684
937.40038330,0.00101485
939.32919067,0.00101501
941.25799805,0.00102913
943.18680542,0.00105558
945.11561279,0.00117123
947.04442017,0.00098311
948.97322754,0.00105614
950.90203491,0.00107763
952.83084229,0.00104771
954.75964966,0.00128833
956.68845703,0.00092802
958.61726440,0.00085104
960.54607178,0.00103094
962.47487915,0.00108002
964.40368652,0.00111326
966.33249390,0.00127152
968.26130127,0.00156268
970.19010864,0.00122366
972.11891602,0.00130705
974.04772339,0.00132174
975.97653076,0.00125561
977.90533813,0.00174965
979.83414551,0.00137086
981.76295288,0.00153601
983.69176025,0.00197761
985.62056763,0.00174640
987.54937500,0.00218134
989.47818237,0.00253605
991.40698975,0.00271269
993.33579712,0.00288380
995.26460449,0.00305335
997.19341187,0.00340723
999.12221924,0.00343449
1001.05102661,0.00374084
1002.97983398,0.00397030
1004.90864136,0.00405367
1006.83744873,0.00452881
1008.76625610,0.00464566
1010.69506348,0.00491777
1012.62387085,0.00514417
1014.55267822,0.00526203
1016.48148560,0.00590472
1018.41029297,0.00612861
1020.33910034,0.00635267
1022.26790771,0.00639347
1024.19671509,0.00635243
1026.12552246,0.00706472
1028.05432983,0.00726824
1029.98313721,0.00739413
1031.91194458,0.00772181
1033.84075195,0.00773590
1035.76955933,0.00797355
1037.69836670,0.00808382
1039.62717407,0.00801599
1041.55598145,0.00799282
1043.48478882,0.00796700
1045.41359619,0.00793419
1047.34240356,0.00786466
1049.27121094,0.00772686
1051.20001831,0.00761156
1053.12882568,0.00765335
1055.05763306,0.00754132
1056.98644043,0.00719606
1058.91524780,0.00696221
1060.84405518,0.00684889
1062.77286255,0.00660416
1064.70166992,0.00647787
1066.63047729,0.00628598
1068.55928467,0.00594968
1070.48809204,0.00571343
1072.41689941,0.00533094
1074.34570679,0.00523289
1076.27451416,0.00507563
1078.20332153,0.00469735
1080.13212891,0.00462654
1082.06093628,0.00445696
1083.98974365,0.00415158
1085.91855103,0.00394803
1087.84735840,0.00391987
1089.77616577,0.00377884
1091.70497314,0.00366481
1093.63378052,0.00345712
1095.56258789,0.00305332
1097.49139526,0.00319912
1099.42020264,0.00330504
1101.34901001,0.00307621
1103.27781738,0.00302540
1105.20662476,0.00301358
1107.13543213,0.00283607
1109.06423950,0.00298158
1110.99304687,0.00311266
1112.92185425,0.00272455
1114.85066162,0.00297175
1116.77946899,0.00303484
1118.70827637,0.00261550
1120.63708374,0.00285331
1122.56589111,0.00299407
1124.49469849,0.00294268
1126.42350586,0.00299611
1128.35231323,0.00301230
1130.28112061,0.00303999
1132.20992798,0.00316664
1134.13873535,0.00324522
1136.06754272,0.00343698
1137.99635010,0.00370720
1139.92515747,0.00363860
1141.85396484,0.00378874
1143.78277222,0.00407332
1145.71157959,0.00430812
1147.64038696,0.00449342
1149.56919434,0.00478719
1151.49800171,0.00520375
1153.42680908,0.00515853
1155.35561646,0.00546014
1157.28442383,0.00579803
1159.21323120,0.00599660
1161.14203857,0.00633477
1163.07084595,0.00614836
1164.99965332,0.00654904
1166.92846069,0.00696735
1168.85726807,0.00678604
1170.78607544,0.00718566
1172.71488281,0.00749690
1174.64369019,0.00765178
1176.57249756,0.00811976
1178.50130493,0.00843506
1180.43011230,0.00861628
1182.35891968,0.00893898
1184.28772705,0.00939633
1186.21653442,0.00976334
1188.14534180,0.01014431
1190.07414917,0.01068370
1192.00295654,0.01111587
1193.93176392,0.01148586
1195.86057129,0.01193098
1197.78937866,0.01245243
1199.71818604,0.01299362
1201.64699341,0.01345338
1203.57580078,0.01415247
1205.50460815,0.01471745
1207.43341553,0.01513766
1209.36222290,0.01579172
1211.29103027,0.01600192
1213.21983765,0.01642903
1215.14864502,0.01702166
1217.07745239,0.01715331
1219.00625977,0.01755264
1220.93506714,0.01779260
1222.86387451,0.01793915
1224.79268188,0.01815528
1226.72148926,0.01836031
1228.65029663,0.01848142
1230.57910400,0.01829732
1232.50791138,0.01847449
1234.43671875,0.01832091
1236.36552612,0.01819475
1238.29433350,0.01838375
1240.22314087,0.01814774
1242.15194824,0.01832320
1244.08075562,0.01826301
1246.00956299,0.01804443
1247.93837036,0.01798464
1249.86717773,0.01761630
1251.79598511,0.01764323
1253.72479248,0.01759735
1255.65359985,0.01729237
1257.58240723,0.01706525
1259.51121460,0.01685841
1261.44002197,0.01666848
1263.36882935,0.01642436
1265.29763672,0.01606951
1267.22644409,0.01588168
1269.15525146,0.01599270
1271.08405884,0.01549321
1273.01286621,0.01504124
1274.94167358,0.01509102
1276.87048096,0.01477831
1278.79928833,0.01444650
1280.72809570,0.01410563
1282.65690308,0.01374831
1284.58571045,0.01366463
1286.51451782,0.01345978
1288.44332520,0.01310624
1290.37213257,0.01307801
1292.30093994,0.01281217
1294.22974731,0.01255703
1296.15855469,0.01276982
1298.08736206,0.01258267
1300.01616943,0.01267494
1301.94497681,0.01279559
1303.87378418,0.01272959
1305.80259155,0.01307653
1307.73139893,0.01314726
1309.66020630,0.01338596
1311.58901367,0.01364655
1313.51782104,0.01380246
1315.44662842,0.01407842
1317.37543579,0.01428972
1319.30424316,0.01483543
1321.23305054,0.01527900
1323.16185791,0.01560540
1325.09066528,0.01605741
1327.01947266,0.01643159
1328.94828003,0.01680051
1330.87708740,0.01729340
1332.80589478,0.01774638
1334.73470215,0.01799478
1336.66350952,0.01794774
1338.59231689,0.01767619
1340.52112427,0.01819146
1342.44993164,0.01883635
1344.37873901,0.01883436
1346.30754639,0.01902589
1348.23635376,0.01892003
1350.16516113,0.01875156
1352.09396851,0.01876483
1354.02277588,0.01845410
1355.95158325,0.01833133
1357.88039062,0.01815993
1359.80919800,0.01779982
1361.73800537,0.01695454
1363.66681274,0.01667977
1365.59562012,0.01769439
1367.52442749,0.01733935
1369.45323486,0.01715593
1371.38204224,0.01748703
1373.31084961,0.01634918
1375.23965698,0.01642132
1377.16846436,0.01696515
1379.09727173,0.01702480
1381.02607910,0.01710097
1382.95488647,0.01686529
1384.88369385,0.01672216
1386.81250122,0.01586886
1388.74130859,0.01625276
1390.67011597,0.01774473
1392.59892334,0.01715357
1394.52773071,0.01607620
1396.45653809,0.01683630
1398.38534546,0.01669305
1400.31415283,0.01669996
1402.24296021,0.01809122
1404.17176758,0.01691866
1406.10057495,0.01717282
1408.02938232,0.01795797
1409.95818970,0.01712850
1411.88699707,0.01765153
1413.81580444,0.01702211
1415.74461182,0.01710786
1417.67341919,0.01521680
1419.60222656,0.01374151
1421.53103394,0.01624296
1423.45984131,0.01549803
1425.38864868,0.01517207
1427.31745605,0.01561475
1429.24626343,0.01397966
1431.17507080,0.01368389
1433.10387817,0.01426051
1435.03268555,0.01267406
1436.96149292,0.01071098
1438.89030029,0.01259391
1440.81910767,0.01274279
1442.74791504,0.01180946
1444.67672241,0.01263681
1446.60552979,0.01147755
1448.53433716,0.01152903
1450.46314453,0.01207641
1452.39195190,0.01229440
1454.32075928,0.01252079
1456.24956665,0.01018545
1458.17837402,0.01063365
1460.10718140,0.01438079
1462.03598877,0.01528746
1463.96479614,0.01496513
1465.89360352,0.01555654
1467.82241089,0.01789893
1469.75121826,0.01901008
1471.68002563,0.01634763
1473.60883301,0.01727220
1475.53764038,0.01982281
1477.46644775,0.02143536
1479.39525513,0.02370184
1481.32406250,0.02383024
1483.25286987,0.02548474
1485.18167725,0.02618370
1487.11048462,0.02533442
1489.03929199,0.02477533
1490.96809937,0.02513831
1492.89690674,0.02997355
1494.82571411,0.02859901
1496.75452148,0.02531582
1498.68332886,0.02909606
1500.61213623,0.02999692
1502.54094360,0.03255408
1504.46975098,0.03003260
1506.39855835,0.02083301
1508.32736572,0.02650117
1510.25617310,0.03130864
1512.18498047,0.03040273
1514.11378784,0.03308012
1516.04259521,0.02929758
1517.97140259,0.03103121
1519.90020996,0.02939441
1521.82901733,0.02517001
1523.75782471,0.03174736
1525.68663208,0.03075646
1527.61543945,0.03094892
1529.54424683,0.03459995
1531.47305420,0.03292239
1533.40186157,0.02982466
1535.33066895,0.03222749
1537.25947632,0.03438685
1539.18828369,0.02330402
1541.11709106,0.02510242
1543.04589844,0.03034465
1544.97470581,0.02905183
1546.90351318,0.03513808
1548.83232056,0.03234244
1550.76112793,0.03367072
1552.68993530,0.03312468
1554.61874268,0.02993298
1556.54755005,0.03203122
1558.47635742,0.02119114
1560.40516479,0.02402485
1562.33397217,0.03547725
1564.26277954,0.03300443
1566.19158691,0.03438039
1568.12039429,0.03362292
1570.04920166,0.02936668
1571.97800903,0.03504433
1573.90681641,0.03488379
1575.83562378,0.02690417
1577.76443115,0.03137946
1579.69323853,0.03567801
1581.62204590,0.03391523
1583.55085327,0.03475794
1585.47966064,0.03427721
1587.40846802,0.03445000
1589.33727539,0.03430189
1591.26608276,0.03430776
1593.19489014,0.03407446
1595.12369751,0.03372270
1597.05250488,0.03420998
1598.98131226,0.03408505
1600.91011963,0.03415461
1602.83892700,0.03352841
1604.76773437,0.03413011
1606.69654175,0.03345533
1608.62534912,0.03342625
1610.55415649,0.03329000
1612.48296387,0.03386667
1614.41177124,0.03387602
1616.34057861,0.02695528
1618.26938599,0.03014038
1620.19819336,0.03530323
1622.12700073,0.03069161
1624.05580811,0.03092964
1625.98461548,0.03284940
1627.91342285,0.03235912
1629.84223022,0.03238736
1631.77103760,0.03490248
1633.69984497,0.03121663
1635.62865234,0.02523357
1637.55745972,0.03021106
1639.48626709,0.03377476
1641.41507446,0.03287873
1643.34388184,0.03378594
1645.27268921,0.02981013
1647.20149658,0.02568882
1649.13030396,0.03323287
1651.05911133,0.03062919
1652.98791870,0.01855542
1654.91672607,0.02712452
1656.84553345,0.03443781
1658.77434082,0.03283167
1660.70314819,0.03366506
1662.63195557,0.03014922
1664.56076294,0.03235132
1666.48957031,0.03494690
1668.41837769,0.02951415
1670.34718506,0.02872624
1672.27599243,0.03334964
1674.20479980,0.03025563
1676.13360718,0.02899292
1678.06241455,0.03390850
1679.99122192,0.03261829
1681.92002930,0.03180252
1683.84883667,0.02489171
1685.77764404,0.02550403
1687.70645142,0.03570676
1689.63525879,0.03043723
1691.56406616,0.03437672
1693.49287354,0.03422385
1695.42168091,0.02428264
1697.35048828,0.03091675
1699.27929565,0.02597594
1701.20810303,0.02363123
1703.13691040,0.03339696
1705.06571777,0.02997524
1706.99452515,0.03071031
1708.92333252,0.03365047
1710.85213989,0.03221541
1712.78094727,0.03268877
1714.70975464,0.02974990
1716.63856201,0.02638526
1718.56736938,0.02617130
1720.49617676,0.03176641
1722.42498413,0.03289255
1724.35379150,0.03046120
1726.28259888,0.03360442
1728.21140625,0.03057548
1730.14021362,0.03079270
1732.06902100,0.02955503
1733.99782837,0.02166434
1735.92663574,0.02840330
1737.85544312,0.03149317
1739.78425049,0.02763509
1741.71305786,0.03048032
1743.64186523,0.03063218
1745.57067261,0.03079849
1747.49947998,0.03091684
1749.42828735,0.02913389
1751.35709473,0.02776618
1753.28590210,0.03135877
1755.21470947,0.03274513
1757.14351685,0.02953745
1759.07232422,0.03319664
1761.00113159,0.03048308
1762.92993896,0.02944279
1764.85874634,0.03436560
1766.78755371,0.03031332
1768.71636108,0.03075112
1770.64516846,0.03011522
1772.57397583,0.02699075
1774.50278320,0.03086342
1776.43159058,0.03247549
1778.36039795,0.03182376
1780.28920532,0.03130772
1782.21801270,0.03180381
1784.14682007,0.03162042
1786.07562744,0.03104740
1788.00443481,0.03296363
1789.93324219,0.03158534
1791.86204956,0.02817364
1793.79085693,0.02982624
1795.71966431,0.03226260
1797.64847168,0.03170260
1799.57727905,0.03115678
1801.50608643,0.03032338
1803.43489380,0.03144728
1805.36370117,0.03233470
1807.29250854,0.03176877
1809.22131592,0.03184793
1811.15012329,0.03089426
1813.07893066,0.03204614
1815.00773804,0.03209890
1816.93654541,0.03170080
1818.86535278,0.03198462
1820.79416016,0.03188082
1822.72296753,0.03226821
1824.65177490,0.02976193
1826.58058228,0.03131537
1828.50938965,0.03100630
1830.43819702,0.02872802
1832.36700439,0.03195456
1834.29581177,0.03171497
1836.22461914,0.03171172
1838.15342651,0.03147957
1840.08223389,0.03182282
1842.01104126,0.03150319
1843.93984863,0.02731227
1845.86865601,0.02984266
1847.79746338,0.03152499
1849.72627075,0.03080249
1851.65507812,0.03184798
1853.58388550,0.03092970
1855.51269287,0.03150113
1857.44150024,0.03120825
1859.37030762,0.03097263
1861.29911499,0.03128881
1863.22792236,0.03069801
1865.15672974,0.03113388
1867.08553711,0.02970746
1869.01434448,0.02821719
1870.94315186,0.02982830
1872.87195923,0.03101704
1874.80076660,0.03056976
1876.72957397,0.03070023
1878.65838135,0.03038844
1880.58718872,0.03029640
1882.51599609,0.03053338
1884.44480347,0.03001662
1886.37361084,0.03060980
1888.30241821,0.02979390
1890.23122559,0.02900661
1892.16003296,0.03035151
1894.08884033,0.02975531
1896.01764771,0.02938275
1897.94645508,0.02998929
1899.87526245,0.02970185
1901.80406982,0.02982072
1903.73287720,0.02976551
1905.66168457,0.02970042
1907.59049194,0.02940160
1909.51929932,0.02918547
1911.44810669,0.02931516
1913.37691406,0.02949834
1915.30572144,0.02971517
1917.23452881,0.02801010
1919.16333618,0.02826844
1921.09214355,0.02941921
1923.02095093,0.02814633
1924.94975830,0.02905225
1926.87856567,0.02933504
1928.80737305,0.02887057
1930.73618042,0.02917448
1932.66498779,0.02872528
1934.59379517,0.02920225
1936.52260254,0.02881653
1938.45140991,0.02890036
1940.38021729,0.02875728
1942.30902466,0.02774138
1944.23783203,0.02844807
1946.16663940,0.02860744
1948.09544678,0.02857833
1950.02425415,0.02875882
1951.95306152,0.02861392
1953.88186890,0.02845987
1955.81067627,0.02833766
1957.73948364,0.02861232
1959.66829102,0.02844378
1961.59709839,0.02837759
1963.52590576,0.02857166
1965.45471313,0.02818691
1967.38352051,0.02773937
1969.31232788,0.02827284
1971.24113525,0.02842063
1973.16994263,0.02797752
1975.09875000,0.02820366
1977.02755737,0.02804011
1978.95636475,0.02801865
1980.88517212,0.02794288
1982.81397949,0.02785994
1984.74278687,0.02801433
1986.67159424,0.02768487
1988.60040161,0.02782613
1990.52920898,0.02733401
1992.45801636,0.02691520
1994.38682373,0.02764236
1996.31563110,0.02760331
1998.24443848,0.02731645
2000.17324585,0.02738100
2002.10205322,0.02725887
2004.03086060,0.02729903
2005.95966797,0.02726006
2007.88847534,0.02706076
2009.81728271,0.02702073
2011.74609009,0.02689979
2013.67489746,0.02690098
2015.60370483,0.02670214
2017.53251221,0.02649887
2019.46131958,0.02663103
2021.39012695,0.02656441
2023.31893433,0.02652711
2025.24774170,0.02628998
2027.17654907,0.02623872
2029.10535645,0.02629765
2031.03416382,0.02616675
2032.96297119,0.02608993
2034.89177856,0.02588780
2036.82058594,0.02606294
2038.74939331,0.02590476
2040.67820068,0.02571305
2042.60700806,0.02582748
2044.53581543,0.02569018
2046.46462280,0.02570413
2048.39343018,0.02549778
2050.32223755,0.02546657
2052.25104492,0.02553868
2054.17985229,0.02541354
2056.10865967,0.02538553
2058.03746704,0.02534334
2059.96627441,0.02528935
2061.89508179,0.02510627
2063.82388916,0.02496092
2065.75269653,0.02493437
2067.68150391,0.02506784
2069.61031128,0.02487344
2071.53911865,0.02470193
2073.46792603,0.02478386
2075.39673340,0.02455333
2077.32554077,0.02453855
2079.25434814,0.02462484
2081.18315552,0.02467162
2083.11196289,0.02442538
2085.04077026,0.02430945
2086.96957764,0.02443906
2088.89838501,0.02421786
2090.82719238,0.02431190
2092.75599976,0.02412083
2094.68480713,0.02396410
2096.61361450,0.02414111
2098.54242187,0.02396684
2100.47122925,0.02399677
2102.40003662,0.02393373
2104.32884399,0.02382537
2106.25765137,0.02383255
2108.18645874,0.02367347
2110.11526611,0.02364986
2112.04407349,0.02375377
2113.97288086,0.02364168
2115.90168823,0.02349390
2117.83049561,0.02354873
2119.75930298,0.02349688
2121.68811035,0.02347376
2123.61691772,0.02348038
2125.54572510,0.02338572
2127.47453247,0.02330145
2129.40333984,0.02328967
2131.33214722,0.02325117
2133.26095459,0.02306480
2135.18976196,0.02309022
2137.11856934,0.02311813
2139.04737671,0.02301722
2140.97618408,0.02305081
2142.90499146,0.02296039
2144.83379883,0.02283226
2146.76260620,0.02289727
2148.69141357,0.02282989
2150.62022095,0.02270539
2152.54902832,0.02268352
2154.47783569,0.02259250
2156.40664307,0.02269156
2158.33545044,0.02263499
2160.26425781,0.02252415
2162.19306519,0.02258982
2164.12187256,0.02247009
2166.05067993,0.02251756
2167.97948730,0.02240688
2169.90829468,0.02224797
2171.83710205,0.02228739
2173.76590942,0.02226480
2175.69471680,0.02225994
2177.62352417,0.02221264
2179.55233154,0.02220369
2181.48113892,0.02198214
2183.40994629,0.02206278
2185.33875366,0.02206918
2187.26756104,0.02170378
2189.19636841,0.02188901
2191.12517578,0.02181024
2193.05398315,0.02183191
2194.98279053,0.02198288
2196.91159790,0.02163559
2198.84040527,0.02174762
2200.76921265,0.02179446
2202.69802002,0.02166267
2204.62682739,0.02174751
2206.55563477,0.02164774
2208.48444214,0.02158294
2210.41324951,0.02156473
2212.34205688,0.02150020
2214.27086426,0.02142812
2216.19967163,0.02143633
2218.12847900,0.02148382
2220.05728638,0.02136527
2221.98609375,0.02124788
2223.91490112,0.02119040
2225.84370850,0.02127977
2227.77251587,0.02129458
2229.70132324,0.02103212
2231.63013062,0.02107986
2233.55893799,0.02111104
2235.48774536,0.02088299
2237.41655273,0.02094180
2239.34536011,0.02097607
2241.27416748,0.02088553
2243.20297485,0.02085613
2245.13178223,0.02075333
2247.06058960,0.02061739
2248.98939697,0.02062666
2250.91820435,0.02069248
2252.84701172,0.02059935
2254.77581909,0.02055575
2256.70462646,0.02061023
2258.63343384,0.02057881
2260.56224121,0.02043962
2262.49104858,0.02034457
2264.41985596,0.02032647
2266.34866333,0.02030214
2268.27747070,0.02034003
2270.20627808,0.02031913
2272.13508545,0.02024880
2274.06389282,0.02017697
2275.99270020,0.02011849
2277.92150757,0.02008321
2279.85031494,0.02002789
2281.77912231,0.02007883
2283.70792969,0.02005649
2285.63673706,0.01993803
2287.56554443,0.01985558
2289.49435181,0.01979581
2291.42315918,0.01980347
2293.35196655,0.01970293
2295.28077393,0.01955513
2297.20958130,0.01952910
2299.13838867,0.01948705
2301.06719604,0.01943937
2302.99600342,0.01939656
2304.92481079,0.01925497
2306.85361816,0.01906146
2308.78242554,0.01889840
2310.71123291,0.01884285
2312.64004028,0.01863446
2314.56884766,0.01839189
2316.49765503,0.01836230
2318.42646240,0.01801585
2320.35526978,0.01766620
2322.28407715,0.01756822
2324.21288452,0.01739809
2326.14169189,0.01718472
2328.07049927,0.01685330
2329.99930664,0.01667406
2331.92811401,0.01661897
2333.85692139,0.01655457
2335.78572876,0.01645840
2337.71453613,0.01640409
2339.64334351,0.01644487
2341.57215088,0.01640962
2343.50095825,0.01660546
2345.42976562,0.01692330
2347.35857300,0.01760250
2349.28738037,0.01808172
2351.21618774,0.01740510
2353.14499512,0.01662128
2355.07380249,0.01602704
2357.00260986,0.01556718
2358.93141724,0.01538012
2360.86022461,0.01514573
2362.78903198,0.01507041
2364.71783936,0.01521368
2366.64664673,0.01536410
2368.57545410,0.01556297
2370.50426147,0.01604832
2372.43306885,0.01641396
2374.36187622,0.01679504
2376.29068359,0.01730881
2378.21949097,0.01746859
2380.14829834,0.01769865
2382.07710571,0.01787635
2384.00591309,0.01799321
2385.93472046,0.01812761
2387.86352783,0.01809619
2389.79233521,0.01807209
2391.72114258,0.01789185
2393.64994995,0.01790678
2395.57875732,0.01798832
2397.50756470,0.01793154
2399.43637207,0.01786544
2401.36517944,0.01772510
2403.29398682,0.01775277
2405.22279419,0.01770199
2407.15160156,0.01768561
2409.08040894,0.01768064
2411.00921631,0.01761227
2412.93802368,0.01763982
2414.86683105,0.01754669
2416.79563843,0.01763711
2418.72444580,0.01764236
2420.65325317,0.01749456
2422.58206055,0.01744778
2424.51086792,0.01732163
2426.43967529,0.01733212
2428.36848267,0.01731908
2430.29729004,0.01729044
2432.22609741,0.01733985
2434.15490479,0.01728363
2436.08371216,0.01717277
2438.01251953,0.01715233
2439.94132690,0.01715077
2441.87013428,0.01700699
2443.79894165,0.01706244
2445.72774902,0.01713350
2447.65655640,0.01702678
2449.58536377,0.01704368
2451.51417114,0.01698330
2453.44297852,0.01679408
2455.37178589,0.01680454
2457.30059326,0.01690142
2459.22940063,0.01679394
2461.15820801,0.01680432
2463.08701538,0.01671405
2465.01582275,0.01659729
2466.94463013,0.01674002
2468.87343750,0.01661868
2470.80224487,0.01661124
2472.73105225,0.01662589
2474.65985962,0.01659791
2476.58866699,0.01663468
2478.51747437,0.01644447
2480.44628174,0.01648415
2482.37508911,0.01644424
2484.30389648,0.01635280
2486.23270386,0.01629950
2488.16151123,0.01623312
2490.09031860,0.01633534
2492.01912598,0.01615123
2493.94793335,0.01610794
2495.87674072,0.01623232
2497.80554810,0.01619271
2499.73435547,0.01606463
2501.66316284,0.01600965
2503.59197021,0.01613637
2505.52077759,0.01606516
2507.44958496,0.01600337
2509.37839233,0.01597619
2511.30719971,0.01594119
2513.23600708,0.01592569
2515.16481445,0.01584844
2517.09362183,0.01580294
2519.02242920,0.01576400
2520.95123657,0.01577534
2522.88004395,0.01560668
2524.80885132,0.01561925
2526.73765869,0.01579930
2528.66646606,0.01580398
2530.59527344,0.01568739
2532.52408081,0.01553604
2534.45288818,0.01568418
2536.38169556,0.01560898
2538.31050293,0.01551116
2540.23931030,0.01552434
2542.16811768,0.01543008
2544.09692505,0.01548743
2546.02573242,0.01530490
2547.95453979,0.01533013
2549.88334717,0.01539315
2551.81215454,0.01533348
2553.74096191,0.01541634
2555.66976929,0.01522617
2557.59857666,0.01520071
2559.52738403,0.01522695
2561.45619141,0.01511657
2563.38499878,0.01513058
2565.31380615,0.01520600
2567.24261353,0.01516294
2569.17142090,0.01505505
2571.10022827,0.01509439
2573.02903564,0.01500364
2574.95784302,0.01499448
2576.88665039,0.01498219
2578.81545776,0.01481538
2580.74426514,0.01483152
2582.67307251,0.01487226
2584.60187988,0.01482308
2586.53068726,0.01474464
2588.45949463,0.01478068
2590.38830200,0.01471056
2592.31710937,0.01469552
2594.24591675,0.01478076
2596.17472412,0.01459675
2598.10353149,0.01454098
2600.03233887,0.01450841
2601.96114624,0.01449173
2603.88995361,0.01455597
2605.81876099,0.01448935
2607.74756836,0.01447801
2609.67637573,0.01441279
2611.60518311,0.01444286
2613.53399048,0.01446898
2615.46279785,0.01436513
2617.39160522,0.01437288
2619.32041260,0.01425882
2621.24921997,0.01421580
2623.17802734,0.01428259
2625.10683472,0.01416156
2627.03564209,0.01416012
2628.96444946,0.01417204
2630.89325684,0.01405676
2632.82206421,0.01408276
2634.75087158,0.01410509
2636.67967895,0.01407211
2638.60848633,0.01399159
2640.53729370,0.01397280
2642.46610107,0.01406122
2644.39490845,0.01400628
2646.32371582,0.01397970
2648.25252319,0.01391666
2650.18133057,0.01388032
2652.11013794,0.01389342
2654.03894531,0.01375518
2655.96775269,0.01376972
2657.89656006,0.01366543
2659.82536743,0.01360085
2661.75417480,0.01371170
2663.68298218,0.01356322
2665.61178955,0.01356858
2667.54059692,0.01362594
2669.46940430,0.01348985
2671.39821167,0.01341834
2673.32701904,0.01345490
2675.25582642,0.01347393
2677.18463379,0.01347816
2679.11344116,0.01352380
2681.04224854,0.01341984
2682.97105591,0.01338601
2684.89986328,0.01333480
2686.82867065,0.01328154
2688.75747803,0.01337111
2690.68628540,0.01324876
2692.61509277,0.01324614
2694.54390015,0.01325585
2696.47270752,0.01317365
2698.40151489,0.01320544
2700.33032227,0.01313097
2702.25912964,0.01305486
2704.18793701,0.01301759
2706.11674438,0.01309912
2708.04555176,0.01306431
2709.97435913,0.01298508
2711.90316650,0.01305458
2713.83197388,0.01296419
2715.76078125,0.01291317
2717.68958862,0.01291556
2719.61839600,0.01295508
2721.54720337,0.01292484
2723.47601074,0.01287461
2725.40481812,0.01292198
2727.33362549,0.01271075
2729.26243286,0.01261430
2731.19124023,0.01275561
2733.12004761,0.01271165
2735.04885498,0.01255849
2736.97766235,0.01258687
2738.90646973,0.01262042
2740.83527710,0.01252106
2742.76408447,0.01246748
2744.69289185,0.01245082
2746.62169922,0.01254959
2748.55050659,0.01241729
2750.47931396,0.01233157
2752.40812134,0.01245858
2754.33692871,0.01234423
2756.26573608,0.01239302
2758.19454346,0.01232246
2760.12335083,0.01222208
2762.05215820,0.01234940
2763.98096558,0.01227393
2765.90977295,0.01226868
2767.83858032,0.01225819
2769.76738770,0.01218413
2771.69619507,0.01217064
2773.62500244,0.01208575
2775.55380981,0.01208619
2777.48261719,0.01211759
2779.41142456,0.01195717
2781.34023193,0.01188689
2783.26903931,0.01193791
2785.19784668,0.01188021
2787.12665405,0.01181419
2789.05546143,0.01168928
2790.98426880,0.01175956
2792.91307617,0.01185266
2794.84188354,0.01188265
2796.77069092,0.01195212
2798.69949829,0.01170069
2800.62830566,0.01170059
2802.55711304,0.01177323
2804.48592041,0.01164768
2806.41472778,0.01164190
2808.34353516,0.01160685
2810.27234253,0.01162900
2812.20114990,0.01152307
2814.12995728,0.01158751
2816.05876465,0.01163576
2817.98757202,0.01145953
2819.91637939,0.01153402
2821.84518677,0.01144211
2823.77399414,0.01134248
2825.70280151,0.01141160
2827.63160889,0.01137019
2829.56041626,0.01132289
2831.48922363,0.01119803
2833.41803101,0.01110207
2835.34683838,0.01120355
2837.27564575,0.01123104
2839.20445312,0.01110004
2841.13326050,0.01104246
2843.06206787,0.01106744
2844.99087524,0.01107546
2846.91968262,0.01087104
2848.84848999,0.01081439
2850.77729736,0.01091898
2852.70610474,0.01078960
2854.63491211,0.01080935
2856.56371948,0.01080465
2858.49252686,0.01076585
2860.42133423,0.01077857
2862.35014160,0.01069639
2864.27894897,0.01068469
2866.20775635,0.01065893
2868.13656372,0.01074814
2870.06537109,0.01068339
2871.99417847,0.01055324
2873.92298584,0.01058203
2875.85179321,0.01054043
2877.78060059,0.01057234
2879.70940796,0.01049857
2881.63821533,0.01047056
2883.56702270,0.01054067
2885.49583008,0.01048123
2887.42463745,0.01038408
2889.35344482,0.01031532
2891.28225220,0.01036273
2893.21105957,0.01031000
2895.13986694,0.01025553
2897.06867432,0.01027590
2898.99748169,0.01026655
2900.92628906,0.01024819
2902.85509644,0.01011419
2904.78390381,0.01014162
2906.71271118,0.01023038
2908.64151855,0.01016823
2910.57032593,0.01009609
2912.49913330,0.01004081
2914.42794067,0.01014608
2916.35674805,0.01011757
2918.28555542,0.00998671
2920.21436279,0.00999616
2922.14317017,0.00989178
2924.07197754,0.00992612
2926.00078491,0.00992819
2927.92959229,0.00986757
2929.85839966,0.00992024
2931.78720703,0.00973930
2933.71601440,0.00975778
2935.64482178,0.00979736
2937.57362915,0.00976653
2939.50243652,0.00994207
2941.43124390,0.00984891
2943.36005127,0.00975482
2945.28885864,0.00977475
2947.21766602,0.00976849
2949.14647339,0.00970517
2951.07528076,0.00966173
2953.00408813,0.00972208
2954.93289551,0.00965180
2956.86170288,0.00964074
2958.79051025,0.00958974
2960.71931763,0.00953532
2962.64812500,0.00948938
2964.57693237,0.00944473
2966.50573975,0.00951418
2968.43454712,0.00942756
2970.36335449,0.00944159
2972.29216187,0.00944019
2974.22096924,0.00944045
2976.14977661,0.00948821
2978.07858398,0.00935278
2980.00739136,0.00935647
2981.93619873,0.00941449
2983.86500610,0.00940333
2985.79381348,0.00927350
2987.72262085,0.00925443
2989.65142822,0.00933146
2991.58023560,0.00925847
2993.50904297,0.00928193
2995.43785034,0.00931281
2997.36665771,0.00931171
2999.29546509,0.00926169
3001.22427246,0.00926448
3003.15307983,0.00923719
3005.08188721,0.00910523
3007.01069458,0.00913836
3008.93950195,0.00915978
3010.86830933,0.00909351
3012.79711670,0.00903448
3014.72592407,0.00910889
3016.65473145,0.00905664
3018.58353882,0.00896600
3020.51234619,0.00907873
3022.44115356,0.00903919
3024.36996094,0.00898565
3026.29876831,0.00889401
3028.22757568,0.00888452
3030.15638306,0.00889658
3032.08519043,0.00878098
3034.01399780,0.00883081
3035.94280518,0.00880983
3037.87161255,0.00879774
3039.80041992,0.00872680
3041.72922729,0.00865825
3043.65803467,0.00877256
3045.58684204,0.00867230
3047.51564941,0.00858173
3049.44445679,0.00863152
3051.37326416,0.00861419
3053.30207153,0.00859417
3055.23087891,0.00854163
3057.15968628,0.00849510
3059.08849365,0.00856651
3061.01730103,0.00854802
3062.94610840,0.00847470
3064.87491577,0.00846764
3066.80372314,0.00842134
3068.73253052,0.00845761
3070.66133789,0.00841018
3072.59014526,0.00834675
3074.51895264,0.00840246
3076.44776001,0.00836144
3078.37656738,0.00826456
3080.30537476,0.00822461
3082.23418213,0.00824425
3084.16298950,0.00820369
3086.09179687,0.00824718
3088.02060425,0.00824456
3089.94941162,0.00822756
3091.87821899,0.00831670
3093.80702637,0.00815439
3095.73583374,0.00810329
3097.66464111,0.00818498
3099.59344849,0.00813530
3101.52225586,0.00810747
3103.45106323,0.00802784
3105.37987061,0.00799739
3107.30867798,0.00810095
3109.23748535,0.00804048
3111.16629272,0.00787579
3113.09510010,0.00798588
3115.02390747,0.00796795
3116.95271484,0.00783043
3118.88152222,0.00785273
3120.81032959,0.00787326
3122.73913696,0.00789496
3124.66794434,0.00770227
3126.59675171,0.00767512
3128.52555908,0.00779214
3130.45436645,0.00769075
3132.38317383,0.00766017
3134.31198120,0.00768508
3136.24078857,0.00767917
3138.16959595,0.00760961
3140.09840332,0.00761609
3142.02721069,0.00759142
3143.95601807,0.00754120
3145.88482544,0.00752419
3147.81363281,0.00746929
3149.74244019,0.00754843
3151.67124756,0.00749246
3153.60005493,0.00742217
3155.52886230,0.00744843
3157.45766968,0.00749404
3159.38647705,0.00742915
3161.31528442,0.00727236
3163.24409180,0.00734733
3165.17289917,0.00726087
3167.10170654,0.00728217
3169.03051392,0.00738755
3170.95932129,0.00728119
3172.88812866,0.00729446
3174.81693604,0.00719467
3176.74574341,0.00718299
3178.67455078,0.00716255
3180.60335815,0.00703187
3182.53216553,0.00708986
3184.46097290,0.00709033
3186.38978027,0.00702414
3188.31858765,0.00701560
3190.24739502,0.00705990
3192.17620239,0.00702101
3194.10500977,0.00694601
3196.03381714,0.00693968
3197.96262451,0.00690939
3199.89143188,0.00690618
3201.82023926,0.00696851
3203.74904663,0.00691794
3205.67785400,0.00682203
3207.60666138,0.00687866
3209.53546875,0.00677799
3211.46427612,0.00672697
3213.39308350,0.00683308
3215.32189087,0.00678660
3217.25069824,0.00680258
3219.17950562,0.00678856
3221.10831299,0.00674256
3223.03712036,0.00670529
3224.96592773,0.00665194
3226.89473511,0.00668093
3228.82354248,0.00669263
3230.75234985,0.00667104
3232.68115723,0.00659329
3234.60996460,0.00666311
3236.53877197,0.00671890
3238.46757935,0.00653765
3240.39638672,0.00649735
3242.32519409,0.00652209
3244.25400146,0.00643471
3246.18280884,0.00644619
3248.11161621,0.00655123
3250.04042358,0.00659772
3251.96923096,0.00655342
3253.89803833,0.00645177
3255.82684570,0.00645628
3257.75565308,0.00652158
3259.68446045,0.00647134
3261.61326782,0.00639116
3263.54207520,0.00637864
3265.47088257,0.00642724
3267.39968994,0.00642704
3269.32849731,0.00640163
3271.25730469,0.00636752
3273.18611206,0.00635864
3275.11491943,0.00640206
3277.04372681,0.00633504
3278.97253418,0.00628338
3280.90134155,0.00634024
3282.83014893,0.00636238
3284.75895630,0.00622690
3286.68776367,0.00614922
3288.61657104,0.00624304
3290.54537842,0.00619957
3292.47418579,0.00621756
3294.40299316,0.00631254
3296.33180054,0.00622235
3298.26060791,0.00621624
3300.18941528,0.00624832
3302.11822266,0.00615177
3304.04703003,0.00618816
3305.97583740,0.00627665
3307.90464478,0.00626249
3309.83345215,0.00622204
3311.76225952,0.00609983
3313.69106689,0.00606034
3315.61987427,0.00607085
3317.54868164,0.00602967
3319.47748901,0.00609621
3321.40629639,0.00614250
3323.33510376,0.00609027
3325.26391113,0.00605665
3327.19271851,0.00605043
3329.12152588,0.00597696
3331.05033325,0.00595831
3332.97914062,0.00601657
3334.90794800,0.00597883
3336.83675537,0.00589563
3338.76556274,0.00589848
3340.69437012,0.00595908
3342.62317749,0.00591100
3344.55198486,0.00594295
3346.48079224,0.00596185
3348.40959961,0.00584942
3350.33840698,0.00584698
3352.26721436,0.00589632
3354.19602173,0.00595571
3356.12482910,0.00586606
3358.05363647,0.00585280
3359.98244385,0.00588533
3361.91125122,0.00578149
3363.84005859,0.00581862
3365.76886597,0.00574773
3367.69767334,0.00568651
3369.62648071,0.00571043
3371.55528809,0.00575939
3373.48409546,0.00576234
3375.41290283,0.00558976
3377.34171020,0.00567133
3379.27051758,0.00572274
3381.19932495,0.00564654
3383.12813232,0.00569737
3385.05693970,0.00560604
3386.98574707,0.00551379
3388.91455444,0.00562455
3390.84336182,0.00566496
3392.77216919,0.00553948
3394.70097656,0.00556818
3396.62978394,0.00558648
3398.55859131,0.00549318
3400.48739868,0.00549130
3402.41620605,0.00549107
3404.34501343,0.00556741
3406.27382080,0.00566608
3408.20262817,0.00554430
3410.13143555,0.00542167
3412.06024292,0.00554664
3413.98905029,0.00553824
3415.91785767,0.00542051
3417.84666504,0.00541226
3419.77547241,0.00533122
3421.70427979,0.00531979
3423.63308716,0.00535720
3425.56189453,0.00536650
3427.49070190,0.00538051
3429.41950928,0.00535286
3431.34831665,0.00528462
3433.27712402,0.00526981
3435.20593140,0.00529840
3437.13473877,0.00526405
3439.06354614,0.00532810
3440.99235352,0.00532831
3442.92116089,0.00532176
3444.84996826,0.00533550
3446.77877563,0.00514716
3448.70758301,0.00515980
3450.63639038,0.00524806
3452.56519775,0.00521236
3454.49400513,0.00522720
3456.42281250,0.00519166
3458.35161987,0.00520043
3460.28042725,0.00520844
3462.20923462,0.00515817
3464.13804199,0.00519042
3466.06684937,0.00510604
3467.99565674,0.00504122
3469.92446411,0.00523790
3471.85327148,0.00529219
3473.78207886,0.00514818
3475.71088623,0.00506116
3477.63969360,0.00509734
3479.56850098,0.00507625
3481.49730835,0.00503252
3483.42611572,0.00509024
3485.35492310,0.00497403
3487.28373047,0.00501243
3489.21253784,0.00513566
3491.14134521,0.00504106
3493.07015259,0.00500282
3494.99895996,0.00499908
3496.92776733,0.00497666
3498.85657471,0.00490784
3500.78538208,0.00496356
3502.71418945,0.00491918
3504.64299683,0.00489689
3506.57180420,0.00505086
3508.50061157,0.00487744
3510.42941895,0.00483468
3512.35822632,0.00492877
3514.28703369,0.00491712
3516.21584106,0.00495857
3518.14464844,0.00493505
3520.07345581,0.00493710
3522.00226318,0.00493444
3523.93107056,0.00488594
3525.85987793,0.00480053
3527.78868530,0.00481958
3529.71749268,0.00481901
3531.64630005,0.00481215
3533.57510742,0.00490151
3535.50391479,0.00478812
3537.43272217,0.00472297
3539.36152954,0.00481693
3541.29033691,0.00490022
3543.21914429,0.00485616
3545.14795166,0.00466445
3547.07675903,0.00461056
3549.00556641,0.00478385
3550.93437378,0.00478444
3552.86318115,0.00462568
3554.79198853,0.00481098
3556.72079590,0.00487649
3558.64960327,0.00478294
3560.57841064,0.00482121
3562.50721802,0.00476768
3564.43602539,0.00472160
3566.36483276,0.00438660
3568.29364014,0.00426854
3570.22244751,0.00471069
3572.15125488,0.00474779
3574.08006226,0.00472424
3576.00886963,0.00492065
3577.93767700,0.00472527
3579.86648437,0.00470872
3581.79529175,0.00487442
3583.72409912,0.00477967
3585.65290649,0.00453013
3587.58171387,0.00414666
3589.51052124,0.00440804
3591.43932861,0.00479422
3593.36813599,0.00459736
3595.29694336,0.00452498
3597.22575073,0.00459985
3599.15455811,0.00464524
3601.08336548,0.00460206
3603.01217285,0.00467589
3604.94098022,0.00470235
3606.86978760,0.00446190
3608.79859497,0.00424241
3610.72740234,0.00436753
3612.65620972,0.00439906
3614.58501709,0.00428764
3616.51382446,0.00469502
3618.44263184,0.00421011
3620.37143921,0.00401000
3622.30024658,0.00466893
3624.22905395,0.00463256
3626.15786133,0.00478114
3628.08666870,0.00385375
3630.01547607,0.00355573
3631.94428345,0.00455013
3633.87309082,0.00439095
3635.80189819,0.00451109
3637.73070557,0.00464205
3639.65951294,0.00463424
3641.58832031,0.00459148
3643.51712769,0.00455644
3645.44593506,0.00456194
3647.37474243,0.00393541
3649.30354980,0.00364701
3651.23235718,0.00370667
3653.16116455,0.00445183
3655.08997192,0.00434314
3657.01877930,0.00390848
3658.94758667,0.00466596
3660.87639404,0.00454069
3662.80520142,0.00454778
3664.73400879,0.00449749
3666.66281616,0.00450153
3668.59162354,0.00424475
3670.52043091,0.00339952
3672.44923828,0.00428283
3674.37804565,0.00396649
3676.30685303,0.00328695
3678.23566040,0.00423287
3680.16446777,0.00436487
3682.09327515,0.00436636
3684.02208252,0.00443683
3685.95088989,0.00434105
3687.87969727,0.00380059
3689.80850464,0.00356501
3691.73731201,0.00408564
3693.66611938,0.00418127
3695.59492676,0.00433013
3697.52373413,0.00432950
3699.45254150,0.00437479
3701.38134888,0.00416791
3703.31015625,0.00412746
3705.23896362,0.00455983
3707.16777100,0.00415444
3709.09657837,0.00403492
3711.02538574,0.00364508
3712.95419312,0.00355943
3714.88300049,0.00428380
3716.81180786,0.00412641
3718.74061523,0.00416201
3720.66942261,0.00401635
3722.59822998,0.00392486
3724.52703735,0.00404074
3726.45584473,0.00386649
3728.38465210,0.00417016
3730.31345947,0.00400382
3732.24226685,0.00371744
3734.17107422,0.00352666
3736.09988159,0.00340012
3738.02868896,0.00356049
3739.95749634,0.00392502
3741.88630371,0.00411206
3743.81511108,0.00303941
3745.74391846,0.00298671
3747.67272583,0.00375786
3749.60153320,0.00325578
3751.53034058,0.00311054
3753.45914795,0.00347347
3755.38795532,0.00386815
3757.31676270,0.00405787
3759.24557007,0.00365206
3761.17437744,0.00384214
3763.10318481,0.00417378
3765.03199219,0.00377320
3766.96079956,0.00388125
3768.88960693,0.00380787
3770.81841431,0.00362185
3772.74722168,0.00405610
3774.67602905,0.00388792
3776.60483643,0.00390686
3778.53364380,0.00375269
3780.46245117,0.00362300
3782.39125854,0.00400009
3784.32006592,0.00375927
3786.24887329,0.00382757
3788.17768066,0.00388485
3790.10648804,0.00381529
3792.03529541,0.00391218
3793.96410278,0.00395296
3795.89291016,0.00362869
3797.82171753,0.00363658
3799.75052490,0.00387672
3801.67933228,0.00297127
3803.60813965,0.00357333
3805.53694702,0.00374672
3807.46575439,0.00306154
3809.39456177,0.00388530
3811.32336914,0.00368405
3813.25217651,0.00390954
3815.18098389,0.00343851
3817.10979126,0.00301227
3819.03859863,0.00381959
3820.96740601,0.00298949
3822.89621338,0.00333357
3824.82502075,0.00377391
3826.75382812,0.00338937
3828.68263550,0.00374142
3830.61144287,0.00352059
3832.54025024,0.00340597
3834.46905762,0.00347539
3836.39786499,0.00320377
3838.32667236,0.00288711
3840.25547974,0.00326248
3842.18428711,0.00347546
3844.11309448,0.00335778
3846.04190186,0.00361577
3847.97070923,0.00347284
3849.89951660,0.00351405
3851.82832397,0.00306866
3853.75713135,0.00228604
3855.68593872,0.00281407
3857.61474609,0.00351342
3859.54355347,0.00342832
3861.47236084,0.00344520
3863.40116821,0.00329013
3865.32997559,0.00308930
3867.25878296,0.00352900
3869.18759033,0.00302590
3871.11639770,0.00289347
3873.04520508,0.00351620
3874.97401245,0.00313746
3876.90281982,0.00346656
3878.83162720,0.00346819
3880.76043457,0.00291930
3882.68924194,0.00340516
3884.61804932,0.00321553
3886.54685669,0.00289414
3888.47566406,0.00340801
3890.40447144,0.00328344
3892.33327881,0.00302604
3894.26208618,0.00336952
3896.19089355,0.00337049
3898.11970093,0.00313898
3900.04850830,0.00303371
3901.97731567,0.00298622
3903.90612305,0.00290241
3905.83493042,0.00298199
3907.76373779,0.00328552
3909.69254517,0.00328714
3911.62135254,0.00335050
3913.55015991,0.00331600
3915.47896728,0.00315798
3917.40777466,0.00312503
3919.33658203,0.00306376
3921.26538940,0.00328568
3923.19419678,0.00322157
3925.12300415,0.00308340
3927.05181152,0.00320779
3928.98061890,0.00316780
3930.90942627,0.00308529
3932.83823364,0.00297260
3934.76704102,0.00312726
3936.69584839,0.00328207
3938.62465576,0.00313990
3940.55346313,0.00309237
3942.48227051,0.00306445
3944.41107788,0.00308465
3946.33988525,0.00316385
3948.26869263,0.00305100
3950.19750000,0.00305857
3952.12630737,0.00318696
3954.05511475,0.00315094
3955.98392212,0.00314389
3957.91272949,0.00305527
3959.84153687,0.00304056
3961.77034424,0.00308112
3963.69915161,0.00302526
3965.62795898,0.00309289
3967.55676636,0.00307296
3969.48557373,0.00305361
3971.41438110,0.00301325
3973.34318848,0.00295110
3975.27199585,0.00305181
3977.20080322,0.00310345
3979.12961060,0.00299802
3981.05841797,0.00289462
3982.98722534,0.00296070
3984.91603271,0.00298930
3986.84484009,0.00301655
3988.77364746,0.00299605
3990.70245483,0.00290256
3992.63126221,0.00294681
3994.56006958,0.00296124
3996.48887695,0.00294226
3998.41768433,0.00290559
4000.34649170,0.00292413
4002.27529907,0.00293334
4004.20410645,0.00291941
4006.13291382,0.00297437
4008.06172119,0.00288974
4009.99052856,0.00281034
4011.91933594,0.00285955
4013.84814331,0.00287591
4015.77695068,0.00280556
4017.70575806,0.00279311
4019.63456543,0.00287257
4021.56337280,0.00289571
4023.49218018,0.00282410
4025.42098755,0.00284767
4027.34979492,0.00286744
4029.27860229,0.00273349
4031.20740967,0.00277579
4033.13621704,0.00280866
4035.06502441,0.00280340
4036.99383179,0.00281083
4038.92263916,0.00272997
4040.85144653,0.00274426
4042.78025391,0.00271648
4044.70906128,0.00269599
4046.63786865,0.00267427
4048.56667603,0.00275743
4050.49548340,0.00271144
4052.42429077,0.00260362
4054.35309814,0.00277315
4056.28190552,0.00271157
4058.21071289,0.00272360
4060.13952026,0.00270488
4062.06832764,0.00261747
4063.99713501,0.00269309
4065.92594238,0.00261427
4067.85474976,0.00270435
4069.78355713,0.00269238
4071.71236450,0.00260347
4073.64117187,0.00263820
4075.56997925,0.00263884
4077.49878662,0.00265658
4079.42759399,0.00259607
4081.35640137,0.00264558
4083.28520874,0.00268202
4085.21401611,0.00263193
4087.14282349,0.00261867
4089.07163086,0.00266324
4091.00043823,0.00261400
4092.92924561,0.00248951
4094.85805298,0.00253121
4096.78686035,0.00256726
4098.71566772,0.00259775
4100.64447510,0.00256763
4102.57328247,0.00255931
4104.50208984,0.00257008
4106.43089722,0.00252536
4108.35970459,0.00253649
4110.28851196,0.00248082
4112.21731934,0.00254661
4114.14612671,0.00253448
4116.07493408,0.00245178
4118.00374145,0.00253075
4119.93254883,0.00247340
4121.86135620,0.00248974
4123.79016357,0.00254329
4125.71897095,0.00238574
4127.64777832,0.00241288
4129.57658569,0.00251096
4131.50539307,0.00243643
4133.43420044,0.00248877
4135.36300781,0.00247275
4137.29181519,0.00244920
4139.22062256,0.00244936
4141.14942993,0.00234554
4143.07823730,0.00243146
4145.00704468,0.00241556
4146.93585205,0.00238740
4148.86465942,0.00237767
4150.79346680,0.00233340
4152.72227417,0.00241177
4154.65108154,0.00234833
4156.57988892,0.00234817
4158.50869629,0.00233252
4160.43750366,0.00234065
4162.36631103,0.00242739
4164.29511841,0.00241316
4166.22392578,0.00240713
4168.15273315,0.00231504
4170.08154053,0.00230674
4172.01034790,0.00228056
4173.93915527,0.00222575
4175.86796265,0.00227379
4177.79677002,0.00230923
4179.72557739,0.00232919
4181.65438477,0.00224785
4183.58319214,0.00226720
4185.51199951,0.00230279
4187.44080688,0.00221417
4189.36961426,0.00226554
4191.29842163,0.00233565
4193.22722900,0.00221341
4195.15603638,0.00217774
4197.08484375,0.00223913
4199.01365112,0.00223871
4200.94245850,0.00225686
4202.87126587,0.00213506
4204.80007324,0.00214310
4206.72888062,0.00224232
4208.65768799,0.00217677
4210.58649536,0.00213250
4212.51530273,0.00207816
4214.44411011,0.00215353
4216.37291748,0.00217777
4218.30172485,0.00210905
4220.23053223,0.00212013
4222.15933960,0.00215976
4224.08814697,0.00218147
4226.01695435,0.00208691
4227.94576172,0.00210993
4229.87456909,0.00211714
4231.80337646,0.00205788
4233.73218384,0.00202414
4235.66099121,0.00200705
4237.58979858,0.00214334
4239.51860596,0.00208887
4241.44741333,0.00199246
4243.37622070,0.00210631
4245.30502808,0.00214518
4247.23383545,0.00208930
4249.16264282,0.00205225
4251.09145020,0.00204495
4253.02025757,0.00202533
4254.94906494,0.00206461
4256.87787231,0.00207960
4258.80667969,0.00199312
4260.73548706,0.00196813
4262.66429443,0.00200406
4264.59310181,0.00202032
4266.52190918,0.00201688
4268.45071655,0.00201425
4270.37952393,0.00201802
4272.30833130,0.00200750
4274.23713867,0.00201866
4276.16594604,0.00199879
4278.09475342,0.00192809
4280.02356079,0.00196392
4281.95236816,0.00199789
4283.88117554,0.00194965
4285.80998291,0.00192133
4287.73879028,0.00194345
4289.66759766,0.00194449
4291.59640503,0.00191878
4293.52521240,0.00198141
4295.45401978,0.00194380
4297.38282715,0.00189742
4299.31163452,0.00190269
4301.24044189,0.00185759
4303.16924927,0.00190353
4305.09805664,0.00187153
4307.02686401,0.00180717
4308.95567139,0.00183127
4310.88447876,0.00187480
4312.81328613,0.00185440
4314.74209351,0.00186602
4316.67090088,0.00187356
4318.59970825,0.00179349
4320.52851562,0.00192890
4322.45732300,0.00191745
4324.38613037,0.00177816
4326.31493774,0.00186081
4328.24374512,0.00188763
4330.17255249,0.00183665
4332.10135986,0.00187956
4334.03016724,0.00190533
4335.95897461,0.00176018
4337.88778198,0.00185401
4339.81658936,0.00184857
4341.74539673,0.00173238
4343.67420410,0.00184727
4345.60301147,0.00173656
4347.53181885,0.00181072
4349.46062622,0.00181484
4351.38943359,0.00171283
4353.31824097,0.00178880
4355.24704834,0.00174189
4357.17585571,0.00180395
4359.10466309,0.00165844
4361.03347046,0.00166957
4362.96227783,0.00179905
4364.89108520,0.00167603
4366.81989258,0.00177955
4368.74869995,0.00173688
4370.67750732,0.00168161
4372.60631470,0.00173630
4374.53512207,0.00165045
4376.46392944,0.00172886
4378.39273682,0.00178625
4380.32154419,0.00167049
4382.25035156,0.00168184
4384.17915894,0.00171007
4386.10796631,0.00163514
4388.03677368,0.00164548
4389.96558105,0.00167300
4391.89438843,0.00168478
4393.82319580,0.00161176
4395.75200317,0.00163912
4397.68081055,0.00177039
4399.60961792,0.00167320
4401.53842529,0.00165665
4403.46723267,0.00166649
4405.39604004,0.00164568
4407.32484741,0.00168304
4409.25365478,0.00163758
4411.18246216,0.00170934
4413.11126953,0.00169995
4415.04007690,0.00156195
4416.96888428,0.00162315
4418.89769165,0.00165752
4420.82649902,0.00156016
4422.75530640,0.00157770
4424.68411377,0.00160486
4426.61292114,0.00158292
4428.54172852,0.00157850
4430.47053589,0.00162729
4432.39934326,0.00165295
4434.32815063,0.00151364
4436.25695801,0.00151605
4438.18576538,0.00158373
4440.11457275,0.00155999
4442.04338013,0.00155014
4443.97218750,0.00150218
4445.90099487,0.00148769
4447.82980225,0.00148855
4449.75860962,0.00153059
4451.68741699,0.00150038
4453.61622437,0.00150836
4455.54503174,0.00149643
4457.47383911,0.00141729
4459.40264648,0.00156012
4461.33145386,0.00155639
4463.26026123,0.00148952
4465.18906860,0.00149237
4467.11787598,0.00151106
4469.04668335,0.00152677
4470.97549072,0.00144444
4472.90429810,0.00150839
4474.83310547,0.00147607
4476.76191284,0.00142453
4478.69072021,0.00142598
4480.61952759,0.00142933
4482.54833496,0.00148586
4484.47714233,0.00147750
4486.40594971,0.00152198
4488.33475708,0.00142977
4490.26356445,0.00148158
4492.19237183,0.00148479
4494.12117920,0.00133146
4496.04998657,0.00145402
4497.97879395,0.00144412
4499.90760132,0.00144204
4501.83640869,0.00140566
4503.76521606,0.00140907
4505.69402344,0.00148422
4507.62283081,0.00134934
4509.55163818,0.00141663
4511.48044556,0.00137379
4513.40925293,0.00133385
4515.33806030,0.00145583
4517.26686768,0.00140597
4519.19567505,0.00139701
4521.12448242,0.00136423
4523.05328979,0.00141171
4524.98209717,0.00142659
4526.91090454,0.00134775
4528.83971191,0.00139918
4530.76851929,0.00138837
4532.69732666,0.00134427
4534.62613403,0.00129560
4536.55494141,0.00127810
4538.48374878,0.00134910
4540.41255615,0.00141082
4542.34136353,0.00140327
4544.27017090,0.00134998
4546.19897827,0.00133420
4548.12778564,0.00133108
4550.05659302,0.00141406
4551.98540039,0.00141334
4553.91420776,0.00129834
4555.84301514,0.00128744
4557.77182251,0.00124319
4559.70062988,0.00130537
4561.62943726,0.00137811
4563.55824463,0.00127951
4565.48705200,0.00125373
4567.41585937,0.00126955
4569.34466675,0.00131821
4571.27347412,0.00132625
4573.20228149,0.00129950
4575.13108887,0.00130576
4577.05989624,0.00125579
4578.98870361,0.00126389
4580.91751099,0.00122072
4582.84631836,0.00120737
4584.77512573,0.00131665
4586.70393311,0.00129441
4588.63274048,0.00123529
4590.56154785,0.00119145
4592.49035522,0.00118231
4594.41916260,0.00123175
4596.34796997,0.00122670
4598.27677734,0.00124760
4600.20558472,0.00123651
4602.13439209,0.00117175
4604.06319946,0.00123649
4605.99200684,0.00123544
4607.92081421,0.00115210
4609.84962158,0.00122198
4611.77842895,0.00122045
4613.70723633,0.00122645
4615.63604370,0.00125922
4617.56485107,0.00117322
4619.49365845,0.00124418
4621.42246582,0.00121838
4623.35127319,0.00108594
4625.28008057,0.00115438
4627.20888794,0.00118257
4629.13769531,0.00112074
4631.06650269,0.00113441
4632.99531006,0.00122592
4634.92411743,0.00115520
4636.85292480,0.00107016
4638.78173218,0.00115825
4640.71053955,0.00117219
4642.63934692,0.00118064
4644.56815430,0.00113500
4646.49696167,0.00106416
4648.42576904,0.00112447
4650.35457642,0.00115022
4652.28338379,0.00114513
4654.21219116,0.00109897
4656.14099853,0.00110481
4658.06980591,0.00118865
4659.99861328,0.00114540
4661.92742065,0.00114096
4663.85622803,0.00116333
4665.78503540,0.00107865
4667.71384277,0.00109361
4669.64265015,0.00112801
4671.57145752,0.00114164
4673.50026489,0.00120486
4675.42907227,0.00114431
4677.35787964,0.00109718
4679.28668701,0.00109060
4681.21549438,0.00105995
4683.14430176,0.00110126
4685.07310913,0.00106533
4687.00191650,0.00101146
4688.93072388,0.00103122
4690.85953125,0.00112096
4692.78833862,0.00111557
4694.71714600,0.00101240
4696.64595337,0.00107781
4698.57476074,0.00101765
4700.50356812,0.00102067
4702.43237549,0.00111127
4704.36118286,0.00099486
4706.28999023,0.00109452
4708.21879761,0.00114573
4710.14760498,0.00104003
4712.07641235,0.00099667
4714.00521973,0.00100411
4715.93402710,0.00109604
4717.86283447,0.00099067
4719.79164185,0.00095644
4721.72044922,0.00103875
4723.64925659,0.00099131
4725.57806396,0.00096121
4727.50687134,0.00095082
4729.43567871,0.00103172
4731.36448608,0.00107054
4733.29329346,0.00097112
4735.22210083,0.00098143
4737.15090820,0.00108646
4739.07971558,0.00102429
4741.00852295,0.00102493
4742.93733032,0.00105147
4744.86613770,0.00088485
4746.79494507,0.00100392
4748.72375244,0.00105101
4750.65255981,0.00087027
4752.58136719,0.00093905
4754.51017456,0.00100327
4756.43898193,0.00099160
4758.36778931,0.00098853
4760.29659668,0.00102334
4762.22540405,0.00095400
4764.15421143,0.00088505
4766.08301880,0.00100573
4768.01182617,0.00100755
4769.94063354,0.00096326
4771.86944092,0.00093535
4773.79824829,0.00093267
4775.72705566,0.00101663
4777.65586304,0.00099726
4779.58467041,0.00092590
4781.51347778,0.00090594
4783.44228516,0.00085688
4785.37109253,0.00082428
4787.29989990,0.00089037
4789.22870728,0.00092040
4791.15751465,0.00089156
4793.08632202,0.00088992
4795.01512939,0.00093665
4796.94393677,0.00091334
4798.87274414,0.00087927
4800.80155151,0.00094705
4802.73035889,0.00090100
4804.65916626,0.00086810
4806.58797363,0.00090256
4808.51678101,0.00093881
4810.44558838,0.00091443
4812.37439575,0.00083465
4814.30320312,0.00089330
4816.23201050,0.00085477
4818.16081787,0.00087413
4820.08962524,0.00093767
4822.01843262,0.00087690
4823.94723999,0.00091015
4825.87604736,0.00089039
4827.80485474,0.00088386
4829.73366211,0.00089349
4831.66246948,0.00089714
4833.59127686,0.00085771
4835.52008423,0.00082196
4837.44889160,0.00089351
4839.37769897,0.00085568
4841.30650635,0.00090237
4843.23531372,0.00084035
4845.16412109,0.00070489
4847.09292847,0.00081276
4849.02173584,0.00083829
4850.95054321,0.00084739
4852.87935059,0.00085193
4854.80815796,0.00079850
4856.73696533,0.00074405
4858.66577270,0.00075145
4860.59458008,0.00085195
4862.52338745,0.00083759
4864.45219482,0.00081026
4866.38100220,0.00081018
4868.30980957,0.00084524
4870.23861694,0.00086480
4872.16742432,0.00081935
4874.09623169,0.00085175
4876.02503906,0.00080013
4877.95384644,0.00080900
4879.88265381,0.00088416
4881.81146118,0.00077787
4883.74026855,0.00076566
4885.66907593,0.00085944
4887.59788330,0.00083088
4889.52669067,0.00073383
4891.45549805,0.00075498
4893.38430542,0.00081119
4895.31311279,0.00073750
4897.24192017,0.00070949
4899.17072754,0.00071553
4901.09953491,0.00073475
4903.02834228,0.00080766
4904.95714966,0.00079607
4906.88595703,0.00074788
4908.81476440,0.00075342
4910.74357178,0.00076133
4912.67237915,0.00074590
4914.60118652,0.00078812
4916.52999390,0.00073700
4918.45880127,0.00071291
4920.38760864,0.00082430
4922.31641602,0.00073734
4924.24522339,0.00073612
4926.17403076,0.00073228
4928.10283813,0.00067153
4930.03164551,0.00076440
4931.96045288,0.00066890
4933.88926025,0.00072624
4935.81806763,0.00072983
4937.74687500,0.00061355
4939.67568237,0.00076478
4941.60448975,0.00069863
4943.53329712,0.00071234
4945.46210449,0.00073741
4947.39091187,0.00059989
4949.31971924,0.00073621
4951.24852661,0.00075210
4953.17733398,0.00067032
4955.10614136,0.00068318
4957.03494873,0.00070689
4958.96375610,0.00073691
4960.89256348,0.00066205
4962.82137085,0.00066636
4964.75017822,0.00069154
4966.67898560,0.00068530
4968.60779297,0.00071380
4970.53660034,0.00066337
4972.46540771,0.00068113
4974.39421509,0.00072422
4976.32302246,0.00067500
4978.25182983,0.00064186
4980.18063721,0.00063818
4982.10944458,0.00063607
4984.03825195,0.00064877
4985.96705933,0.00065157
4987.89586670,0.00065612
4989.82467407,0.00074191
4991.75348145,0.00070256
4993.68228882,0.00064375
4995.61109619,0.00069985
4997.53990356,0.00059889
4999.46871094,0.00063093
5001.39751831,0.00069516
5003.32632568,0.00059533
5005.25513306,0.00066163
5007.18394043,0.00072871
5009.11274780,0.00068774
5011.04155518,0.00063901
5012.97036255,0.00064982
5014.89916992,0.00063044
5016.82797729,0.00064180
5018.75678467,0.00067098
5020.68559204,0.00058241
5022.61439941,0.00065977
5024.54320679,0.00065846
5026.47201416,0.00061815
5028.40082153,0.00062126
5030.32962891,0.00053295
5032.25843628,0.00059672
5034.18724365,0.00054996
5036.11605103,0.00063774
5038.04485840,0.00072008
5039.97366577,0.00060804
5041.90247314,0.00068951
5043.83128052,0.00060184
5045.76008789,0.00054544
5047.68889526,0.00058431
5049.61770264,0.00063806
5051.54651001,0.00069906
5053.47531738,0.00057827
5055.40412476,0.00062264
5057.33293213,0.00058128
5059.26173950,0.00052669
5061.19054687,0.00058219
5063.11935425,0.00055243
5065.04816162,0.00065209
5066.97696899,0.00063282
5068.90577637,0.00057724
5070.83458374,0.00057234
5072.76339111,0.00058553
5074.69219849,0.00061814
5076.62100586,0.00054164
5078.54981323,0.00063888
5080.47862061,0.00064926
5082.40742798,0.00054524
5084.33623535,0.00056741
5086.26504272,0.00055771
5088.19385010,0.00059525
5090.12265747,0.00057614
5092.05146484,0.00059100
5093.98027222,0.00061664
5095.90907959,0.00055350
5097.83788696,0.00057418
5099.76669434,0.00056459
5101.69550171,0.00055337
5103.62430908,0.00052334
5105.55311645,0.00050929
5107.48192383,0.00052924
5109.41073120,0.00049282
5111.33953857,0.00052087
5113.26834595,0.00056010
5115.19715332,0.00056533
5117.12596069,0.00052342
5119.05476807,0.00056435
5120.98357544,0.00060520
5122.91238281,0.00049968
5124.84119019,0.00050230
5126.76999756,0.00053869
5128.69880493,0.00054182
5130.62761230,0.00054112
5132.55641968,0.00050729
5134.48522705,0.00046168
5136.41403442,0.00046284
5138.34284180,0.00048630
5140.27164917,0.00048754
5142.20045654,0.00057520
5144.12926392,0.00049199
5146.05807129,0.00043350
5147.98687866,0.00051732
5149.91568603,0.00053130
5151.84449341,0.00063672
5153.77330078,0.00052030
5155.70210815,0.00041479
5157.63091553,0.00053251
5159.55972290,0.00054833
5161.48853027,0.00051891
5163.41733765,0.00050139
5165.34614502,0.00053611
5167.27495239,0.00047485
5169.20375977,0.00046659
5171.13256714,0.00047380
5173.06137451,0.00042895
5174.99018188,0.00051234
5176.91898926,0.00048576
5178.84779663,0.00047371
5180.77660400,0.00045434
5182.70541138,0.00045493
5184.63421875,0.00049318
5186.56302612,0.00041669
5188.49183350,0.00051337
5190.42064087,0.00053846
5192.34944824,0.00046571
5194.27825562,0.00049439
5196.20706299,0.00044872
5198.13587036,0.00043124
5200.06467773,0.00040489
5201.99348511,0.00041046
5203.92229248,0.00047330
5205.85109985,0.00040113
5207.77990723,0.00041868
5209.70871460,0.00049241
5211.63752197,0.00042593
5213.56632935,0.00044816
5215.49513672,0.00046275
5217.42394409,0.00045800
5219.35275146,0.00051029
5221.28155884,0.00050850
5223.21036621,0.00050139
5225.13917358,0.00039020
5227.06798096,0.00037862
5228.99678833,0.00044906
5230.92559570,0.00038567
5232.85440308,0.00042537
5234.78321045,0.00046991
5236.71201782,0.00045503
5238.64082520,0.00045331
5240.56963257,0.00044721
5242.49843994,0.00045197
5244.42724731,0.00040465
5246.35605469,0.00038609
5248.28486206,0.00040282
5250.21366943,0.00042677
5252.14247681,0.00047412
5254.07128418,0.00046968
5256.00009155,0.00043843
5257.92889893,0.00039333
5259.85770630,0.00039268
5261.78651367,0.00045882
5263.71532104,0.00040298
5265.64412842,0.00038221
5267.57293579,0.00045485
5269.50174316,0.00042587
5271.43055054,0.00040464
5273.35935791,0.00042065
5275.28816528,0.00046082
5277.21697266,0.00041688
5279.14578003,0.00039814
5281.07458740,0.00043417
5283.00339478,0.00036225
5284.93220215,0.00040981
5286.86100952,0.00043141
5288.78981689,0.00042232
5290.71862427,0.00040136
5292.64743164,0.00036029
5294.57623901,0.00040196
5296.50504639,0.00034291
5298.43385376,0.00040618
5300.36266113,0.00043840
5302.29146851,0.00040111
5304.22027588,0.00036518
5306.14908325,0.00031318
5308.07789062,0.00039032
5310.00669800,0.00033481
5311.93550537,0.00041363
5313.86431274,0.00036913
5315.79312012,0.00024195
5317.72192749,0.00043717
5319.65073486,0.00046376
5321.57954224,0.00045506
5323.50834961,0.00038336
5325.43715698,0.00033245
5327.36596436,0.00036847
5329.29477173,0.00032025
5331.22357910,0.00042390
5333.15238647,0.00045713
5335.08119385,0.00040003
5337.01000122,0.00039116
5338.93880859,0.00041568
5340.86761597,0.00038900
5342.79642334,0.00038165
5344.72523071,0.00036715
5346.65403809,0.00031342
5348.58284546,0.00044067
5350.51165283,0.00035895
5352.44046020,0.00031257
5354.36926758,0.00044452
5356.29807495,0.00034414
5358.22688232,0.00031709
5360.15568970,0.00035735
5362.08449707,0.00035546
5364.01330444,0.00034302
5365.94211182,0.00036131
5367.87091919,0.00041213
5369.79972656,0.00036009
5371.72853394,0.00030959
5373.65734131,0.00036352
5375.58614868,0.00038206
5377.51495605,0.00032003
5379.44376343,0.00031896
5381.37257080,0.00029701
5383.30137817,0.00034620
5385.23018555,0.00036611
5387.15899292,0.00029781
5389.08780029,0.00034381
5391.01660767,0.00029512
5392.94541504,0.00030233
5394.87422241,0.00033436
5396.80302978,0.00029528
5398.73183716,0.00030970
5400.66064453,0.00031458
5402.58945190,0.00038162
5404.51825928,0.00036388
5406.44706665,0.00033246
5408.37587402,0.00031170
5410.30468140,0.00030891
5412.23348877,0.00036162
5414.16229614,0.00030989
5416.09110352,0.00033723
5418.01991089,0.00035023
5419.94871826,0.00032544
5421.87752563,0.00034167
5423.80633301,0.00029379
5425.73514038,0.00029382
5427.66394775,0.00034465
5429.59275513,0.00035882
5431.52156250,0.00032994
5433.45036987,0.00032784
5435.37917725,0.00028251
5437.30798462,0.00026856
5439.23679199,0.00035480
5441.16559936,0.00030528
5443.09440674,0.00021282
5445.02321411,0.00028820
5446.95202148,0.00035031
5448.88082886,0.00029734
5450.80963623,0.00030187
5452.73844360,0.00026983
5454.66725098,0.00026675
5456.59605835,0.00031874
5458.52486572,0.00027203
5460.45367310,0.00029353
5462.38248047,0.00028675
5464.31128784,0.00028417
5466.24009521,0.00028527
5468.16890259,0.00023309
5470.09770996,0.00028607
5472.02651733,0.00029071
5473.95532471,0.00029800
5475.88413208,0.00029442
5477.81293945,0.00027414
5479.74174683,0.00034222
5481.67055420,0.00033877
5483.59936157,0.00030625
5485.52816895,0.00028873
5487.45697632,0.00028363
5489.38578369,0.00030604
5491.31459106,0.00031661
5493.24339844,0.00029506
5495.17220581,0.00026826
5497.10101318,0.00027623
5499.02982056,0.00026902
5500.95862793,0.00029046
5502.88743530,0.00030031
5504.81624268,0.00027733
5506.74505005,0.00030755
5508.67385742,0.00031380
5510.60266479,0.00029716
5512.53147217,0.00028545
5514.46027954,0.00027032
5516.38908691,0.00023741
5518.31789429,0.00021687
5520.24670166,0.00031103
5522.17550903,0.00034771
5524.10431641,0.00027185
5526.03312378,0.00028156
5527.96193115,0.00027390
5529.89073853,0.00024352
5531.81954590,0.00028973
5533.74835327,0.00028305
5535.67716064,0.00026803
5537.60596802,0.00027519
5539.53477539,0.00024554
5541.46358276,0.00025211
5543.39239014,0.00026249
5545.32119751,0.00022758
5547.25000488,0.00021579
5549.17881226,0.00026321
5551.10761963,0.00027027
5553.03642700,0.00025040
5554.96523437,0.00027732
5556.89404175,0.00022889
5558.82284912,0.00017652
5560.75165649,0.00023028
5562.68046387,0.00025512
5564.60927124,0.00026378
5566.53807861,0.00031311
5568.46688599,0.00030881
5570.39569336,0.00026557
5572.32450073,0.00027969
5574.25330811,0.00024080
5576.18211548,0.00014602
5578.11092285,0.00020023
5580.03973022,0.00024848
5581.96853760,0.00024896
5583.89734497,0.00027870
5585.82615234,0.00022274
5587.75495972,0.00028287
5589.68376709,0.00028017
5591.61257446,0.00016808
5593.54138184,0.00029218
5595.47018921,0.00026910
5597.39899658,0.00017166
5599.32780395,0.00025058
5601.25661133,0.00028439
5603.18541870,0.00029425
5605.11422607,0.00021331
5607.04303345,0.00017989
5608.97184082,0.00019845
5610.90064819,0.00022793
5612.82945557,0.00031207
5614.75826294,0.00024748
5616.68707031,0.00025856
5618.61587769,0.00026846
5620.54468506,0.00015963
5622.47349243,0.00020102
5624.40229980,0.00026445
5626.33110718,0.00023405
5628.25991455,0.00017915
5630.18872192,0.00023127
5632.11752930,0.00025668
5634.04633667,0.00019349
5635.97514404,0.00025947
5637.90395142,0.00024382
5639.83275879,0.00015908
5641.76156616,0.00021884
5643.69037353,0.00025456
5645.61918091,0.00023730
5647.54798828,0.00021622
5649.47679565,0.00020215
5651.40560303,0.00021300
5653.33441040,0.00016684
5655.26321777,0.00022296
5657.19202515,0.00030304
5659.12083252,0.00016929
5661.04963989,0.00015864
5662.97844727,0.00025515
5664.90725464,0.00024872
5666.83606201,0.00019766
5668.76486938,0.00018287
5670.69367676,0.00027257
5672.62248413,0.00023807
5674.55129150,0.00021667
5676.48009888,0.00021512
5678.40890625,0.00016838
5680.33771362,0.00025640
5682.26652100,0.00020096
5684.19532837,0.00019440
5686.12413574,0.00027444
5688.05294311,0.00023677
5689.98175049,0.00023050
5691.91055786,0.00018689
5693.83936523,0.00019618
5695.76817261,0.00017913
5697.69697998,0.00016683
5699.62578735,0.00021512
5701.55459473,0.00014996
5703.48340210,0.00015098
5705.41220947,0.00017034
5707.34101685,0.00020433
5709.26982422,0.00019281
5711.19863159,0.00012453
5713.12743896,0.00025347
5715.05624634,0.00024059
5716.98505371,0.00016260
5718.91386108,0.00022765
5720.84266846,0.00023080
5722.77147583,0.00027169
5724.70028320,0.00022135
5726.62909058,0.00015660
5728.55789795,0.00017132
5730.48670532,0.00012891
5732.41551270,0.00015245
5734.34432007,0.00018408
5736.27312744,0.00022423
5738.20193481,0.00017788
5740.13074219,0.00008737
5742.05954956,0.00017417
5743.98835693,0.00020218
5745.91716431,0.00018872
5747.84597168,0.00018477
5749.77477905,0.00014306
5751.70358643,0.00019801
5753.63239380,0.00021734
5755.56120117,0.00014713
5757.49000854,0.00016445
5759.41881592,0.00020671
5761.34762329,0.00012369
5763.27643066,0.00015382
5765.20523804,0.00022193
5767.13404541,0.00016440
5769.06285278,0.00022799
5770.99166016,0.00019044
5772.92046753,0.00009530
5774.84927490,0.00016396
5776.77808228,0.00016287
5778.70688965,0.00014639
5780.63569702,0.00020263
5782.56450439,0.00020734
5784.49331177,0.00014249
5786.42211914,0.00015567
5788.35092651,0.00020401
5790.27973389,0.00020880
5792.20854126,0.00018443
5794.13734863,0.00009879
5796.06615601,0.00011345
5797.99496338,0.00018663
5799.92377075,0.00017722
5801.85257812,0.00014271
5803.78138550,0.00013035
5805.71019287,0.00014246
5807.63900024,0.00014506
5809.56780762,0.00020384
5811.49661499,0.00023935
5813.42542236,0.00014509
5815.35422974,0.00011674
5817.28303711,0.00019265
5819.21184448,0.00017111
5821.14065186,0.00012267
5823.06945923,0.00017030
5824.99826660,0.00021032
5826.92707397,0.00016143
5828.85588135,0.00007310
5830.78468872,0.00013978
5832.71349609,0.00023383
5834.64230347,0.00016980
5836.57111084,0.00015190
5838.49991821,0.00017193
5840.42872559,0.00015139
5842.35753296,0.00013571
5844.28634033,0.00012525
5846.21514770,0.00015268
5848.14395508,0.00018140
5850.07276245,0.00016082
5852.00156982,0.00014809
5853.93037720,0.00014357
5855.85918457,0.00013364
5857.78799194,0.00018141
5859.71679932,0.00019217
5861.64560669,0.00016557
5863.57441406,0.00018132
5865.50322144,0.00021504
5867.43202881,0.00018761
5869.36083618,0.00008512
5871.28964355,0.00010855
5873.21845093,0.00016771
5875.14725830,0.00018105
5877.07606567,0.00017945
5879.00487305,0.00013328
5880.93368042,0.00015118
5882.86248779,0.00017349
5884.79129517,0.00014797
5886.72010254,0.00009470
5888.64890991,0.00014580
5890.57771728,0.00015826
5892.50652466,0.00010525
5894.43533203,0.00019658
5896.36413940,0.00011832
5898.29294678,0.00009275
5900.22175415,0.00018182
5902.15056152,0.00011372
5904.07936890,0.00012107
5906.00817627,0.00012362
5907.93698364,0.00016602
5909.86579102,0.00014928
5911.79459839,0.00011192
5913.72340576,0.00023068
5915.65221313,0.00014728
5917.58102051,0.00010136
5919.50982788,0.00012255
5921.43863525,0.00006911
5923.36744263,0.00012065
5925.29625000,0.00009269
5927.22505737,0.00014321
5929.15386475,0.00017045
5931.08267212,0.00011506
5933.01147949,0.00017416
5934.94028686,0.00011093
5936.86909424,0.00010555
5938.79790161,0.00014159
5940.72670898,0.00011693
5942.65551636,0.00015972
5944.58432373,0.00012368
5946.51313110,0.00008877
5948.44193848,0.00009927
5950.37074585,0.00012372
5952.29955322,0.00010466
5954.22836060,0.00009845
5956.15716797,0.00015482
5958.08597534,0.00010797
5960.01478271,0.00011254
5961.94359009,0.00015703
5963.87239746,0.00011017
5965.80120483,0.00007977
5967.73001221,0.00012333
5969.65881958,0.00010626
5971.58762695,0.00005842
5973.51643433,0.00012861
5975.44524170,0.00007877
5977.37404907,0.00003971
5979.30285645,0.00007360
5981.23166382,0.00009323
5983.16047119,0.00015502
5985.08927856,0.00002796
5987.01808594,0.00004826
5988.94689331,0.00014722
5990.87570068,0.00008236
5992.80450806,0.00014578
5994.73331543,0.00012971
5996.66212280,0.00008465
5998.59093018,0.00009512
6000.51973755,0.00008925
