399.26312622,-0.00024678
401.19193359,0.00026418
403.12074097,0.00031364
405.04954834,0.00050423
406.97835571,0.00131849
408.90716309,0.00050387
410.83597046,0.00013628
412.76477783,0.00068025
414.69358521,0.00060647
416.62239258,0.00123274
418.55119995,0.00079400
420.48000732,0.00015112
422.40881470,0.00123644
424.33762207,0.00087389
426.26642944,0.00068376
428.19523682,0.00120855
430.12404419,0.00053443
432.05285156,0.00061062
433.98165894,0.00056913
435.91046631,0.00033161
437.83927368,0.00083719
439.76808105,0.00086707
441.69688843,0.00058044
443.62569580,0.00083373
445.55450317,0.00093920
447.48331055,0.00029896
449.41211792,0.00060836
451.34092529,0.00091583
453.26973267,0.00041001
455.19854004,0.00067281
457.12734741,0.00067604
459.05615479,0.00052731
460.98496216,0.00050608
462.91376953,0.00010200
464.84257690,0.00042759
466.77138428,0.00065696
468.70019165,0.00016478
470.62899902,0.00039797
472.55780640,0.00084313
474.48661377,0.00068711
476.41542114,0.00043054
478.34422852,0.00032334
480.27303589,0.00047144
482.20184326,0.00022206
484.13065063,-0.00008585
486.05945801,-0.00005396
487.98826538,-0.00001085
489.91707275,0.00035732
491.84588013,0.00011799
493.77468750,-0.00021385
495.70349487,0.00035829
497.63230225,0.00022408
499.56110962,-0.00017010
501.48991699,0.00007217
503.41872437,0.00014846
505.34753174,-0.00005417
507.27633911,-0.00010254
509.20514648,0.00013677
511.13395386,0.00003400
513.06276123,0.00027987
514.99156860,0.00036970
516.92037598,-0.00003627
518.84918335,0.00018196
520.77799072,0.00025928
522.70679810,0.00024394
524.63560547,0.00013690
526.56441284,-0.00006256
528.49322021,0.00039184
530.42202759,0.00040986
532.35083496,0.00003485
534.27964233,0.00038196
536.20844971,0.00033512
538.13725708,0.00036096
540.06606445,0.00076725
541.99487183,0.00036039
543.92367920,0.00036851
545.85248657,0.00043696
547.78129395,0.00008910
549.71010132,0.00009936
551.63890869,0.00014730
553.56771606,0.00028987
555.49652344,0.00020585
557.42533081,-0.00000772
559.35413818,0.00013804
561.28294556,0.00022707
563.21175293,0.00001463
565.14056030,-0.00004521
567.06936768,-0.00013280
568.99817505,0.00018194
570.92698242,0.00029754
572.85578979,-0.00030231
574.78459717,0.00004480
576.71340454,0.00013731
578.64221191,-0.00016054
580.57101929,0.00007272
582.49982666,0.00007804
584.42863403,0.00033507
586.35744141,0.00051780
588.28624878,0.00039187
590.21505615,0.00017150
592.14386353,0.00005246
594.07267090,0.00005493
596.00147827,0.00016017
597.93028564,0.00019559
599.85909302,0.00011513
601.78790039,0.00055538
603.71670776,0.00043708
605.64551514,0.00004114
607.57432251,0.00015484
609.50312988,0.00013357
611.43193726,0.00008580
613.36074463,0.00000350
615.28955200,0.00030415
617.21835938,0.00028190
619.14716675,0.00004269
621.07597412,0.00020999
623.00478149,0.00010034
624.93358887,0.00013709
626.86239624,0.00019697
628.79120361,0.00016268
630.72001099,0.00052356
632.64881836,0.00054880
634.57762573,0.00040308
636.50643311,0.00099899
638.43524048,0.00081112
640.36404785,0.00045001
642.29285522,0.00086561
644.22166260,0.00085185
646.15046997,0.00112818
648.07927734,0.00092215
650.00808472,0.00083533
651.93689209,0.00111854
653.86569946,0.00096177
655.79450684,0.00141692
657.72331421,0.00135976
659.65212158,0.00158531
661.58092896,0.00174238
663.50973633,0.00131860
665.43854370,0.00177973
667.36735107,0.00149979
669.29615845,0.00135272
671.22496582,0.00165547
673.15377319,0.00157671
675.08258057,0.00173964
677.01138794,0.00169461
678.94019531,0.00198402
680.86900269,0.00214876
682.79781006,0.00199966
684.72661743,0.00188774
686.65542480,0.00188053
688.58423218,0.00216835
690.51303955,0.00181717
692.44184692,0.00188905
694.37065430,0.00243482
696.29946167,0.00229471
698.22826904,0.00266679
700.15707642,0.00310080
702.08588379,0.00284871
704.01469116,0.00267021
705.94349854,0.00251506
707.87230591,0.00239613
709.80111328,0.00180624
711.72992065,0.00095526
713.65872803,0.00083788
715.58753540,0.00052478
717.51634277,0.00018124
719.44515015,0.00028419
721.37395752,0.00033703
723.30276489,0.00033680
725.23157227,-0.00003588
727.16037964,-0.00006423
729.08918701,0.00010522
731.01799438,0.00014686
732.94680176,0.00030505
734.87560913,0.00021763
736.80441650,0.00013895
738.73322388,0.00010475
740.66203125,0.00042936
742.59083862,0.00044220
744.51964600,0.00029610
746.44845337,0.00017166
748.37726074,-0.00005489
750.30606812,0.00028262
752.23487549,0.00027327
754.16368286,0.00007534
756.09249023,0.00023174
758.02129761,0.00020939
759.95010498,0.00035482
761.87891235,0.00028168
763.80771973,0.00024668
765.73652710,0.00016884
767.66533447,0.00018086
769.59414185,0.00040792
771.52294922,-0.00003188
773.45175659,0.00026836
775.38056396,0.00042033
777.30937134,0.00011866
779.23817871,0.00039319
781.16698608,0.00019800
783.09579346,0.00004042
785.02460083,0.00015483
786.95340820,0.00017151
788.88221558,0.00017280
790.81102295,0.00026921
792.73983032,0.00025503
794.66863770,0.00024576
796.59744507,0.00050665
798.52625244,0.00030466
800.45505981,0.00038286
802.38386719,0.00059953
804.31267456,0.00022030
806.24148193,0.00051398
808.17028931,0.00065669
810.09909668,0.00004057
812.02790405,0.00020230
813.95671143,0.00052412
815.88551880,0.00024713
817.81432617,0.00002521
819.74313354,0.00013457
821.67194092,0.00048638
823.60074829,0.00034440
825.52955566,0.00022807
827.45836304,0.00056539
829.38717041,0.00040912
831.31597778,0.00037524
833.24478516,0.00079150
835.17359253,0.00090273
837.10239990,0.00077845
839.03120728,0.00067246
840.96001465,0.00080404
842.88882202,0.00097140
844.81762939,0.00065699
846.74643677,0.00043249
848.67524414,0.00045186
850.60405151,0.00028711
852.53285889,0.00041414
854.46166626,0.00063236
856.39047363,0.00056553
858.31928101,0.00038621
860.24808838,0.00026500
862.17689575,0.00021493
864.10570313,0.00012701
866.03451050,0.00026771
867.96331787,0.00012927
869.89212524,-0.00007832
871.82093262,0.00041469
873.74973999,0.00049134
875.67854736,0.00034998
877.60735474,0.00044802
879.53616211,0.00011481
881.46496948,0.00011614
883.39377686,0.00043185
885.32258423,0.00045049
887.25139160,0.00017881
889.18019897,0.00002977
891.10900635,0.00005417
893.03781372,0.00032917
894.96662109,0.00064914
896.89542847,0.00017108
898.82423584,-0.00004848
900.75304321,0.00025418
902.68185059,0.00047087
904.61065796,0.00019671
906.53946533,0.00013443
908.46827271,0.00056635
910.39708008,0.00044769
912.32588745,0.00045709
914.25469482,0.00045320
916.18350220,0.00073253
918.11230957,0.00077475
920.04111694,0.00035747
921.96992432,0.00067352
923.89873169,0.00068001
925.82753906,0.00064246
927.75634644,0.00085285
929.68515381,0.00091020
931.61396118,0.00085412
933.54276855,0.00093610
935.47157593,0.00119626
937.40038330,0.00095446
939.32919067,0.00116181
941.25799805,0.00145098
943.18680542,0.00097913
945.11561279,0.00101804
947.04442017,0.00120283
948.97322754,0.00092864
950.90203491,0.00098425
952.83084229,0.00091393
954.75964966,0.00094398
956.68845703,0.00138173
958.61726440,0.00117569
960.54607178,0.00113418
962.47487915,0.00126308
964.40368652,0.00117045
966.33249390,0.00116966
968.26130127,0.00105197
970.19010864,0.00125262
972.11891602,0.00134714
974.04772339,0.00150006
975.97653076,0.00148343
977.90533813,0.00137376
979.83414551,0.00180597
981.76295288,0.00203150
983.69176025,0.00214430
985.62056763,0.00205626
987.54937500,0.00243454
989.47818237,0.00284757
991.40698975,0.00292127
993.33579712,0.00350695
995.26460449,0.00362030
997.19341187,0.00387316
999.12221924,0.00427907
1001.05102661,0.00454618
1002.97983398,0.00491796
1004.90864136,0.00511401
1006.83744873,0.00568412
1008.76625610,0.00602796
1010.69506348,0.00629335
1012.62387085,0.00658912
1014.55267822,0.00713565
1016.48148560,0.00774895
1018.41029297,0.00765289
1020.33910034,0.00802084
1022.26790771,0.00861259
1024.19671509,0.00887917
1026.12552246,0.00893837
1028.05432983,0.00936684
1029.98313721,0.00976454
1031.91194458,0.00957215
1033.84075195,0.01009127
1035.76955933,0.01036714
1037.69836670,0.01050542
1039.62717407,0.01065162
1041.55598145,0.01050216
1043.48478882,0.01065839
1045.41359619,0.01008108
1047.34240356,0.01010680
1049.27121094,0.01017299
1051.20001831,0.00958454
1053.12882568,0.00970667
1055.05763306,0.00945620
1056.98644043,0.00925355
1058.91524780,0.00908096
1060.84405518,0.00884825
1062.77286255,0.00860054
1064.70166992,0.00795652
1066.63047729,0.00786594
1068.55928467,0.00751261
1070.48809204,0.00709371
1072.41689941,0.00715503
1074.34570679,0.00676892
1076.27451416,0.00618361
1078.20332153,0.00611551
1080.13212891,0.00608012
1082.06093628,0.00543819
1083.98974365,0.00514673
1085.91855103,0.00494546
1087.84735840,0.00465202
1089.77616577,0.00464511
1091.70497314,0.00426875
1093.63378052,0.00403593
1095.56258789,0.00418502
1097.49139526,0.00423675
1099.42020264,0.00380200
1101.34901001,0.00355570
1103.27781738,0.00378153
1105.20662476,0.00367924
1107.13543213,0.00361703
1109.06423950,0.00350716
1110.99304687,0.00352198
1112.92185425,0.00356937
1114.85066162,0.00337506
1116.77946899,0.00349993
1118.70827637,0.00355909
1120.63708374,0.00352627
1122.56589111,0.00339600
1124.49469849,0.00345914
1126.42350586,0.00372275
1128.35231323,0.00375167
1130.28112061,0.00390909
1132.20992798,0.00390742
1134.13873535,0.00403500
1136.06754272,0.00427160
1137.99635010,0.00436546
1139.92515747,0.00465661
1141.85396484,0.00493674
1143.78277222,0.00526030
1145.71157959,0.00547504
1147.64038696,0.00581359
1149.56919434,0.00614921
1151.49800171,0.00636428
1153.42680908,0.00679024
1155.35561646,0.00693402
1157.28442383,0.00729300
1159.21323120,0.00775256
1161.14203857,0.00786249
1163.07084595,0.00826245
1164.99965332,0.00867183
1166.92846069,0.00889204
1168.85726807,0.00910151
1170.78607544,0.00951447
1172.71488281,0.01000307
1174.64369019,0.01019441
1176.57249756,0.01053406
1178.50130493,0.01094745
1180.43011230,0.01142744
1182.35891968,0.01197702
1184.28772705,0.01230921
1186.21653442,0.01304146
1188.14534180,0.01354439
1190.07414917,0.01394528
1192.00295654,0.01497415
1193.93176392,0.01550851
1195.86057129,0.01626771
1197.78937866,0.01715912
1199.71818604,0.01756128
1201.64699341,0.01852928
1203.57580078,0.01924036
1205.50460815,0.01978055
1207.43341553,0.02064181
1209.36222290,0.02138652
1211.29103027,0.02210082
1213.21983765,0.02266131
1215.14864502,0.02331773
1217.07745239,0.02373950
1219.00625977,0.02406648
1220.93506714,0.02437306
1222.86387451,0.02448447
1224.79268188,0.02501367
1226.72148926,0.02530494
1228.65029663,0.02525188
1230.57910400,0.02540934
1232.50791138,0.02567618
1234.43671875,0.02571036
1236.36552612,0.02558254
1238.29433350,0.02555563
1240.22314087,0.02535868
1242.15194824,0.02546777
1244.08075562,0.02544896
1246.00956299,0.02512125
1247.93837036,0.02509847
1249.86717773,0.02500093
1251.79598511,0.02490597
1253.72479248,0.02455833
1255.65359985,0.02420282
1257.58240723,0.02396571
1259.51121460,0.02357922
1261.44002197,0.02339131
1263.36882935,0.02313729
1265.29763672,0.02285998
1267.22644409,0.02255861
1269.15525146,0.02235932
1271.08405884,0.02197258
1273.01286621,0.02144198
1274.94167358,0.02137050
1276.87048096,0.02086893
1278.79928833,0.02025980
1280.72809570,0.02005890
1282.65690308,0.01976867
1284.58571045,0.01937495
1286.51451782,0.01892086
1288.44332520,0.01867420
1290.37213257,0.01843293
1292.30093994,0.01820657
1294.22974731,0.01809765
1296.15855469,0.01793030
1298.08736206,0.01799151
1300.01616943,0.01811945
1301.94497681,0.01813411
1303.87378418,0.01833915
1305.80259155,0.01853709
1307.73139893,0.01883765
1309.66020630,0.01929549
1311.58901367,0.01928980
1313.51782104,0.01959593
1315.44662842,0.02019817
1317.37543579,0.02052470
1319.30424316,0.02127639
1321.23305054,0.02204803
1323.16185791,0.02273435
1325.09066528,0.02325633
1327.01947266,0.02370357
1328.94828003,0.02455742
1330.87708740,0.02521197
1332.80589478,0.02572745
1334.73470215,0.02623845
1336.66350952,0.02636008
1338.59231689,0.02586271
1340.52112427,0.02630864
1342.44993164,0.02763429
1344.37873901,0.02773907
1346.30754639,0.02784092
1348.23635376,0.02767058
1350.16516113,0.02735214
1352.09396851,0.02765284
1354.02277588,0.02708740
1355.95158325,0.02687079
1357.88039062,0.02686231
1359.80919800,0.02631771
1361.73800537,0.02484275
1363.66681274,0.02437517
1365.59562012,0.02627087
1367.52442749,0.02555697
1369.45323486,0.02509182
1371.38204224,0.02584101
1373.31084961,0.02417303
1375.23965698,0.02435203
1377.16846436,0.02528587
1379.09727173,0.02516858
1381.02607910,0.02505740
1382.95488647,0.02512118
1384.88369385,0.02527355
1386.81250122,0.02379456
1388.74130859,0.02401524
1390.67011597,0.02647525
1392.59892334,0.02570483
1394.52773071,0.02350032
1396.45653809,0.02497985
1398.38534546,0.02505199
1400.31415283,0.02471519
1402.24296021,0.02703391
1404.17176758,0.02542294
1406.10057495,0.02570302
1408.02938232,0.02684109
1409.95818970,0.02574046
1411.88699707,0.02643627
1413.81580444,0.02546610
1415.74461182,0.02602574
1417.67341919,0.02295615
1419.60222656,0.02027141
1421.53103394,0.02406405
1423.45984131,0.02313549
1425.38864868,0.02253942
1427.31745605,0.02316533
1429.24626343,0.02118962
1431.17507080,0.02046061
1433.10387817,0.02107522
1435.03268555,0.01911740
1436.96149292,0.01572416
1438.89030029,0.01837176
1440.81910767,0.01902036
1442.74791504,0.01761652
1444.67672241,0.01859547
1446.60552979,0.01682908
1448.53433716,0.01722025
1450.46314453,0.01785301
1452.39195190,0.01814405
1454.32075928,0.01880937
1456.24956665,0.01513564
1458.17837402,0.01549635
1460.10718140,0.02132671
1462.03598877,0.02311498
1463.96479614,0.02254955
1465.89360352,0.02346696
1467.82241089,0.02718016
1469.75121826,0.02925185
1471.68002563,0.02538934
1473.60883301,0.02666753
1475.53764038,0.03082644
1477.46644775,0.03317393
1479.39525513,0.03693825
1481.32406250,0.03729080
1483.25286987,0.03976222
1485.18167725,0.04118035
1487.11048462,0.03988035
1489.03929199,0.03929744
1490.96809937,0.03928223
1492.89690674,0.04709348
1494.82571411,0.04590352
1496.75452148,0.03993472
1498.68332886,0.04616742
1500.61213623,0.04771610
1502.54094360,0.05148565
1504.46975098,0.04851844
1506.39855835,0.03271992
1508.32736572,0.04117776
1510.25617310,0.05026315
1512.18498047,0.04833848
1514.11378784,0.05310576
1516.04259521,0.04684573
1517.97140259,0.04895158
1519.90020996,0.04756201
1521.82901733,0.03961080
1523.75782471,0.05039051
1525.68663208,0.04956446
1527.61543945,0.04903410
1529.54424683,0.05564675
1531.47305420,0.05303364
1533.40186157,0.04756606
1535.33066895,0.05087025
1537.25947632,0.05568627
1539.18828369,0.03749280
1541.11709106,0.03881027
1543.04589844,0.04861752
1544.97470581,0.04599816
1546.90351318,0.05663213
1548.83232056,0.05234422
1550.76112793,0.05391391
1552.68993530,0.05423684
1554.61874268,0.04805534
1556.54755005,0.05239540
1558.47635742,0.03444229
1560.40516479,0.03735670
1562.33397217,0.05754878
1564.26277954,0.05378605
1566.19158691,0.05562150
1568.12039429,0.05503084
1570.04920166,0.04742613
1571.97800903,0.05630546
1573.90681641,0.05751959
1575.83562378,0.04358505
1577.76443115,0.05040086
1579.69323853,0.05889122
1581.62204590,0.05588480
1583.55085327,0.05723431
1585.47966064,0.05635186
1587.40846802,0.05694372
1589.33727539,0.05632300
1591.26608276,0.05631536
1593.19489014,0.05660039
1595.12369751,0.05553087
1597.05250488,0.05666227
1598.98131226,0.05636226
1600.91011963,0.05661701
1602.83892700,0.05564087
1604.76773437,0.05673009
1606.69654175,0.05577739
1608.62534912,0.05546245
1610.55415649,0.05553065
1612.48296387,0.05603185
1614.41177124,0.05702137
1616.34057861,0.04490414
1618.26938599,0.04923137
1620.19819336,0.05925409
1622.12700073,0.05129252
1624.05580811,0.05157688
1625.98461548,0.05469218
1627.91342285,0.05413918
1629.84223022,0.05407182
1631.77103760,0.05829912
1633.69984497,0.05315489
1635.62865234,0.04206722
1637.55745972,0.05027911
1639.48626709,0.05678058
1641.41507446,0.05510284
1643.34388184,0.05685460
1645.27268921,0.05058047
1647.20149658,0.04271147
1649.13030396,0.05523546
1651.05911133,0.05299895
1652.98791870,0.03076420
1654.91672607,0.04408658
1656.84553345,0.05832677
1658.77434082,0.05560805
1660.70314819,0.05761155
1662.63195557,0.05122364
1664.56076294,0.05435580
1666.48957031,0.05971508
1668.41837769,0.05056217
1670.34718506,0.04865751
1672.27599243,0.05689423
1674.20479980,0.05167085
1676.13360718,0.04903847
1678.06241455,0.05840955
1679.99122192,0.05583062
1681.92002930,0.05483040
1683.84883667,0.04328719
1685.77764404,0.04244908
1687.70645142,0.06171652
1689.63525879,0.05241844
1691.56406616,0.05833049
1693.49287354,0.06035090
1695.42168091,0.04136694
1697.35048828,0.05306469
1699.27929565,0.04577377
1701.20810303,0.03973331
1703.13691040,0.05792870
1705.06571777,0.05230348
1706.99452515,0.05280254
1708.92333252,0.05852275
1710.85213989,0.05585910
1712.78094727,0.05722319
1714.70975464,0.05214856
1716.63856201,0.04610286
1718.56736938,0.04512294
1720.49617676,0.05509175
1722.42498413,0.05817991
1724.35379150,0.05293234
1726.28259888,0.05890322
1728.21140625,0.05386061
1730.14021362,0.05377425
1732.06902100,0.05292445
1733.99782837,0.03787412
1735.92663574,0.04900733
1737.85544312,0.05567501
1739.78425049,0.04835195
1741.71305786,0.05331067
1743.64186523,0.05409177
1745.57067261,0.05426916
1747.49947998,0.05471000
1749.42828735,0.05189883
1751.35709473,0.04911932
1753.28590210,0.05558478
1755.21470947,0.05887245
1757.14351685,0.05244393
1759.07232422,0.05893193
1761.00113159,0.05481564
1762.92993896,0.05226820
1764.85874634,0.06159699
1766.78755371,0.05433302
1768.71636108,0.05480214
1770.64516846,0.05438464
1772.57397583,0.04802483
1774.50278320,0.05476290
1776.43159058,0.05837391
1778.36039795,0.05770331
1780.28920532,0.05657034
1782.21801270,0.05716911
1784.14682007,0.05717885
1786.07562744,0.05557448
1788.00443481,0.05943619
1789.93324219,0.05774819
1791.86204956,0.05083838
1793.79085693,0.05340189
1795.71966431,0.05814213
1797.64847168,0.05742572
1799.57727905,0.05645303
1801.50608643,0.05506846
1803.43489380,0.05735427
1805.36370117,0.05902360
1807.29250854,0.05804018
1809.22131592,0.05835475
1811.15012329,0.05637980
1813.07893066,0.05856302
1815.00773804,0.05895752
1816.93654541,0.05806628
1818.86535278,0.05875238
1820.79416016,0.05836716
1822.72296753,0.05943396
1824.65177490,0.05469872
1826.58058228,0.05711604
1828.50938965,0.05751691
1830.43819702,0.05288788
1832.36700439,0.05850592
1834.29581177,0.05818123
1836.22461914,0.05818348
1838.15342651,0.05808602
1840.08223389,0.05845860
1842.01104126,0.05877070
1843.93984863,0.05075361
1845.86865601,0.05474266
1847.79746338,0.05857017
1849.72627075,0.05694550
1851.65507812,0.05904470
1853.58388550,0.05771813
1855.51269287,0.05851595
1857.44150024,0.05804911
1859.37030762,0.05761360
1861.29911499,0.05816676
1863.22792236,0.05715401
1865.15672974,0.05809809
1867.08553711,0.05582860
1869.01434448,0.05285009
1870.94315186,0.05562095
1872.87195923,0.05825091
1874.80076660,0.05713558
1876.72957397,0.05758530
1878.65838135,0.05734580
1880.58718872,0.05700065
1882.51599609,0.05761416
1884.44480347,0.05637743
1886.37361084,0.05758531
1888.30241821,0.05614549
1890.23122559,0.05463385
1892.16003296,0.05731549
1894.08884033,0.05625117
1896.01764771,0.05593138
1897.94645508,0.05698132
1899.87526245,0.05655070
1901.80406982,0.05666307
1903.73287720,0.05619076
1905.66168457,0.05668621
1907.59049194,0.05610357
1909.51929932,0.05552671
1911.44810669,0.05611929
1913.37691406,0.05616101
1915.30572144,0.05683728
1917.23452881,0.05388124
1919.16333618,0.05380879
1921.09214355,0.05630406
1923.02095093,0.05405037
1924.94975830,0.05552683
1926.87856567,0.05617188
1928.80737305,0.05550843
1930.73618042,0.05646810
1932.66498779,0.05521471
1934.59379517,0.05605470
1936.52260254,0.05554089
1938.45140991,0.05583106
1940.38021729,0.05591797
1942.30902466,0.05350628
1944.23783203,0.05495148
1946.16663940,0.05559260
1948.09544678,0.05535301
1950.02425415,0.05570607
1951.95306152,0.05552559
1953.88186890,0.05556336
1955.81067627,0.05525585
1957.73948364,0.05556963
1959.66829102,0.05536032
1961.59709839,0.05520717
1963.52590576,0.05543359
1965.45471313,0.05509335
1967.38352051,0.05438197
1969.31232788,0.05493288
1971.24113525,0.05546683
1973.16994263,0.05488828
1975.09875000,0.05536916
1977.02755737,0.05503041
1978.95636475,0.05498636
1980.88517212,0.05513213
1982.81397949,0.05483329
1984.74278687,0.05511979
1986.67159424,0.05450422
1988.60040161,0.05463009
1990.52920898,0.05408024
1992.45801636,0.05337148
1994.38682373,0.05433510
1996.31563110,0.05445002
1998.24443848,0.05408849
2000.17324585,0.05415552
2002.10205322,0.05422544
2004.03086060,0.05418932
2005.95966797,0.05408364
2007.88847534,0.05384342
2009.81728271,0.05390204
2011.74609009,0.05377761
2013.67489746,0.05364140
2015.60370483,0.05332460
2017.53251221,0.05274799
2019.46131958,0.05334046
2021.39012695,0.05331544
2023.31893433,0.05307532
2025.24774170,0.05322329
2027.17654907,0.05292268
2029.10535645,0.05296150
2031.03416382,0.05284075
2032.96297119,0.05279791
2034.89177856,0.05268424
2036.82058594,0.05258272
2038.74939331,0.05230832
2040.67820068,0.05200591
2042.60700806,0.05214007
2044.53581543,0.05202536
2046.46462280,0.05205462
2048.39343018,0.05195161
2050.32223755,0.05187887
2052.25104492,0.05173070
2054.17985229,0.05154113
2056.10865967,0.05168337
2058.03746704,0.05159727
2059.96627441,0.05142725
2061.89508179,0.05125809
2063.82388916,0.05113861
2065.75269653,0.05091033
2067.68150391,0.05104702
2069.61031128,0.05103057
2071.53911865,0.05074226
2073.46792603,0.05081879
2075.39673340,0.05064799
2077.32554077,0.05064622
2079.25434814,0.05050230
2081.18315552,0.05044523
2083.11196289,0.05054616
2085.04077026,0.05032454
2086.96957764,0.05021420
2088.89838501,0.05005489
2090.82719238,0.05000757
2092.75599976,0.04990709
2094.68480713,0.04986961
2096.61361450,0.04982889
2098.54242187,0.04975154
2100.47122925,0.04972036
2102.40003662,0.04961322
2104.32884399,0.04965320
2106.25765137,0.04950609
2108.18645874,0.04945776
2110.11526611,0.04939707
2112.04407349,0.04929394
2113.97288086,0.04928924
2115.90168823,0.04913472
2117.83049561,0.04902660
2119.75930298,0.04911287
2121.68811035,0.04915335
2123.61691772,0.04880281
2125.54572510,0.04879493
2127.47453247,0.04881888
2129.40333984,0.04869330
2131.33214722,0.04871960
2133.26095459,0.04856262
2135.18976196,0.04856436
2137.11856934,0.04847454
2139.04737671,0.04846071
2140.97618408,0.04843152
2142.90499146,0.04825307
2144.83379883,0.04814979
2146.76260620,0.04809519
2148.69141357,0.04819311
2150.62022095,0.04815879
2152.54902832,0.04813580
2154.47783569,0.04808404
2156.40664307,0.04802691
2158.33545044,0.04789892
2160.26425781,0.04795921
2162.19306519,0.04802910
2164.12187256,0.04775219
2166.05067993,0.04773568
2167.97948730,0.04766303
2169.90829468,0.04761432
2171.83710205,0.04754731
2173.76590942,0.04762997
2175.69471680,0.04767738
2177.62352417,0.04744884
2179.55233154,0.04751115
2181.48113892,0.04739972
2183.40994629,0.04735120
2185.33875366,0.04717990
2187.26756104,0.04721245
2189.19636841,0.04729917
2191.12517578,0.04705355
2193.05398315,0.04717747
2194.98279053,0.04705146
2196.91159790,0.04702153
2198.84040527,0.04691693
2200.76921265,0.04683422
2202.69802002,0.04690530
2204.62682739,0.04672492
2206.55563477,0.04671005
2208.48444214,0.04661892
2210.41324951,0.04673882
2212.34205688,0.04659524
2214.27086426,0.04658322
2216.19967163,0.04670775
2218.12847900,0.04639501
2220.05728638,0.04642612
2221.98609375,0.04635561
2223.91490112,0.04620743
2225.84370850,0.04615448
2227.77251587,0.04623026
2229.70132324,0.04621709
2231.63013062,0.04611768
2233.55893799,0.04597408
2235.48774536,0.04576626
2237.41655273,0.04588895
2239.34536011,0.04569866
2241.27416748,0.04574175
2243.20297485,0.04568902
2245.13178223,0.04543204
2247.06058960,0.04560662
2248.98939697,0.04554927
2250.91820435,0.04555538
2252.84701172,0.04541251
2254.77581909,0.04528312
2256.70462646,0.04519546
2258.63343384,0.04517386
2260.56224121,0.04534941
2262.49104858,0.04516489
2264.41985596,0.04504299
2266.34866333,0.04500198
2268.27747070,0.04498823
2270.20627808,0.04495367
2272.13508545,0.04483900
2274.06389282,0.04471233
2275.99270020,0.04472358
2277.92150757,0.04477847
2279.85031494,0.04471134
2281.77912231,0.04468271
2283.70792969,0.04452277
2285.63673706,0.04454594
2287.56554443,0.04437967
2289.49435181,0.04432091
2291.42315918,0.04440036
2293.35196655,0.04417414
2295.28077393,0.04412261
2297.20958130,0.04387116
2299.13838867,0.04382081
2301.06719604,0.04367798
2302.99600342,0.04339668
2304.92481079,0.04317216
2306.85361816,0.04279760
2308.78242554,0.04268362
2310.71123291,0.04227272
2312.64004028,0.04189585
2314.56884766,0.04154866
2316.49765503,0.04117161
2318.42646240,0.04074394
2320.35526978,0.04014827
2322.28407715,0.03961895
2324.21288452,0.03895704
2326.14169189,0.03864914
2328.07049927,0.03817146
2329.99930664,0.03771788
2331.92811401,0.03755178
2333.85692139,0.03736426
2335.78572876,0.03726812
2337.71453613,0.03709117
2339.64334351,0.03709824
2341.57215088,0.03722393
2343.50095825,0.03774479
2345.42976562,0.03834541
2347.35857300,0.03988102
2349.28738037,0.04122824
2351.21618774,0.03988283
2353.14499512,0.03800203
2355.07380249,0.03662216
2357.00260986,0.03561964
2358.93141724,0.03498629
2360.86022461,0.03459118
2362.78903198,0.03448103
2364.71783936,0.03457253
2366.64664673,0.03518959
2368.57545410,0.03568237
2370.50426147,0.03665884
2372.43306885,0.03767174
2374.36187622,0.03846122
2376.29068359,0.03962583
2378.21949097,0.04047747
2380.14829834,0.04113428
2382.07710571,0.04145683
2384.00591309,0.04178661
2385.93472046,0.04187779
2387.86352783,0.04189180
2389.79233521,0.04203062
2391.72114258,0.04188671
2393.64994995,0.04196770
2395.57875732,0.04185575
2397.50756470,0.04183789
2399.43637207,0.04171831
2401.36517944,0.04152977
2403.29398682,0.04164136
2405.22279419,0.04153249
2407.15160156,0.04153604
2409.08040894,0.04146169
2411.00921631,0.04137724
2412.93802368,0.04138814
2414.86683105,0.04133915
2416.79563843,0.04124761
2418.72444580,0.04119505
2420.65325317,0.04112111
2422.58206055,0.04105655
2424.51086792,0.04122025
2426.43967529,0.04104175
2428.36848267,0.04089023
2430.29729004,0.04093716
2432.22609741,0.04089449
2434.15490479,0.04078774
2436.08371216,0.04071439
2438.01251953,0.04083764
2439.94132690,0.04077066
2441.87013428,0.04075811
2443.79894165,0.04061331
2445.72774902,0.04050571
2447.65655640,0.04058654
2449.58536377,0.04045150
2451.51417114,0.04040769
2453.44297852,0.04038724
2455.37178589,0.04044517
2457.30059326,0.04037707
2459.22940063,0.04023383
2461.15820801,0.04012455
2463.08701538,0.04010978
2465.01582275,0.04022358
2466.94463013,0.04009265
2468.87343750,0.04004908
2470.80224487,0.04002962
2472.73105225,0.03994643
2474.65985962,0.03985732
2476.58866699,0.03982822
2478.51747437,0.03978793
2480.44628174,0.03974790
2482.37508911,0.03975043
2484.30389648,0.03960186
2486.23270386,0.03971036
2488.16151123,0.03960636
2490.09031860,0.03940492
2492.01912598,0.03935658
2493.94793335,0.03935697
2495.87674072,0.03946646
2497.80554810,0.03924179
2499.73435547,0.03919147
2501.66316284,0.03907833
2503.59197021,0.03910935
2505.52077759,0.03924563
2507.44958496,0.03905975
2509.37839233,0.03909796
2511.30719971,0.03889200
2513.23600708,0.03884518
2515.16481445,0.03891831
2517.09362183,0.03881284
2519.02242920,0.03884310
2520.95123657,0.03881306
2522.88004395,0.03879520
2524.80885132,0.03867100
2526.73765869,0.03864247
2528.66646606,0.03859429
2530.59527344,0.03848657
2532.52408081,0.03849026
2534.45288818,0.03848688
2536.38169556,0.03842098
2538.31050293,0.03831318
2540.23931030,0.03835996
2542.16811768,0.03828663
2544.09692505,0.03822365
2546.02573242,0.03826543
2547.95453979,0.03813709
2549.88334717,0.03802304
2551.81215454,0.03805909
2553.74096191,0.03800556
2555.66976929,0.03796007
2557.59857666,0.03798962
2559.52738403,0.03787797
2561.45619141,0.03785801
2563.38499878,0.03774413
2565.31380615,0.03772629
2567.24261353,0.03766906
2569.17142090,0.03758924
2571.10022827,0.03763007
2573.02903564,0.03739446
2574.95784302,0.03753652
2576.88665039,0.03740934
2578.81545776,0.03731884
2580.74426514,0.03742276
2582.67307251,0.03720674
2584.60187988,0.03742624
2586.53068726,0.03720885
2588.45949463,0.03714052
2590.38830200,0.03715075
2592.31710937,0.03693191
2594.24591675,0.03712655
2596.17472412,0.03694626
2598.10353149,0.03694737
2600.03233887,0.03699572
2601.96114624,0.03694313
2603.88995361,0.03691489
2605.81876099,0.03676119
2607.74756836,0.03671110
2609.67637573,0.03661639
2611.60518311,0.03664081
2613.53399048,0.03648633
2615.46279785,0.03649861
2617.39160522,0.03653608
2619.32041260,0.03637442
2621.24921997,0.03640394
2623.17802734,0.03643168
2625.10683472,0.03634629
2627.03564209,0.03608355
2628.96444946,0.03622739
2630.89325684,0.03623872
2632.82206421,0.03599058
2634.75087158,0.03611392
2636.67967895,0.03613016
2638.60848633,0.03603722
2640.53729370,0.03592073
2642.46610107,0.03593709
2644.39490845,0.03586612
2646.32371582,0.03574968
2648.25252319,0.03581194
2650.18133057,0.03577497
2652.11013794,0.03565356
2654.03894531,0.03553673
2655.96775269,0.03549101
2657.89656006,0.03542186
2659.82536743,0.03548096
2661.75417480,0.03539813
2663.68298218,0.03535793
2665.61178955,0.03541405
2667.54059692,0.03522010
2669.46940430,0.03532031
2671.39821167,0.03525010
2673.32701904,0.03503067
2675.25582642,0.03511195
2677.18463379,0.03512407
2679.11344116,0.03501699
2681.04224854,0.03499502
2682.97105591,0.03495747
2684.89986328,0.03478063
2686.82867065,0.03479332
2688.75747803,0.03474650
2690.68628540,0.03474388
2692.61509277,0.03468258
2694.54390015,0.03454275
2696.47270752,0.03465636
2698.40151489,0.03457282
2700.33032227,0.03454591
2702.25912964,0.03444888
2704.18793701,0.03438227
2706.11674438,0.03435651
2708.04555176,0.03418025
2709.97435913,0.03425878
2711.90316650,0.03421374
2713.83197388,0.03419732
2715.76078125,0.03415713
2717.68958862,0.03410356
2719.61839600,0.03408815
2721.54720337,0.03392953
2723.47601074,0.03393151
2725.40481812,0.03384711
2727.33362549,0.03375623
2729.26243286,0.03368145
2731.19124023,0.03372140
2733.12004761,0.03374030
2735.04885498,0.03365208
2736.97766235,0.03366765
2738.90646973,0.03348198
2740.83527710,0.03356244
2742.76408447,0.03354758
2744.69289185,0.03331409
2746.62169922,0.03341196
2748.55050659,0.03334618
2750.47931396,0.03326555
2752.40812134,0.03327043
2754.33692871,0.03319579
2756.26573608,0.03312861
2758.19454346,0.03306629
2760.12335083,0.03299950
2762.05215820,0.03289904
2763.98096558,0.03284982
2765.90977295,0.03282567
2767.83858032,0.03283246
2769.76738770,0.03277642
2771.69619507,0.03268044
2773.62500244,0.03265186
2775.55380981,0.03252932
2777.48261719,0.03256406
2779.41142456,0.03262914
2781.34023193,0.03236986
2783.26903931,0.03240869
2785.19784668,0.03243209
2787.12665405,0.03215408
2789.05546143,0.03222267
2790.98426880,0.03218205
2792.91307617,0.03207177
2794.84188354,0.03203905
2796.77069092,0.03192685
2798.69949829,0.03194503
2800.62830566,0.03187180
2802.55711304,0.03185383
2804.48592041,0.03179509
2806.41472778,0.03170034
2808.34353516,0.03164575
2810.27234253,0.03151510
2812.20114990,0.03146717
2814.12995728,0.03140913
2816.05876465,0.03139859
2817.98757202,0.03126286
2819.91637939,0.03121414
2821.84518677,0.03125213
2823.77399414,0.03111756
2825.70280151,0.03109100
2827.63160889,0.03096884
2829.56041626,0.03089505
2831.48922363,0.03086271
2833.41803101,0.03081690
2835.34683838,0.03080958
2837.27564575,0.03060549
2839.20445312,0.03047065
2841.13326050,0.03039756
2843.06206787,0.03031327
2844.99087524,0.03019020
2846.91968262,0.02996368
2848.84848999,0.02967336
2850.77729736,0.02957554
2852.70610474,0.02979676
2854.63491211,0.02981614
2856.56371948,0.02971769
2858.49252686,0.02976112
2860.42133423,0.02984714
2862.35014160,0.02985068
2864.27894897,0.02972509
2866.20775635,0.02964900
2868.13656372,0.02959610
2870.06537109,0.02957952
2871.99417847,0.02954132
2873.92298584,0.02945460
2875.85179321,0.02942100
2877.78060059,0.02940198
2879.70940796,0.02931006
2881.63821533,0.02922293
2883.56702270,0.02928585
2885.49583008,0.02923899
2887.42463745,0.02910124
2889.35344482,0.02905229
2891.28225220,0.02896659
2893.21105957,0.02883201
2895.13986694,0.02877818
2897.06867432,0.02881798
2898.99748169,0.02872345
2900.92628906,0.02859120
2902.85509644,0.02847638
2904.78390381,0.02841566
2906.71271118,0.02843020
2908.64151855,0.02821365
2910.57032593,0.02811040
2912.49913330,0.02810336
2914.42794067,0.02784635
2916.35674805,0.02770463
2918.28555542,0.02768119
2920.21436279,0.02768667
2922.14317017,0.02771899
2924.07197754,0.02771996
2926.00078491,0.02772935
2927.92959229,0.02765561
2929.85839966,0.02776048
2931.78720703,0.02798827
2933.71601440,0.02785428
2935.64482178,0.02768552
2937.57362915,0.02781460
2939.50243652,0.02786786
2941.43124390,0.02791809
2943.36005127,0.02798828
2945.28885864,0.02779159
2947.21766602,0.02777899
2949.14647339,0.02779316
2951.07528076,0.02768317
2953.00408813,0.02773612
2954.93289551,0.02752464
2956.86170288,0.02738159
2958.79051025,0.02738154
2960.71931763,0.02737676
2962.64812500,0.02744586
2964.57693237,0.02727182
2966.50573975,0.02733377
2968.43454712,0.02737403
2970.36335449,0.02726961
2972.29216187,0.02732380
2974.22096924,0.02724930
2976.14977661,0.02738276
2978.07858398,0.02738550
2980.00739136,0.02725028
2981.93619873,0.02733019
2983.86500610,0.02731944
2985.79381348,0.02735490
2987.72262085,0.02733044
2989.65142822,0.02724673
2991.58023560,0.02718225
2993.50904297,0.02706771
2995.43785034,0.02705757
2997.36665771,0.02709503
2999.29546509,0.02703694
3001.22427246,0.02693060
3003.15307983,0.02693157
3005.08188721,0.02687716
3007.01069458,0.02676647
3008.93950195,0.02674972
3010.86830933,0.02665358
3012.79711670,0.02654603
3014.72592407,0.02657108
3016.65473145,0.02654615
3018.58353882,0.02642384
3020.51234619,0.02638750
3022.44115356,0.02639088
3024.36996094,0.02635249
3026.29876831,0.02629953
3028.22757568,0.02624754
3030.15638306,0.02611826
3032.08519043,0.02599779
3034.01399780,0.02602244
3035.94280518,0.02596755
3037.87161255,0.02593162
3039.80041992,0.02591380
3041.72922729,0.02582809
3043.65803467,0.02577127
3045.58684204,0.02566767
3047.51564941,0.02570728
3049.44445679,0.02563760
3051.37326416,0.02553037
3053.30207153,0.02561842
3055.23087891,0.02545810
3057.15968628,0.02533570
3059.08849365,0.02531353
3061.01730103,0.02527773
3062.94610840,0.02533090
3064.87491577,0.02518758
3066.80372314,0.02510301
3068.73253052,0.02515755
3070.66133789,0.02514407
3072.59014526,0.02510715
3074.51895264,0.02506406
3076.44776001,0.02505492
3078.37656738,0.02498112
3080.30537476,0.02489097
3082.23418213,0.02476950
3084.16298950,0.02472554
3086.09179687,0.02481130
3088.02060425,0.02468797
3089.94941162,0.02465756
3091.87821899,0.02472318
3093.80702637,0.02455257
3095.73583374,0.02454104
3097.66464111,0.02456374
3099.59344849,0.02435578
3101.52225586,0.02432419
3103.45106323,0.02433364
3105.37987061,0.02423546
3107.30867798,0.02421581
3109.23748535,0.02404029
3111.16629272,0.02405410
3113.09510010,0.02411249
3115.02390747,0.02384869
3116.95271484,0.02387766
3118.88152222,0.02384307
3120.81032959,0.02374084
3122.73913696,0.02378722
3124.66794434,0.02363570
3126.59675171,0.02360677
3128.52555908,0.02356284
3130.45436645,0.02352486
3132.38317383,0.02350256
3134.31198120,0.02334123
3136.24078857,0.02332715
3138.16959595,0.02332291
3140.09840332,0.02318471
3142.02721069,0.02314189
3143.95601807,0.02322510
3145.88482544,0.02306044
3147.81363281,0.02297688
3149.74244019,0.02300389
3151.67124756,0.02282910
3153.60005493,0.02282374
3155.52886230,0.02279621
3157.45766968,0.02273191
3159.38647705,0.02264730
3161.31528442,0.02253799
3163.24409180,0.02254448
3165.17289917,0.02249414
3167.10170654,0.02237362
3169.03051392,0.02226475
3170.95932129,0.02233670
3172.88812866,0.02225966
3174.81693604,0.02214354
3176.74574341,0.02209868
3178.67455078,0.02198208
3180.60335815,0.02201467
3182.53216553,0.02194407
3184.46097290,0.02192020
3186.38978027,0.02183411
3188.31858765,0.02173205
3190.24739502,0.02169611
3192.17620239,0.02154743
3194.10500977,0.02164325
3196.03381714,0.02160035
3197.96262451,0.02145967
3199.89143188,0.02148915
3201.82023926,0.02148647
3203.74904663,0.02141308
3205.67785400,0.02133909
3207.60666138,0.02128223
3209.53546875,0.02119302
3211.46427612,0.02123884
3213.39308350,0.02118198
3215.32189087,0.02111640
3217.25069824,0.02102915
3219.17950562,0.02095606
3221.10831299,0.02098162
3223.03712036,0.02088946
3224.96592773,0.02099422
3226.89473511,0.02089411
3228.82354248,0.02079930
3230.75234985,0.02083483
3232.68115723,0.02070174
3234.60996460,0.02074149
3236.53877197,0.02071121
3238.46757935,0.02068510
3240.39638672,0.02061289
3242.32519409,0.02063433
3244.25400146,0.02068074
3246.18280884,0.02051215
3248.11161621,0.02052291
3250.04042358,0.02058939
3251.96923096,0.02051610
3253.89803833,0.02038344
3255.82684570,0.02050257
3257.75565308,0.02044050
3259.68446045,0.02027874
3261.61326782,0.02036783
3263.54207520,0.02034136
3265.47088257,0.02033836
3267.39968994,0.02022500
3269.32849731,0.02026881
3271.25730469,0.02027572
3273.18611206,0.02016940
3275.11491943,0.02016965
3277.04372681,0.02007959
3278.97253418,0.02018524
3280.90134155,0.02006762
3282.83014893,0.02004520
3284.75895630,0.02013746
3286.68776367,0.02000930
3288.61657104,0.02003559
3290.54537842,0.01994220
3292.47418579,0.01990103
3294.40299316,0.01991648
3296.33180054,0.01989440
3298.26060791,0.01993107
3300.18941528,0.01992851
3302.11822266,0.01988695
3304.04703003,0.01988286
3305.97583740,0.01984536
3307.90464478,0.01975554
3309.83345215,0.01973385
3311.76225952,0.01966745
3313.69106689,0.01974228
3315.61987427,0.01964323
3317.54868164,0.01962627
3319.47748901,0.01975074
3321.40629639,0.01958106
3323.33510376,0.01956746
3325.26391113,0.01945298
3327.19271851,0.01956734
3329.12152588,0.01958715
3331.05033325,0.01935318
3332.97914062,0.01950192
3334.90794800,0.01938324
3336.83675537,0.01924948
3338.76556274,0.01931949
3340.69437012,0.01932800
3342.62317749,0.01923675
3344.55198486,0.01922124
3346.48079224,0.01922986
3348.40959961,0.01915956
3350.33840698,0.01918776
3352.26721436,0.01914609
3354.19602173,0.01912978
3356.12482910,0.01902554
3358.05363647,0.01912237
3359.98244385,0.01902755
3361.91125122,0.01888759
3363.84005859,0.01909122
3365.76886597,0.01886637
3367.69767334,0.01889496
3369.62648071,0.01895423
3371.55528809,0.01890010
3373.48409546,0.01882124
3375.41290283,0.01869817
3377.34171020,0.01887451
3379.27051758,0.01872153
3381.19932495,0.01870658
3383.12813232,0.01868652
3385.05693970,0.01855194
3386.98574707,0.01853655
3388.91455444,0.01857290
3390.84336182,0.01853775
3392.77216919,0.01838046
3394.70097656,0.01851891
3396.62978394,0.01832465
3398.55859131,0.01836917
3400.48739868,0.01837732
3402.41620605,0.01816599
3404.34501343,0.01833479
3406.27382080,0.01823724
3408.20262817,0.01825620
3410.13143555,0.01814227
3412.06024292,0.01820160
3413.98905029,0.01817747
3415.91785767,0.01808154
3417.84666504,0.01825413
3419.77547241,0.01784759
3421.70427979,0.01785445
3423.63308716,0.01798025
3425.56189453,0.01789107
3427.49070190,0.01792621
3429.41950928,0.01788742
3431.34831665,0.01778020
3433.27712402,0.01775212
3435.20593140,0.01794696
3437.13473877,0.01773254
3439.06354614,0.01779981
3440.99235352,0.01775350
3442.92116089,0.01750500
3444.84996826,0.01761372
3446.77877563,0.01736400
3448.70758301,0.01740871
3450.63639038,0.01758563
3452.56519775,0.01754731
3454.49400513,0.01752016
3456.42281250,0.01753810
3458.35161987,0.01745322
3460.28042725,0.01735175
3462.20923462,0.01737590
3464.13804199,0.01729332
3466.06684937,0.01735679
3467.99565674,0.01729558
3469.92446411,0.01736033
3471.85327148,0.01735192
3473.78207886,0.01722705
3475.71088623,0.01725857
3477.63969360,0.01730353
3479.56850098,0.01736054
3481.49730835,0.01696711
3483.42611572,0.01706051
3485.35492310,0.01716787
3487.28373047,0.01703354
3489.21253784,0.01713564
3491.14134521,0.01708176
3493.07015259,0.01722956
3494.99895996,0.01710580
3496.92776733,0.01716486
3498.85657471,0.01715132
3500.78538208,0.01699418
3502.71418945,0.01679966
3504.64299683,0.01665780
3506.57180420,0.01712716
3508.50061157,0.01690151
3510.42941895,0.01684234
3512.35822632,0.01694280
3514.28703369,0.01693456
3516.21584106,0.01713330
3518.14464844,0.01686890
3520.07345581,0.01705778
3522.00226318,0.01686675
3523.93107056,0.01654813
3525.85987793,0.01672531
3527.78868530,0.01664454
3529.71749268,0.01668046
3531.64630005,0.01686148
3533.57510742,0.01699310
3535.50391479,0.01682697
3537.43272217,0.01682818
3539.36152954,0.01704313
3541.29033691,0.01690013
3543.21914429,0.01670216
3545.14795166,0.01637509
3547.07675903,0.01600004
3549.00556641,0.01671300
3550.93437378,0.01692358
3552.86318115,0.01622038
3554.79198853,0.01677775
3556.72079590,0.01687350
3558.64960327,0.01664053
3560.57841064,0.01661728
3562.50721802,0.01651359
3564.43602539,0.01663564
3566.36483276,0.01521832
3568.29364014,0.01479972
3570.22244751,0.01631081
3572.15125488,0.01684477
3574.08006226,0.01664979
3576.00886963,0.01666225
3577.93767700,0.01664671
3579.86648437,0.01656872
3581.79529175,0.01656742
3583.72409912,0.01666184
3585.65290649,0.01624438
3587.58171387,0.01465489
3589.51052124,0.01516314
3591.43932861,0.01678764
3593.36813599,0.01620735
3595.29694336,0.01587772
3597.22575073,0.01617265
3599.15455811,0.01634928
3601.08336548,0.01616432
3603.01217285,0.01637508
3604.94098022,0.01688269
3606.86978760,0.01601288
3608.79859497,0.01480985
3610.72740234,0.01538108
3612.65620972,0.01573255
3614.58501709,0.01512386
3616.51382446,0.01656681
3618.44263184,0.01508661
3620.37143921,0.01438964
3622.30024658,0.01665714
3624.22905395,0.01611323
3626.15786133,0.01697830
3628.08666870,0.01391898
3630.01547607,0.01254857
3631.94428345,0.01652255
3633.87309082,0.01586605
3635.80189819,0.01620203
3637.73070557,0.01653629
3639.65951294,0.01631616
3641.58832031,0.01649139
3643.51712769,0.01625549
3645.44593506,0.01647719
3647.37474243,0.01429881
3649.30354980,0.01302279
3651.23235718,0.01327384
3653.16116455,0.01620814
3655.08997192,0.01604508
3657.01877930,0.01408338
3658.94758667,0.01661612
3660.87639404,0.01617551
3662.80520142,0.01646082
3664.73400879,0.01637597
3666.66281616,0.01623766
3668.59162354,0.01567603
3670.52043091,0.01230331
3672.44923828,0.01545538
3674.37804565,0.01453426
3676.30685303,0.01165141
3678.23566040,0.01521157
3680.16446777,0.01569411
3682.09327515,0.01575814
3684.02208252,0.01621789
3685.95088989,0.01600645
3687.87969727,0.01419963
3689.80850464,0.01287551
3691.73731201,0.01484354
3693.66611938,0.01537066
3695.59492676,0.01591057
3697.52373413,0.01584452
3699.45254150,0.01574696
3701.38134888,0.01521972
3703.31015625,0.01452686
3705.23896362,0.01628042
3707.16777100,0.01542731
3709.09657837,0.01494231
3711.02538574,0.01382156
3712.95419312,0.01280967
3714.88300049,0.01545393
3716.81180786,0.01528481
3718.74061523,0.01542980
3720.66942261,0.01505627
3722.59822998,0.01438136
3724.52703735,0.01492542
3726.45584473,0.01379026
3728.38465210,0.01520828
3730.31345947,0.01504115
3732.24226685,0.01362484
3734.17107422,0.01316531
3736.09988159,0.01232992
3738.02868896,0.01333951
3739.95749634,0.01462471
3741.88630371,0.01527463
3743.81511108,0.01155914
3745.74391846,0.01081731
3747.67272583,0.01460312
3749.60153320,0.01225767
3751.53034058,0.01103155
3753.45914795,0.01304585
3755.38795532,0.01420244
3757.31676270,0.01488086
3759.24557007,0.01357429
3761.17437744,0.01421648
3763.10318481,0.01539160
3765.03199219,0.01408406
3766.96079956,0.01440001
3768.88960693,0.01419988
3770.81841431,0.01340146
3772.74722168,0.01481379
3774.67602905,0.01483921
3776.60483643,0.01489656
3778.53364380,0.01441394
3780.46245117,0.01360546
3782.39125854,0.01472043
3784.32006592,0.01437566
3786.24887329,0.01426739
3788.17768066,0.01467724
3790.10648804,0.01464394
3792.03529541,0.01451742
3793.96410278,0.01475293
3795.89291016,0.01373273
3797.82171753,0.01350168
3799.75052490,0.01442668
3801.67933228,0.01091815
3803.60813965,0.01315910
3805.53694702,0.01458008
3807.46575439,0.01140179
3809.39456177,0.01433423
3811.32336914,0.01397712
3813.25217651,0.01449350
3815.18098389,0.01297859
3817.10979126,0.01111464
3819.03859863,0.01450536
3820.96740601,0.01121354
3822.89621338,0.01202202
3824.82502075,0.01446933
3826.75382812,0.01288892
3828.68263550,0.01405245
3830.61144287,0.01340095
3832.54025024,0.01288384
3834.46905762,0.01314666
3836.39786499,0.01247934
3838.32667236,0.01111905
3840.25547974,0.01209768
3842.18428711,0.01319354
3844.11309448,0.01255071
3846.04190186,0.01379060
3847.97070923,0.01357803
3849.89951660,0.01353548
3851.82832397,0.01193739
3853.75713135,0.00860314
3855.68593872,0.01046075
3857.61474609,0.01353267
3859.54355347,0.01316865
3861.47236084,0.01297686
3863.40116821,0.01271154
3865.32997559,0.01162454
3867.25878296,0.01333445
3869.18759033,0.01195464
3871.11639770,0.01082618
3873.04520508,0.01335149
3874.97401245,0.01206993
3876.90281982,0.01324627
3878.83162720,0.01345986
3880.76043457,0.01120138
3882.68924194,0.01324812
3884.61804932,0.01234053
3886.54685669,0.01116887
3888.47566406,0.01324729
3890.40447144,0.01254612
3892.33327881,0.01164005
3894.26208618,0.01295647
3896.19089355,0.01327509
3898.11970093,0.01246590
3900.04850830,0.01167819
3901.97731567,0.01141628
3903.90612305,0.01135396
3905.83493042,0.01165366
3907.76373779,0.01285632
3909.69254517,0.01291301
3911.62135254,0.01282939
3913.55015991,0.01304993
3915.47896728,0.01251825
3917.40777466,0.01208441
3919.33658203,0.01200006
3921.26538940,0.01259959
3923.19419678,0.01250594
3925.12300415,0.01221544
3927.05181152,0.01240888
3928.98061890,0.01256332
3930.90942627,0.01232346
3932.83823364,0.01175478
3934.76704102,0.01244527
3936.69584839,0.01262631
3938.62465576,0.01242491
3940.55346313,0.01255153
3942.48227051,0.01194557
3944.41107788,0.01214143
3946.33988525,0.01243038
3948.26869263,0.01202003
3950.19750000,0.01202128
3952.12630737,0.01226856
3954.05511475,0.01227153
3955.98392212,0.01225418
3957.91272949,0.01220785
3959.84153687,0.01220296
3961.77034424,0.01212960
3963.69915161,0.01204808
3965.62795898,0.01220906
3967.55676636,0.01213622
3969.48557373,0.01213034
3971.41438110,0.01196840
3973.34318848,0.01192745
3975.27199585,0.01200559
3977.20080322,0.01192966
3979.12961060,0.01208785
3981.05841797,0.01183641
3982.98722534,0.01183433
3984.91603271,0.01189074
3986.84484009,0.01191788
3988.77364746,0.01194337
3990.70245483,0.01164205
3992.63126221,0.01177740
3994.56006958,0.01176683
3996.48887695,0.01180418
3998.41768433,0.01179213
4000.34649170,0.01166756
4002.27529907,0.01166142
4004.20410645,0.01163602
4006.13291382,0.01165426
4008.06172119,0.01145456
4009.99052856,0.01161231
4011.91933594,0.01153632
4013.84814331,0.01145893
4015.77695068,0.01162506
4017.70575806,0.01149229
4019.63456543,0.01145869
4021.56337280,0.01140198
4023.49218018,0.01146402
4025.42098755,0.01139819
4027.34979492,0.01139406
4029.27860229,0.01140294
4031.20740967,0.01134530
4033.13621704,0.01133366
4035.06502441,0.01128535
4036.99383179,0.01136135
4038.92263916,0.01124743
4040.85144653,0.01136305
4042.78025391,0.01122122
4044.70906128,0.01111994
4046.63786865,0.01124189
4048.56667603,0.01115788
4050.49548340,0.01127863
4052.42429077,0.01106175
4054.35309814,0.01108936
4056.28190552,0.01111014
4058.21071289,0.01107750
4060.13952026,0.01117319
4062.06832764,0.01098030
4063.99713501,0.01098205
4065.92594238,0.01090969
4067.85474976,0.01098692
4069.78355713,0.01091240
4071.71236450,0.01083774
4073.64117187,0.01089132
4075.56997925,0.01085597
4077.49878662,0.01090259
4079.42759399,0.01069899
4081.35640137,0.01072164
4083.28520874,0.01067157
4085.21401611,0.01069108
4087.14282349,0.01073992
4089.07163086,0.01063058
4091.00043823,0.01061347
4092.92924561,0.01057912
4094.85805298,0.01072608
4096.78686035,0.01051946
4098.71566772,0.01056407
4100.64447510,0.01059935
4102.57328247,0.01045065
4104.50208984,0.01051177
4106.43089722,0.01029050
4108.35970459,0.01041394
4110.28851196,0.01041273
4112.21731934,0.01040250
4114.14612671,0.01047389
4116.07493408,0.01031744
4118.00374145,0.01034685
4119.93254883,0.01028393
4121.86135620,0.01026901
4123.79016357,0.01027958
4125.71897095,0.01028309
4127.64777832,0.01020823
4129.57658569,0.01024770
4131.50539307,0.01019983
4133.43420044,0.01005934
4135.36300781,0.01020235
4137.29181519,0.01008343
4139.22062256,0.01005772
4141.14942993,0.01004983
4143.07823730,0.00994449
4145.00704468,0.00996364
4146.93585205,0.00997354
4148.86465942,0.00997053
4150.79346680,0.00989707
4152.72227417,0.00995068
4154.65108154,0.00991482
4156.57988892,0.00988773
4158.50869629,0.00983503
4160.43750366,0.00987030
4162.36631103,0.00986246
4164.29511841,0.00968293
4166.22392578,0.00985391
4168.15273315,0.00985152
4170.08154053,0.00978242
4172.01034790,0.00975815
4173.93915527,0.00971201
4175.86796265,0.00972913
4177.79677002,0.00963682
4179.72557739,0.00962849
4181.65438477,0.00958861
4183.58319214,0.00961985
4185.51199951,0.00958390
4187.44080688,0.00954245
4189.36961426,0.00945990
4191.29842163,0.00939165
4193.22722900,0.00949358
4195.15603638,0.00943017
4197.08484375,0.00948449
4199.01365112,0.00948269
4200.94245850,0.00944340
4202.87126587,0.00941751
4204.80007324,0.00939443
4206.72888062,0.00938826
4208.65768799,0.00925586
4210.58649536,0.00935689
4212.51530273,0.00933756
4214.44411011,0.00924377
4216.37291748,0.00922148
4218.30172485,0.00923381
4220.23053223,0.00927435
4222.15933960,0.00918767
4224.08814697,0.00913974
4226.01695435,0.00904777
4227.94576172,0.00912362
4229.87456909,0.00914539
4231.80337646,0.00909699
4233.73218384,0.00909390
4235.66099121,0.00901666
4237.58979858,0.00901240
4239.51860596,0.00898697
4241.44741333,0.00907591
4243.37622070,0.00898353
4245.30502808,0.00888073
4247.23383545,0.00894722
4249.16264282,0.00898063
4251.09145020,0.00897494
4253.02025757,0.00881932
4254.94906494,0.00882503
4256.87787231,0.00883080
4258.80667969,0.00883604
4260.73548706,0.00881831
4262.66429443,0.00879061
4264.59310181,0.00882407
4266.52190918,0.00871774
4268.45071655,0.00875456
4270.37952393,0.00873784
4272.30833130,0.00866109
4274.23713867,0.00857389
4276.16594604,0.00856965
4278.09475342,0.00867528
4280.02356079,0.00860963
4281.95236816,0.00860842
4283.88117554,0.00858893
4285.80998291,0.00854825
4287.73879028,0.00851952
4289.66759766,0.00850556
4291.59640503,0.00846687
4293.52521240,0.00839303
4295.45401978,0.00844228
4297.38282715,0.00846437
4299.31163452,0.00842893
4301.24044189,0.00831997
4303.16924927,0.00832758
4305.09805664,0.00835089
4307.02686401,0.00836182
4308.95567139,0.00839232
4310.88447876,0.00832025
4312.81328613,0.00833560
4314.74209351,0.00818926
4316.67090088,0.00815080
4318.59970825,0.00826812
4320.52851562,0.00821917
4322.45732300,0.00821958
4324.38613037,0.00822855
4326.31493774,0.00818847
4328.24374512,0.00817230
4330.17255249,0.00818514
4332.10135986,0.00807528
4334.03016724,0.00808303
4335.95897461,0.00809865
4337.88778198,0.00797427
4339.81658936,0.00804553
4341.74539673,0.00806189
4343.67420410,0.00797761
4345.60301147,0.00795768
4347.53181885,0.00794313
4349.46062622,0.00784639
4351.38943359,0.00788223
4353.31824097,0.00794840
4355.24704834,0.00791034
4357.17585571,0.00795883
4359.10466309,0.00782161
4361.03347046,0.00779741
4362.96227783,0.00783806
4364.89108520,0.00775756
4366.81989258,0.00782487
4368.74869995,0.00780668
4370.67750732,0.00774991
4372.60631470,0.00776149
4374.53512207,0.00771427
4376.46392944,0.00760983
4378.39273682,0.00767941
4380.32154419,0.00765391
4382.25035156,0.00760025
4384.17915894,0.00773311
4386.10796631,0.00763422
4388.03677368,0.00766619
4389.96558105,0.00773737
4391.89438843,0.00762048
4393.82319580,0.00754827
4395.75200317,0.00753744
4397.68081055,0.00755832
4399.60961792,0.00747555
4401.53842529,0.00749570
4403.46723267,0.00746439
4405.39604004,0.00745397
4407.32484741,0.00751338
4409.25365478,0.00736925
4411.18246216,0.00735125
4413.11126953,0.00742465
4415.04007690,0.00736307
4416.96888428,0.00728092
4418.89769165,0.00732176
4420.82649902,0.00734191
4422.75530640,0.00729498
4424.68411377,0.00724228
4426.61292114,0.00722091
4428.54172852,0.00734187
4430.47053589,0.00737981
4432.39934326,0.00728747
4434.32815063,0.00716951
4436.25695801,0.00714196
4438.18576538,0.00718391
4440.11457275,0.00715264
4442.04338013,0.00707861
4443.97218750,0.00706887
4445.90099487,0.00713323
4447.82980225,0.00707075
4449.75860962,0.00706983
4451.68741699,0.00705840
4453.61622437,0.00699882
4455.54503174,0.00707585
4457.47383911,0.00703374
4459.40264648,0.00699417
4461.33145386,0.00693449
4463.26026123,0.00691016
4465.18906860,0.00696872
4467.11787598,0.00684585
4469.04668335,0.00683491
4470.97549072,0.00682785
4472.90429810,0.00673884
4474.83310547,0.00685858
4476.76191284,0.00682636
4478.69072021,0.00675918
4480.61952759,0.00681718
4482.54833496,0.00673418
4484.47714233,0.00680139
4486.40594971,0.00677765
4488.33475708,0.00668803
4490.26356445,0.00676460
4492.19237183,0.00667762
4494.12117920,0.00665707
4496.04998657,0.00664806
4497.97879395,0.00665329
4499.90760132,0.00666001
4501.83640869,0.00660971
4503.76521606,0.00663169
4505.69402344,0.00655086
4507.62283081,0.00660418
4509.55163818,0.00659471
4511.48044556,0.00654445
4513.40925293,0.00657977
4515.33806030,0.00648769
4517.26686768,0.00650666
4519.19567505,0.00643201
4521.12448242,0.00637461
4523.05328979,0.00644311
4524.98209717,0.00642108
4526.91090454,0.00642219
4528.83971191,0.00640998
4530.76851929,0.00639078
4532.69732666,0.00637537
4534.62613403,0.00636386
4536.55494141,0.00640410
4538.48374878,0.00640035
4540.41255615,0.00631570
4542.34136353,0.00630527
4544.27017090,0.00626015
4546.19897827,0.00623578
4548.12778564,0.00629728
4550.05659302,0.00625310
4551.98540039,0.00626046
4553.91420776,0.00621091
4555.84301514,0.00615999
4557.77182251,0.00619336
4559.70062988,0.00617143
4561.62943726,0.00613199
4563.55824463,0.00607402
4565.48705200,0.00609495
4567.41585937,0.00607138
4569.34466675,0.00606322
4571.27347412,0.00605541
4573.20228149,0.00601892
4575.13108887,0.00606106
4577.05989624,0.00604359
4578.98870361,0.00606204
4580.91751099,0.00607651
4582.84631836,0.00601602
4584.77512573,0.00596879
4586.70393311,0.00602991
4588.63274048,0.00596036
4590.56154785,0.00589620
4592.49035522,0.00600875
4594.41916260,0.00589236
4596.34796997,0.00588139
4598.27677734,0.00585064
4600.20558472,0.00579383
4602.13439209,0.00591092
4604.06319946,0.00582020
4605.99200684,0.00579189
4607.92081421,0.00578467
4609.84962158,0.00578025
4611.77842895,0.00576686
4613.70723633,0.00567803
4615.63604370,0.00573436
4617.56485107,0.00575987
4619.49365845,0.00575217
4621.42246582,0.00574865
4623.35127319,0.00573320
4625.28008057,0.00566124
4627.20888794,0.00560790
4629.13769531,0.00562763
4631.06650269,0.00559680
4632.99531006,0.00563193
4634.92411743,0.00565836
4636.85292480,0.00557689
4638.78173218,0.00557650
4640.71053955,0.00563756
4642.63934692,0.00556736
4644.56815430,0.00555374
4646.49696167,0.00556054
4648.42576904,0.00549659
4650.35457642,0.00553132
4652.28338379,0.00550951
4654.21219116,0.00545442
4656.14099853,0.00545842
4658.06980591,0.00549427
4659.99861328,0.00546581
4661.92742065,0.00544411
4663.85622803,0.00542220
4665.78503540,0.00535651
4667.71384277,0.00541228
4669.64265015,0.00535647
4671.57145752,0.00532978
4673.50026489,0.00536092
4675.42907227,0.00534043
4677.35787964,0.00533205
4679.28668701,0.00528610
4681.21549438,0.00534693
4683.14430176,0.00526343
4685.07310913,0.00526694
4687.00191650,0.00535529
4688.93072388,0.00524178
4690.85953125,0.00524180
4692.78833862,0.00522637
4694.71714600,0.00521174
4696.64595337,0.00522160
4698.57476074,0.00517990
4700.50356812,0.00514342
4702.43237549,0.00512974
4704.36118286,0.00516563
4706.28999023,0.00514766
4708.21879761,0.00508954
4710.14760498,0.00510122
4712.07641235,0.00516686
4714.00521973,0.00505534
4715.93402710,0.00500114
4717.86283447,0.00510046
4719.79164185,0.00510725
4721.72044922,0.00508061
4723.64925659,0.00502698
4725.57806396,0.00510148
4727.50687134,0.00509963
4729.43567871,0.00498410
4731.36448608,0.00498997
4733.29329346,0.00496001
4735.22210083,0.00494749
4737.15090820,0.00492927
4739.07971558,0.00492649
4741.00852295,0.00495317
4742.93733032,0.00487893
4744.86613770,0.00487624
4746.79494507,0.00492098
4748.72375244,0.00489094
4750.65255981,0.00490908
4752.58136719,0.00485822
4754.51017456,0.00483624
4756.43898193,0.00487527
4758.36778931,0.00476852
4760.29659668,0.00478972
4762.22540405,0.00480892
4764.15421143,0.00480263
4766.08301880,0.00483357
4768.01182617,0.00475645
4769.94063354,0.00477347
4771.86944092,0.00474419
4773.79824829,0.00475610
4775.72705566,0.00480127
4777.65586304,0.00473926
4779.58467041,0.00466576
4781.51347778,0.00465440
4783.44228516,0.00474417
4785.37109253,0.00470121
4787.29989990,0.00469390
4789.22870728,0.00469580
4791.15751465,0.00464350
4793.08632202,0.00464975
4795.01512939,0.00461669
4796.94393677,0.00460380
4798.87274414,0.00458454
4800.80155151,0.00459774
4802.73035889,0.00456142
4804.65916626,0.00456920
4806.58797363,0.00454634
4808.51678101,0.00448959
4810.44558838,0.00454411
4812.37439575,0.00447011
4814.30320312,0.00444067
4816.23201050,0.00440364
4818.16081787,0.00445195
4820.08962524,0.00451044
4822.01843262,0.00441288
4823.94723999,0.00447747
4825.87604736,0.00446503
4827.80485474,0.00438963
4829.73366211,0.00438496
4831.66246948,0.00443444
4833.59127686,0.00443838
4835.52008423,0.00439980
4837.44889160,0.00438170
4839.37769897,0.00432904
4841.30650635,0.00440431
4843.23531372,0.00432268
4845.16412109,0.00428658
4847.09292847,0.00441681
4849.02173584,0.00433492
4850.95054321,0.00425815
4852.87935059,0.00432847
4854.80815796,0.00436404
4856.73696533,0.00426161
4858.66577270,0.00425572
4860.59458008,0.00423508
4862.52338745,0.00423966
4864.45219482,0.00426509
4866.38100220,0.00417223
4868.30980957,0.00422632
4870.23861694,0.00420395
4872.16742432,0.00424240
4874.09623169,0.00426322
4876.02503906,0.00414826
4877.95384644,0.00415567
4879.88265381,0.00409614
4881.81146118,0.00415008
4883.74026855,0.00419641
4885.66907593,0.00412103
4887.59788330,0.00410381
4889.52669067,0.00409829
4891.45549805,0.00410064
4893.38430542,0.00406559
4895.31311279,0.00402771
4897.24192017,0.00398500
4899.17072754,0.00401906
4901.09953491,0.00402843
4903.02834228,0.00396572
4904.95714966,0.00400996
4906.88595703,0.00404574
4908.81476440,0.00401976
4910.74357178,0.00400443
4912.67237915,0.00398578
4914.60118652,0.00395816
4916.52999390,0.00394525
4918.45880127,0.00390653
4920.38760864,0.00390580
4922.31641602,0.00392395
4924.24522339,0.00388663
4926.17403076,0.00386288
4928.10283813,0.00386579
4930.03164551,0.00390636
4931.96045288,0.00387127
4933.88926025,0.00379090
4935.81806763,0.00377956
4937.74687500,0.00379733
4939.67568237,0.00381021
4941.60448975,0.00382737
4943.53329712,0.00382117
4945.46210449,0.00377205
4947.39091187,0.00380424
4949.31971924,0.00382749
4951.24852661,0.00379946
4953.17733398,0.00374637
4955.10614136,0.00373300
4957.03494873,0.00377552
4958.96375610,0.00373752
4960.89256348,0.00376058
4962.82137085,0.00375239
4964.75017822,0.00372550
4966.67898560,0.00375397
4968.60779297,0.00374181
4970.53660034,0.00372901
4972.46540771,0.00369865
4974.39421509,0.00367998
4976.32302246,0.00360808
4978.25182983,0.00363140
4980.18063721,0.00366056
4982.10944458,0.00363454
4984.03825195,0.00368117
4985.96705933,0.00358659
4987.89586670,0.00354184
4989.82467407,0.00358877
4991.75348145,0.00355653
4993.68228882,0.00352764
4995.61109619,0.00362205
4997.53990356,0.00355832
4999.46871094,0.00341704
5001.39751831,0.00359749
5003.32632568,0.00355701
5005.25513306,0.00350819
5007.18394043,0.00358084
5009.11274780,0.00342594
5011.04155518,0.00347940
5012.97036255,0.00351234
5014.89916992,0.00344067
5016.82797729,0.00346260
5018.75678467,0.00343628
5020.68559204,0.00342216
5022.61439941,0.00342922
5024.54320679,0.00341964
5026.47201416,0.00335772
5028.40082153,0.00335722
5030.32962891,0.00346266
5032.25843628,0.00345836
5034.18724365,0.00335017
5036.11605103,0.00338297
5038.04485840,0.00338378
5039.97366577,0.00326781
5041.90247314,0.00332759
5043.83128052,0.00338131
5045.76008789,0.00331754
5047.68889526,0.00332553
5049.61770264,0.00331603
5051.54651001,0.00323743
5053.47531738,0.00328665
5055.40412476,0.00334452
5057.33293213,0.00327663
5059.26173950,0.00327553
5061.19054687,0.00326036
5063.11935425,0.00325861
5065.04816162,0.00329173
5066.97696899,0.00322783
5068.90577637,0.00323873
5070.83458374,0.00328873
5072.76339111,0.00324486
5074.69219849,0.00321336
5076.62100586,0.00323526
5078.54981323,0.00325885
5080.47862061,0.00321311
5082.40742798,0.00317277
5084.33623535,0.00319192
5086.26504272,0.00314325
5088.19385010,0.00313593
5090.12265747,0.00314902
5092.05146484,0.00312178
5093.98027222,0.00315417
5095.90907959,0.00313740
5097.83788696,0.00308481
5099.76669434,0.00304282
5101.69550171,0.00312219
5103.62430908,0.00312889
5105.55311645,0.00306349
5107.48192383,0.00315683
5109.41073120,0.00306369
5111.33953857,0.00304074
5113.26834595,0.00308774
5115.19715332,0.00297706
5117.12596069,0.00300431
5119.05476807,0.00307770
5120.98357544,0.00309030
5122.91238281,0.00299011
5124.84119019,0.00295864
5126.76999756,0.00300750
5128.69880493,0.00302993
5130.62761230,0.00301218
5132.55641968,0.00297834
5134.48522705,0.00302905
5136.41403442,0.00295659
5138.34284180,0.00297535
5140.27164917,0.00292737
5142.20045654,0.00283158
5144.12926392,0.00298303
5146.05807129,0.00289548
5147.98687866,0.00281646
5149.91568603,0.00288864
5151.84449341,0.00290380
5153.77330078,0.00292000
5155.70210815,0.00281885
5157.63091553,0.00278075
5159.55972290,0.00288367
5161.48853027,0.00290071
5163.41733765,0.00283995
5165.34614502,0.00286277
5167.27495239,0.00286743
5169.20375977,0.00283690
5171.13256714,0.00281263
5173.06137451,0.00280100
5174.99018188,0.00283006
5176.91898926,0.00278240
5178.84779663,0.00272007
5180.77660400,0.00271784
5182.70541138,0.00276632
5184.63421875,0.00274346
5186.56302612,0.00270579
5188.49183350,0.00276402
5190.42064087,0.00281148
5192.34944824,0.00284200
5194.27825562,0.00278508
5196.20706299,0.00270499
5198.13587036,0.00268222
5200.06467773,0.00269205
5201.99348511,0.00270945
5203.92229248,0.00271225
5205.85109985,0.00258575
5207.77990723,0.00253041
5209.70871460,0.00268445
5211.63752197,0.00264592
5213.56632935,0.00267558
5215.49513672,0.00268831
5217.42394409,0.00264372
5219.35275146,0.00272178
5221.28155884,0.00259858
5223.21036621,0.00263875
5225.13917358,0.00264093
5227.06798096,0.00261475
5228.99678833,0.00267475
5230.92559570,0.00255061
5232.85440308,0.00258692
5234.78321045,0.00261660
5236.71201782,0.00264098
5238.64082520,0.00258336
5240.56963257,0.00256550
5242.49843994,0.00263627
5244.42724731,0.00249022
5246.35605469,0.00255837
5248.28486206,0.00253171
5250.21366943,0.00248111
5252.14247681,0.00264004
5254.07128418,0.00254852
5256.00009155,0.00249987
5257.92889893,0.00252846
5259.85770630,0.00251739
5261.78651367,0.00253287
5263.71532104,0.00243603
5265.64412842,0.00239863
5267.57293579,0.00247750
5269.50174316,0.00244195
5271.43055054,0.00245738
5273.35935791,0.00253874
5275.28816528,0.00248093
5277.21697266,0.00244754
5279.14578003,0.00240632
5281.07458740,0.00243287
5283.00339478,0.00249855
5284.93220215,0.00238637
5286.86100952,0.00240140
5288.78981689,0.00249309
5290.71862427,0.00242420
5292.64743164,0.00241042
5294.57623901,0.00245386
5296.50504639,0.00241613
5298.43385376,0.00240151
5300.36266113,0.00241576
5302.29146851,0.00235255
5304.22027588,0.00234526
5306.14908325,0.00237582
5308.07789062,0.00227474
5310.00669800,0.00229427
5311.93550537,0.00235702
5313.86431274,0.00228737
5315.79312012,0.00230993
5317.72192749,0.00227649
5319.65073486,0.00227981
5321.57954224,0.00236594
5323.50834961,0.00236386
5325.43715698,0.00229696
5327.36596436,0.00219795
5329.29477173,0.00226122
5331.22357910,0.00223828
5333.15238647,0.00220465
5335.08119385,0.00230680
5337.01000122,0.00224937
5338.93880859,0.00215771
5340.86761597,0.00221081
5342.79642334,0.00224101
5344.72523071,0.00209304
5346.65403809,0.00221087
5348.58284546,0.00228403
5350.51165283,0.00218971
5352.44046020,0.00223643
5354.36926758,0.00207728
5356.29807495,0.00219552
5358.22688232,0.00228310
5360.15568970,0.00221389
5362.08449707,0.00232508
5364.01330444,0.00217925
5365.94211182,0.00215852
5367.87091919,0.00220668
5369.79972656,0.00218213
5371.72853394,0.00217876
5373.65734131,0.00215005
5375.58614868,0.00216165
5377.51495605,0.00213599
5379.44376343,0.00215546
5381.37257080,0.00210456
5383.30137817,0.00208571
5385.23018555,0.00207862
5387.15899292,0.00206710
5389.08780029,0.00212745
5391.01660767,0.00214239
5392.94541504,0.00209110
5394.87422241,0.00200001
5396.80302978,0.00202734
5398.73183716,0.00201256
5400.66064453,0.00210246
5402.58945190,0.00212919
5404.51825928,0.00201860
5406.44706665,0.00209794
5408.37587402,0.00205460
5410.30468140,0.00207512
5412.23348877,0.00206067
5414.16229614,0.00198495
5416.09110352,0.00204384
5418.01991089,0.00204803
5419.94871826,0.00203269
5421.87752563,0.00198883
5423.80633301,0.00204124
5425.73514038,0.00198744
5427.66394775,0.00195379
5429.59275513,0.00196236
5431.52156250,0.00192634
5433.45036987,0.00200987
5435.37917725,0.00187326
5437.30798462,0.00191461
5439.23679199,0.00201778
5441.16559936,0.00186656
5443.09440674,0.00191714
5445.02321411,0.00194495
5446.95202148,0.00187948
5448.88082886,0.00190186
5450.80963623,0.00191464
5452.73844360,0.00191841
5454.66725098,0.00191895
5456.59605835,0.00191953
5458.52486572,0.00196534
5460.45367310,0.00191260
5462.38248047,0.00192271
5464.31128784,0.00193333
5466.24009521,0.00183465
5468.16890259,0.00192467
5470.09770996,0.00187378
5472.02651733,0.00194354
5473.95532471,0.00198824
5475.88413208,0.00174829
5477.81293945,0.00185216
5479.74174683,0.00187636
5481.67055420,0.00183743
5483.59936157,0.00187673
5485.52816895,0.00183395
5487.45697632,0.00183991
5489.38578369,0.00184494
5491.31459106,0.00187634
5493.24339844,0.00181756
5495.17220581,0.00183371
5497.10101318,0.00178196
5499.02982056,0.00182157
5500.95862793,0.00189701
5502.88743530,0.00172310
5504.81624268,0.00178837
5506.74505005,0.00177042
5508.67385742,0.00178331
5510.60266479,0.00185152
5512.53147217,0.00175734
5514.46027954,0.00178081
5516.38908691,0.00169627
5518.31789429,0.00175069
5520.24670166,0.00175593
5522.17550903,0.00167464
5524.10431641,0.00179721
5526.03312378,0.00179448
5527.96193115,0.00177137
5529.89073853,0.00175078
5531.81954590,0.00175392
5533.74835327,0.00176937
5535.67716064,0.00171541
5537.60596802,0.00171718
5539.53477539,0.00174431
5541.46358276,0.00177220
5543.39239014,0.00173328
5545.32119751,0.00167974
5547.25000488,0.00170402
5549.17881226,0.00173367
5551.10761963,0.00171888
5553.03642700,0.00169751
5554.96523437,0.00167720
5556.89404175,0.00170036
5558.82284912,0.00170750
5560.75165649,0.00166105
5562.68046387,0.00170339
5564.60927124,0.00166385
5566.53807861,0.00163612
5568.46688599,0.00167818
5570.39569336,0.00162670
5572.32450073,0.00168239
5574.25330811,0.00166811
5576.18211548,0.00156716
5578.11092285,0.00162194
5580.03973022,0.00167027
5581.96853760,0.00162757
5583.89734497,0.00164234
5585.82615234,0.00166488
5587.75495972,0.00157161
5589.68376709,0.00160401
5591.61257446,0.00168384
5593.54138184,0.00165159
5595.47018921,0.00160973
5597.39899658,0.00154805
5599.32780395,0.00156167
5601.25661133,0.00157058
5603.18541870,0.00158703
5605.11422607,0.00163528
5607.04303345,0.00159365
5608.97184082,0.00157369
5610.90064819,0.00157366
5612.82945557,0.00152107
5614.75826294,0.00149551
5616.68707031,0.00157939
5618.61587769,0.00156694
5620.54468506,0.00150139
5622.47349243,0.00156171
5624.40229980,0.00155571
5626.33110718,0.00156064
5628.25991455,0.00153557
5630.18872192,0.00150757
5632.11752930,0.00155605
5634.04633667,0.00148286
5635.97514404,0.00148092
5637.90395142,0.00148501
5639.83275879,0.00145116
5641.76156616,0.00151477
5643.69037353,0.00151084
5645.61918091,0.00150668
5647.54798828,0.00148324
5649.47679565,0.00146066
5651.40560303,0.00147347
5653.33441040,0.00145438
5655.26321777,0.00147949
5657.19202515,0.00146536
5659.12083252,0.00150302
5661.04963989,0.00152356
5662.97844727,0.00144220
5664.90725464,0.00146170
5666.83606201,0.00143137
5668.76486938,0.00144835
5670.69367676,0.00149904
5672.62248413,0.00139981
5674.55129150,0.00138587
5676.48009888,0.00139522
5678.40890625,0.00140810
5680.33771362,0.00142657
5682.26652100,0.00140945
5684.19532837,0.00139528
5686.12413574,0.00135229
5688.05294311,0.00142299
5689.98175049,0.00138086
5691.91055786,0.00132290
5693.83936523,0.00143412
5695.76817261,0.00141066
5697.69697998,0.00141375
5699.62578735,0.00141731
5701.55459473,0.00137237
5703.48340210,0.00141311
5705.41220947,0.00142801
5707.34101685,0.00138981
5709.26982422,0.00132934
5711.19863159,0.00134644
5713.12743896,0.00138853
5715.05624634,0.00138046
5716.98505371,0.00130503
5718.91386108,0.00130546
5720.84266846,0.00139028
5722.77147583,0.00132438
5724.70028320,0.00131453
5726.62909058,0.00137374
5728.55789795,0.00133807
5730.48670532,0.00125772
5732.41551270,0.00123767
5734.34432007,0.00128161
5736.27312744,0.00127729
5738.20193481,0.00133034
5740.13074219,0.00134173
5742.05954956,0.00129313
5743.98835693,0.00128374
5745.91716431,0.00125586
5747.84597168,0.00127464
5749.77477905,0.00132360
5751.70358643,0.00129179
5753.63239380,0.00118952
5755.56120117,0.00122496
5757.49000854,0.00126664
5759.41881592,0.00123522
5761.34762329,0.00126153
5763.27643066,0.00126431
5765.20523804,0.00127170
5767.13404541,0.00122570
5769.06285278,0.00121190
5770.99166016,0.00119332
5772.92046753,0.00115058
5774.84927490,0.00120861
5776.77808228,0.00120915
5778.70688965,0.00124588
5780.63569702,0.00123938
5782.56450439,0.00120073
5784.49331177,0.00123433
5786.42211914,0.00116502
5788.35092651,0.00119882
5790.27973389,0.00129418
5792.20854126,0.00125063
5794.13734863,0.00123954
5796.06615601,0.00122116
5797.99496338,0.00114199
5799.92377075,0.00117109
5801.85257812,0.00121107
5803.78138550,0.00117941
5805.71019287,0.00118161
5807.63900024,0.00119117
5809.56780762,0.00117296
5811.49661499,0.00115734
5813.42542236,0.00119787
5815.35422974,0.00119211
5817.28303711,0.00116303
5819.21184448,0.00113713
5821.14065186,0.00108070
5823.06945923,0.00112723
5824.99826660,0.00115318
5826.92707397,0.00113737
5828.85588135,0.00115531
5830.78468872,0.00120367
5832.71349609,0.00119359
5834.64230347,0.00111978
5836.57111084,0.00111537
5838.49991821,0.00107647
5840.42872559,0.00109965
5842.35753296,0.00110859
5844.28634033,0.00109274
5846.21514770,0.00111323
5848.14395508,0.00104850
5850.07276245,0.00111151
5852.00156982,0.00115949
5853.93037720,0.00114527
5855.85918457,0.00110988
5857.78799194,0.00105019
5859.71679932,0.00106409
5861.64560669,0.00101053
5863.57441406,0.00108329
5865.50322144,0.00115022
5867.43202881,0.00108836
5869.36083618,0.00108279
5871.28964355,0.00104261
5873.21845093,0.00106078
5875.14725830,0.00108287
5877.07606567,0.00105741
5879.00487305,0.00108886
5880.93368042,0.00107266
5882.86248779,0.00104506
5884.79129517,0.00107957
5886.72010254,0.00102498
5888.64890991,0.00102534
5890.57771728,0.00108834
5892.50652466,0.00099974
5894.43533203,0.00102914
5896.36413940,0.00108872
5898.29294678,0.00103935
5900.22175415,0.00103293
5902.15056152,0.00100869
5904.07936890,0.00100722
5906.00817627,0.00098596
5907.93698364,0.00098433
5909.86579102,0.00102139
5911.79459839,0.00100226
5913.72340576,0.00100593
5915.65221313,0.00100538
5917.58102051,0.00096656
5919.50982788,0.00097217
5921.43863525,0.00101201
5923.36744263,0.00102529
5925.29625000,0.00100573
5927.22505737,0.00096038
5929.15386475,0.00095926
5931.08267212,0.00096721
5933.01147949,0.00096920
5934.94028686,0.00097558
5936.86909424,0.00095905
5938.79790161,0.00099625
5940.72670898,0.00097615
5942.65551636,0.00093138
5944.58432373,0.00094807
5946.51313110,0.00094565
5948.44193848,0.00091973
5950.37074585,0.00095142
5952.29955322,0.00096925
5954.22836060,0.00089372
5956.15716797,0.00095658
5958.08597534,0.00094064
5960.01478271,0.00087106
5961.94359009,0.00090852
5963.87239746,0.00091413
5965.80120483,0.00099162
5967.73001221,0.00092710
5969.65881958,0.00095537
5971.58762695,0.00099823
5973.51643433,0.00088787
5975.44524170,0.00094794
5977.37404907,0.00093156
5979.30285645,0.00090658
5981.23166382,0.00085423
5983.16047119,0.00089616
5985.08927856,0.00097743
5987.01808594,0.00089471
5988.94689331,0.00093907
5990.87570068,0.00085411
5992.80450806,0.00084588
5994.73331543,0.00096381
5996.66212280,0.00097140
5998.59093018,0.00095979
6000.51973755,0.00087985
