399.26312622,0.00014115
401.19193359,0.00025386
403.12074097,0.00061162
405.04954834,0.00062978
406.97835571,0.00062463
408.90716309,0.00060513
410.83597046,0.00117687
412.76477783,0.00102339
414.69358521,0.00114407
416.62239258,0.00066574
418.55119995,0.00024276
420.48000732,0.00113877
422.40881470,0.00086994
424.33762207,0.00103250
426.26642944,0.00120726
428.19523682,0.00077526
430.12404419,0.00117644
432.05285156,0.00122995
433.98165894,0.00077713
435.91046631,0.00065371
437.83927368,0.00074621
439.76808105,0.00037147
441.69688843,0.00082734
443.62569580,0.00131965
445.55450317,0.00055428
447.48331055,0.00051836
449.41211792,0.00072182
451.34092529,0.00050325
453.26973267,0.00035891
455.19854004,0.00041925
457.12734741,0.00066791
459.05615479,0.00053666
460.98496216,0.00077587
462.91376953,0.00101759
464.84257690,0.00051547
466.77138428,0.00036156
468.70019165,0.00041262
470.62899902,0.00020231
472.55780640,0.00008705
474.48661377,0.00040092
476.41542114,0.00058260
478.34422852,0.00020886
480.27303589,0.00027892
482.20184326,0.00030068
484.13065063,0.00019644
486.05945801,0.00025998
487.98826538,0.00019077
489.91707275,0.00057874
491.84588013,0.00044250
493.77468750,0.00040205
495.70349487,0.00052399
497.63230225,-0.00004408
499.56110962,0.00001892
501.48991699,0.00017592
503.41872437,0.00012445
505.34753174,0.00046349
507.27633911,0.00060528
509.20514648,0.00039817
511.13395386,0.00024617
513.06276123,0.00026878
514.99156860,0.00006861
516.92037598,-0.00025564
518.84918335,0.00006436
520.77799072,0.00043383
522.70679810,0.00012129
524.63560547,0.00021330
526.56441284,0.00008268
528.49322021,0.00021753
530.42202759,0.00029364
532.35083496,-0.00023773
534.27964233,0.00033125
536.20844971,0.00042970
538.13725708,0.00009226
540.06606445,0.00002594
541.99487183,-0.00015105
543.92367920,-0.00001146
545.85248657,0.00022311
547.78129395,0.00020981
549.71010132,0.00003677
551.63890869,0.00049407
553.56771606,0.00025962
555.49652344,0.00008536
557.42533081,0.00017103
559.35413818,-0.00025582
561.28294556,0.00019160
563.21175293,0.00037570
565.14056030,0.00042464
567.06936768,0.00010491
568.99817505,0.00004849
570.92698242,0.00060272
572.85578979,0.00014336
574.78459717,0.00041590
576.71340454,0.00059322
578.64221191,-0.00000698
580.57101929,0.00003625
582.49982666,-0.00003135
584.42863403,0.00001898
586.35744141,0.00026853
588.28624878,-0.00001321
590.21505615,0.00033273
592.14386353,0.00040410
594.07267090,-0.00028466
596.00147827,0.00033122
597.93028564,0.00033073
599.85909302,0.00000800
601.78790039,0.00030552
603.71670776,0.00022785
605.64551514,0.00037518
607.57432251,0.00010461
609.50312988,0.00030451
611.43193726,0.00036414
613.36074463,-0.00003883
615.28955200,0.00037798
617.21835938,0.00049832
619.14716675,0.00022031
621.07597412,0.00004902
623.00478149,0.00012046
624.93358887,0.00017036
626.86239624,0.00008608
628.79120361,0.00006626
630.72001099,0.00019811
632.64881836,0.00031820
634.57762573,0.00035515
636.50643311,0.00056023
638.43524048,0.00058943
640.36404785,0.00069833
642.29285522,0.00076745
644.22166260,0.00091065
646.15046997,0.00094975
648.07927734,0.00066495
650.00808472,0.00144966
651.93689209,0.00151218
653.86569946,0.00096641
655.79450684,0.00145683
657.72331421,0.00137180
659.65212158,0.00139727
661.58092896,0.00138733
663.50973633,0.00136655
665.43854370,0.00169811
667.36735107,0.00129004
669.29615845,0.00150283
671.22496582,0.00197038
673.15377319,0.00179401
675.08258057,0.00196243
677.01138794,0.00201836
678.94019531,0.00183418
680.86900269,0.00201749
682.79781006,0.00197747
684.72661743,0.00173643
686.65542480,0.00183320
688.58423218,0.00200020
690.51303955,0.00217920
692.44184692,0.00213366
694.37065430,0.00233650
696.29946167,0.00281524
698.22826904,0.00292998
700.15707642,0.00296437
702.08588379,0.00292996
704.01469116,0.00287861
705.94349854,0.00239785
707.87230591,0.00195507
709.80111328,0.00167165
711.72992065,0.00105022
713.65872803,0.00079288
715.58753540,0.00040274
717.51634277,0.00027876
719.44515015,0.00023846
721.37395752,-0.00004749
723.30276489,0.00029718
725.23157227,0.00027527
727.16037964,0.00011714
729.08918701,0.00012966
731.01799438,0.00032838
732.94680176,0.00050403
734.87560913,0.00019263
736.80441650,0.00020899
738.73322388,0.00015443
740.66203125,0.00021023
742.59083862,0.00011952
744.51964600,0.00015836
746.44845337,0.00030477
748.37726074,0.00022935
750.30606812,0.00064807
752.23487549,0.00036960
754.16368286,0.00026706
756.09249023,0.00019565
758.02129761,0.00005617
759.95010498,0.00041257
761.87891235,-0.00000762
763.80771973,0.00017073
765.73652710,0.00021387
767.66533447,-0.00009614
769.59414185,0.00019420
771.52294922,0.00005639
773.45175659,0.00018365
775.38056396,0.00029440
777.30937134,0.00002408
779.23817871,0.00022356
781.16698608,0.00052552
783.09579346,0.00042101
785.02460083,0.00037493
786.95340820,0.00045643
788.88221558,0.00048940
790.81102295,0.00045410
792.73983032,0.00017208
794.66863770,0.00026012
796.59744507,0.00036350
798.52625244,0.00022427
800.45505981,0.00046545
802.38386719,0.00064839
804.31267456,0.00045174
806.24148193,0.00032922
808.17028931,0.00050880
810.09909668,0.00046230
812.02790405,0.00047191
813.95671143,0.00027236
815.88551880,-0.00000921
817.81432617,0.00035207
819.74313354,0.00047248
821.67194092,0.00029306
823.60074829,-0.00001718
825.52955566,0.00006028
827.45836304,0.00036336
829.38717041,0.00043229
831.31597778,0.00080156
833.24478516,0.00086464
835.17359253,0.00054926
837.10239990,0.00049925
839.03120728,0.00075959
840.96001465,0.00067488
842.88882202,0.00074526
844.81762939,0.00087128
846.74643677,0.00046141
848.67524414,0.00052967
850.60405151,0.00041763
852.53285889,0.00029661
854.46166626,0.00045963
856.39047363,0.00025661
858.31928101,0.00031244
860.24808838,0.00045537
862.17689575,0.00032235
864.10570313,0.00031292
866.03451050,0.00042475
867.96331787,0.00016993
869.89212524,0.00020923
871.82093262,0.00023861
873.74973999,0.00007642
875.67854736,0.00031569
877.60735474,0.00030353
879.53616211,0.00037651
881.46496948,0.00029531
883.39377686,0.00019222
885.32258423,0.00020353
887.25139160,0.00027918
889.18019897,0.00048951
891.10900635,0.00017042
893.03781372,0.00036763
894.96662109,0.00037369
896.89542847,0.00022079
898.82423584,0.00050448
900.75304321,0.00025422
902.68185059,0.00000157
904.61065796,-0.00003094
906.53946533,0.00050468
908.46827271,0.00039548
910.39708008,0.00016122
912.32588745,0.00054252
914.25469482,0.00043804
916.18350220,0.00067237
918.11230957,0.00053523
920.04111694,0.00052730
921.96992432,0.00069262
923.89873169,0.00075077
925.82753906,0.00123694
927.75634644,0.00090157
929.68515381,0.00080035
931.61396118,0.00101553
933.54276855,0.00079674
935.47157593,0.00083783
937.40038330,0.00111547
939.32919067,0.00114718
941.25799805,0.00107887
943.18680542,0.00127665
945.11561279,0.00119513
947.04442017,0.00127482
948.97322754,0.00147035
950.90203491,0.00140325
952.83084229,0.00119839
954.75964966,0.00086905
956.68845703,0.00098936
958.61726440,0.00117362
960.54607178,0.00121576
962.47487915,0.00124557
964.40368652,0.00127689
966.33249390,0.00138383
968.26130127,0.00133771
970.19010864,0.00125225
972.11891602,0.00137064
974.04772339,0.00165477
975.97653076,0.00176605
977.90533813,0.00186294
979.83414551,0.00194787
981.76295288,0.00197078
983.69176025,0.00208181
985.62056763,0.00234166
987.54937500,0.00264576
989.47818237,0.00274608
991.40698975,0.00316149
993.33579712,0.00364208
995.26460449,0.00395506
997.19341187,0.00426076
999.12221924,0.00441959
1001.05102661,0.00471996
1002.97983398,0.00498055
1004.90864136,0.00531947
1006.83744873,0.00569624
1008.76625610,0.00603764
1010.69506348,0.00647263
1012.62387085,0.00679014
1014.55267822,0.00708112
1016.48148560,0.00734515
1018.41029297,0.00779820
1020.33910034,0.00826835
1022.26790771,0.00858488
1024.19671509,0.00899782
1026.12552246,0.00932110
1028.05432983,0.00948876
1029.98313721,0.00979612
1031.91194458,0.01013371
1033.84075195,0.01023362
1035.76955933,0.01036379
1037.69836670,0.01031812
1039.62717407,0.01030115
1041.55598145,0.01053537
1043.48478882,0.01039774
1045.41359619,0.01027684
1047.34240356,0.01037586
1049.27121094,0.01018214
1051.20001831,0.00983743
1053.12882568,0.00963831
1055.05763306,0.00950256
1056.98644043,0.00928265
1058.91524780,0.00899574
1060.84405518,0.00888435
1062.77286255,0.00872956
1064.70166992,0.00853094
1066.63047729,0.00825349
1068.55928467,0.00746948
1070.48809204,0.00724857
1072.41689941,0.00711105
1074.34570679,0.00656073
1076.27451416,0.00658662
1078.20332153,0.00638722
1080.13212891,0.00606912
1082.06093628,0.00566009
1083.98974365,0.00525669
1085.91855103,0.00518080
1087.84735840,0.00481358
1089.77616577,0.00469395
1091.70497314,0.00457466
1093.63378052,0.00426819
1095.56258789,0.00415702
1097.49139526,0.00410125
1099.42020264,0.00403992
1101.34901001,0.00407063
1103.27781738,0.00409486
1105.20662476,0.00379680
1107.13543213,0.00369185
1109.06423950,0.00352406
1110.99304687,0.00338344
1112.92185425,0.00360963
1114.85066162,0.00362141
1116.77946899,0.00366748
1118.70827637,0.00368089
1120.63708374,0.00354873
1122.56589111,0.00343827
1124.49469849,0.00363788
1126.42350586,0.00379695
1128.35231323,0.00357555
1130.28112061,0.00370987
1132.20992798,0.00399219
1134.13873535,0.00424070
1136.06754272,0.00433672
1137.99635010,0.00448343
1139.92515747,0.00488026
1141.85396484,0.00502155
1143.78277222,0.00531610
1145.71157959,0.00564803
1147.64038696,0.00592385
1149.56919434,0.00629017
1151.49800171,0.00666881
1153.42680908,0.00692117
1155.35561646,0.00696509
1157.28442383,0.00751286
1159.21323120,0.00781939
1161.14203857,0.00792318
1163.07084595,0.00834295
1164.99965332,0.00830141
1166.92846069,0.00879128
1168.85726807,0.00942302
1170.78607544,0.00960260
1172.71488281,0.01005490
1174.64369019,0.01023704
1176.57249756,0.01065144
1178.50130493,0.01112621
1180.43011230,0.01140707
1182.35891968,0.01211901
1184.28772705,0.01265816
1186.21653442,0.01323439
1188.14534180,0.01384720
1190.07414917,0.01442428
1192.00295654,0.01511099
1193.93176392,0.01556289
1195.86057129,0.01634475
1197.78937866,0.01726868
1199.71818604,0.01802858
1201.64699341,0.01867268
1203.57580078,0.01928622
1205.50460815,0.02017686
1207.43341553,0.02082926
1209.36222290,0.02147697
1211.29103027,0.02218133
1213.21983765,0.02275632
1215.14864502,0.02352763
1217.07745239,0.02393534
1219.00625977,0.02425657
1220.93506714,0.02479605
1222.86387451,0.02512012
1224.79268188,0.02545245
1226.72148926,0.02558978
1228.65029663,0.02551532
1230.57910400,0.02565302
1232.50791138,0.02582415
1234.43671875,0.02578716
1236.36552612,0.02572469
1238.29433350,0.02592140
1240.22314087,0.02600070
1242.15194824,0.02579162
1244.08075562,0.02568098
1246.00956299,0.02562372
1247.93837036,0.02552603
1249.86717773,0.02523002
1251.79598511,0.02497067
1253.72479248,0.02498444
1255.65359985,0.02466331
1257.58240723,0.02427470
1259.51121460,0.02410182
1261.44002197,0.02372566
1263.36882935,0.02349569
1265.29763672,0.02310204
1267.22644409,0.02257145
1269.15525146,0.02255316
1271.08405884,0.02219122
1273.01286621,0.02173974
1274.94167358,0.02151072
1276.87048096,0.02095351
1278.79928833,0.02060669
1280.72809570,0.02016585
1282.65690308,0.01978962
1284.58571045,0.01960199
1286.51451782,0.01920976
1288.44332520,0.01897714
1290.37213257,0.01857695
1292.30093994,0.01851769
1294.22974731,0.01856609
1296.15855469,0.01813662
1298.08736206,0.01813490
1300.01616943,0.01824945
1301.94497681,0.01827154
1303.87378418,0.01850438
1305.80259155,0.01865550
1307.73139893,0.01884276
1309.66020630,0.01924978
1311.58901367,0.01943571
1313.51782104,0.01976392
1315.44662842,0.02047119
1317.37543579,0.02077113
1319.30424316,0.02138757
1321.23305054,0.02234854
1323.16185791,0.02294084
1325.09066528,0.02349898
1327.01947266,0.02399142
1328.94828003,0.02474044
1330.87708740,0.02552837
1332.80589478,0.02585507
1334.73470215,0.02629943
1336.66350952,0.02671286
1338.59231689,0.02630283
1340.52112427,0.02657496
1342.44993164,0.02791818
1344.37873901,0.02812110
1346.30754639,0.02799854
1348.23635376,0.02808057
1350.16516113,0.02788455
1352.09396851,0.02784845
1354.02277588,0.02752085
1355.95158325,0.02731096
1357.88039062,0.02716526
1359.80919800,0.02666943
1361.73800537,0.02517675
1363.66681274,0.02488404
1365.59562012,0.02645586
1367.52442749,0.02562557
1369.45323486,0.02544283
1371.38204224,0.02610422
1373.31084961,0.02442916
1375.23965698,0.02446352
1377.16846436,0.02541105
1379.09727173,0.02529808
1381.02607910,0.02521082
1382.95488647,0.02554553
1384.88369385,0.02544500
1386.81250122,0.02397940
1388.74130859,0.02434957
1390.67011597,0.02674543
1392.59892334,0.02601912
1394.52773071,0.02381474
1396.45653809,0.02531867
1398.38534546,0.02511480
1400.31415283,0.02495760
1402.24296021,0.02748473
1404.17176758,0.02561494
1406.10057495,0.02598574
1408.02938232,0.02696832
1409.95818970,0.02583373
1411.88699707,0.02672932
1413.81580444,0.02559926
1415.74461182,0.02621948
1417.67341919,0.02330558
1419.60222656,0.02039448
1421.53103394,0.02411653
1423.45984131,0.02337982
1425.38864868,0.02277417
1427.31745605,0.02329800
1429.24626343,0.02118952
1431.17507080,0.02067046
1433.10387817,0.02144494
1435.03268555,0.01927600
1436.96149292,0.01588844
1438.89030029,0.01863923
1440.81910767,0.01943524
1442.74791504,0.01779813
1444.67672241,0.01868383
1446.60552979,0.01720148
1448.53433716,0.01750183
1450.46314453,0.01799334
1452.39195190,0.01828231
1454.32075928,0.01902049
1456.24956665,0.01500382
1458.17837402,0.01543185
1460.10718140,0.02164073
1462.03598877,0.02336653
1463.96479614,0.02295979
1465.89360352,0.02357692
1467.82241089,0.02738422
1469.75121826,0.02963264
1471.68002563,0.02536622
1473.60883301,0.02665783
1475.53764038,0.03090942
1477.46644775,0.03368040
1479.39525513,0.03731575
1481.32406250,0.03748067
1483.25286987,0.04015864
1485.18167725,0.04141616
1487.11048462,0.04032345
1489.03929199,0.03968096
1490.96809937,0.03968021
1492.89690674,0.04742935
1494.82571411,0.04602037
1496.75452148,0.04028545
1498.68332886,0.04638115
1500.61213623,0.04800162
1502.54094360,0.05190057
1504.46975098,0.04882395
1506.39855835,0.03304378
1508.32736572,0.04151573
1510.25617310,0.05059827
1512.18498047,0.04857446
1514.11378784,0.05343445
1516.04259521,0.04729661
1517.97140259,0.04934079
1519.90020996,0.04791080
1521.82901733,0.04012345
1523.75782471,0.05088159
1525.68663208,0.04996124
1527.61543945,0.04945045
1529.54424683,0.05598408
1531.47305420,0.05345542
1533.40186157,0.04783464
1535.33066895,0.05121411
1537.25947632,0.05602228
1539.18828369,0.03763087
1541.11709106,0.03928229
1543.04589844,0.04902635
1544.97470581,0.04654663
1546.90351318,0.05729546
1548.83232056,0.05281745
1550.76112793,0.05460897
1552.68993530,0.05470368
1554.61874268,0.04831899
1556.54755005,0.05279301
1558.47635742,0.03463423
1560.40516479,0.03752698
1562.33397217,0.05804790
1564.26277954,0.05421521
1566.19158691,0.05611255
1568.12039429,0.05555742
1570.04920166,0.04771557
1571.97800903,0.05688053
1573.90681641,0.05792103
1575.83562378,0.04398446
1577.76443115,0.05082541
1579.69323853,0.05868928
1581.62204590,0.05604322
1583.55085327,0.05782355
1585.47966064,0.05689375
1587.40846802,0.05751564
1589.33727539,0.05695814
1591.26608276,0.05688961
1593.19489014,0.05689261
1595.12369751,0.05601979
1597.05250488,0.05723191
1598.98131226,0.05670641
1600.91011963,0.05694252
1602.83892700,0.05593495
1604.76773437,0.05707835
1606.69654175,0.05624109
1608.62534912,0.05594652
1610.55415649,0.05607840
1612.48296387,0.05641973
1614.41177124,0.05722581
1616.34057861,0.04541422
1618.26938599,0.04965263
1620.19819336,0.05966191
1622.12700073,0.05177776
1624.05580811,0.05169826
1625.98461548,0.05513635
1627.91342285,0.05460089
1629.84223022,0.05446611
1631.77103760,0.05902327
1633.69984497,0.05356411
1635.62865234,0.04245332
1637.55745972,0.05079399
1639.48626709,0.05714514
1641.41507446,0.05557465
1643.34388184,0.05737597
1645.27268921,0.05083315
1647.20149658,0.04305655
1649.13030396,0.05588727
1651.05911133,0.05329899
1652.98791870,0.03089766
1654.91672607,0.04456101
1656.84553345,0.05901262
1658.77434082,0.05620670
1660.70314819,0.05794960
1662.63195557,0.05164600
1664.56076294,0.05491185
1666.48957031,0.06012471
1668.41837769,0.05089228
1670.34718506,0.04898696
1672.27599243,0.05729359
1674.20479980,0.05225132
1676.13360718,0.04950552
1678.06241455,0.05860543
1679.99122192,0.05622576
1681.92002930,0.05527084
1683.84883667,0.04332941
1685.77764404,0.04265172
1687.70645142,0.06220558
1689.63525879,0.05286334
1691.56406616,0.05883380
1693.49287354,0.06064606
1695.42168091,0.04165152
1697.35048828,0.05344927
1699.27929565,0.04610118
1701.20810303,0.04027859
1703.13691040,0.05834379
1705.06571777,0.05263957
1706.99452515,0.05332391
1708.92333252,0.05924456
1710.85213989,0.05646900
1712.78094727,0.05744391
1714.70975464,0.05251718
1716.63856201,0.04635155
1718.56736938,0.04544948
1720.49617676,0.05562546
1722.42498413,0.05854787
1724.35379150,0.05355433
1726.28259888,0.05926824
1728.21140625,0.05410706
1730.14021362,0.05415306
1732.06902100,0.05301915
1733.99782837,0.03822160
1735.92663574,0.04962024
1737.85544312,0.05613621
1739.78425049,0.04865981
1741.71305786,0.05373451
1743.64186523,0.05458182
1745.57067261,0.05471169
1747.49947998,0.05520976
1749.42828735,0.05217590
1751.35709473,0.04927709
1753.28590210,0.05585088
1755.21470947,0.05917840
1757.14351685,0.05274339
1759.07232422,0.05925130
1761.00113159,0.05524214
1762.92993896,0.05269010
1764.85874634,0.06202856
1766.78755371,0.05483778
1768.71636108,0.05535456
1770.64516846,0.05484068
1772.57397583,0.04819234
1774.50278320,0.05510591
1776.43159058,0.05896848
1778.36039795,0.05804949
1780.28920532,0.05693609
1782.21801270,0.05754624
1784.14682007,0.05761072
1786.07562744,0.05625008
1788.00443481,0.05975813
1789.93324219,0.05793999
1791.86204956,0.05128215
1793.79085693,0.05401213
1795.71966431,0.05881697
1797.64847168,0.05784593
1799.57727905,0.05679499
1801.50608643,0.05547441
1803.43489380,0.05786845
1805.36370117,0.05946196
1807.29250854,0.05830529
1809.22131592,0.05883517
1811.15012329,0.05687983
1813.07893066,0.05894574
1815.00773804,0.05934545
1816.93654541,0.05848519
1818.86535278,0.05926343
1820.79416016,0.05888374
1822.72296753,0.05987492
1824.65177490,0.05515268
1826.58058228,0.05761215
1828.50938965,0.05780940
1830.43819702,0.05324719
1832.36700439,0.05920090
1834.29581177,0.05882083
1836.22461914,0.05868837
1838.15342651,0.05855417
1840.08223389,0.05874585
1842.01104126,0.05901057
1843.93984863,0.05120288
1845.86865601,0.05514868
1847.79746338,0.05891078
1849.72627075,0.05743006
1851.65507812,0.05952185
1853.58388550,0.05818780
1855.51269287,0.05903257
1857.44150024,0.05852443
1859.37030762,0.05798263
1861.29911499,0.05871082
1863.22792236,0.05784332
1865.15672974,0.05853182
1867.08553711,0.05617194
1869.01434448,0.05313100
1870.94315186,0.05599124
1872.87195923,0.05882482
1874.80076660,0.05755422
1876.72957397,0.05805782
1878.65838135,0.05791384
1880.58718872,0.05749073
1882.51599609,0.05809692
1884.44480347,0.05669965
1886.37361084,0.05785951
1888.30241821,0.05652640
1890.23122559,0.05494086
1892.16003296,0.05760869
1894.08884033,0.05667729
1896.01764771,0.05627624
1897.94645508,0.05733132
1899.87526245,0.05695079
1901.80406982,0.05698548
1903.73287720,0.05667606
1905.66168457,0.05703039
1907.59049194,0.05637079
1909.51929932,0.05590245
1911.44810669,0.05637112
1913.37691406,0.05646677
1915.30572144,0.05696976
1917.23452881,0.05414023
1919.16333618,0.05426380
1921.09214355,0.05675925
1923.02095093,0.05463482
1924.94975830,0.05585171
1926.87856567,0.05662932
1928.80737305,0.05584916
1930.73618042,0.05670252
1932.66498779,0.05577513
1934.59379517,0.05640979
1936.52260254,0.05590090
1938.45140991,0.05608220
1940.38021729,0.05626161
1942.30902466,0.05392159
1944.23783203,0.05506969
1946.16663940,0.05589604
1948.09544678,0.05575151
1950.02425415,0.05609852
1951.95306152,0.05574219
1953.88186890,0.05584867
1955.81067627,0.05561657
1957.73948364,0.05582929
1959.66829102,0.05579529
1961.59709839,0.05548209
1963.52590576,0.05582120
1965.45471313,0.05544501
1967.38352051,0.05459110
1969.31232788,0.05536689
1971.24113525,0.05587410
1973.16994263,0.05530000
1975.09875000,0.05574977
1977.02755737,0.05545386
1978.95636475,0.05537736
1980.88517212,0.05556610
1982.81397949,0.05531558
1984.74278687,0.05542909
1986.67159424,0.05485460
1988.60040161,0.05493554
1990.52920898,0.05440645
1992.45801636,0.05377244
1994.38682373,0.05485788
1996.31563110,0.05497885
1998.24443848,0.05448271
2000.17324585,0.05449029
2002.10205322,0.05441927
2004.03086060,0.05454959
2005.95966797,0.05437250
2007.88847534,0.05402246
2009.81728271,0.05419923
2011.74609009,0.05400474
2013.67489746,0.05405469
2015.60370483,0.05377308
2017.53251221,0.05303201
2019.46131958,0.05351215
2021.39012695,0.05341852
2023.31893433,0.05336304
2025.24774170,0.05352445
2027.17654907,0.05305380
2029.10535645,0.05318281
2031.03416382,0.05302783
2032.96297119,0.05292939
2034.89177856,0.05293945
2036.82058594,0.05282849
2038.74939331,0.05275172
2040.67820068,0.05239645
2042.60700806,0.05239326
2044.53581543,0.05226114
2046.46462280,0.05222379
2048.39343018,0.05230818
2050.32223755,0.05201966
2052.25104492,0.05209509
2054.17985229,0.05203012
2056.10865967,0.05167908
2058.03746704,0.05174626
2059.96627441,0.05160970
2061.89508179,0.05147507
2063.82388916,0.05132220
2065.75269653,0.05105222
2067.68150391,0.05139640
2069.61031128,0.05124038
2071.53911865,0.05107278
2073.46792603,0.05127045
2075.39673340,0.05090231
2077.32554077,0.05079827
2079.25434814,0.05080083
2081.18315552,0.05070459
2083.11196289,0.05066431
2085.04077026,0.05057200
2086.96957764,0.05042424
2088.89838501,0.05034005
2090.82719238,0.05023149
2092.75599976,0.05010837
2094.68480713,0.05021568
2096.61361450,0.04998857
2098.54242187,0.04999661
2100.47122925,0.05002576
2102.40003662,0.04980921
2104.32884399,0.04983782
2106.25765137,0.04967142
2108.18645874,0.04961997
2110.11526611,0.04953378
2112.04407349,0.04956198
2113.97288086,0.04951690
2115.90168823,0.04931460
2117.83049561,0.04938481
2119.75930298,0.04929466
2121.68811035,0.04920172
2123.61691772,0.04910703
2125.54572510,0.04906234
2127.47453247,0.04893403
2129.40333984,0.04896908
2131.33214722,0.04898040
2133.26095459,0.04870617
2135.18976196,0.04881787
2137.11856934,0.04874345
2139.04737671,0.04861377
2140.97618408,0.04859554
2142.90499146,0.04851059
2144.83379883,0.04852431
2146.76260620,0.04852292
2148.69141357,0.04845537
2150.62022095,0.04826899
2152.54902832,0.04823605
2154.47783569,0.04819968
2156.40664307,0.04820441
2158.33545044,0.04809006
2160.26425781,0.04815169
2162.19306519,0.04820984
2164.12187256,0.04788627
2166.05067993,0.04806768
2167.97948730,0.04798837
2169.90829468,0.04780680
2171.83710205,0.04788806
2173.76590942,0.04778282
2175.69471680,0.04777249
2177.62352417,0.04765631
2179.55233154,0.04771810
2181.48113892,0.04766461
2183.40994629,0.04746444
2185.33875366,0.04744375
2187.26756104,0.04739136
2189.19636841,0.04734097
2191.12517578,0.04733040
2193.05398315,0.04728106
2194.98279053,0.04717553
2196.91159790,0.04727353
2198.84040527,0.04719800
2200.76921265,0.04705533
2202.69802002,0.04697333
2204.62682739,0.04680176
2206.55563477,0.04684918
2208.48444214,0.04687865
2210.41324951,0.04679736
2212.34205688,0.04679660
2214.27086426,0.04673653
2216.19967163,0.04651906
2218.12847900,0.04672973
2220.05728638,0.04664495
2221.98609375,0.04639840
2223.91490112,0.04666254
2225.84370850,0.04637739
2227.77251587,0.04644720
2229.70132324,0.04645588
2231.63013062,0.04608450
2233.55893799,0.04621053
2235.48774536,0.04605410
2237.41655273,0.04602643
2239.34536011,0.04603484
2241.27416748,0.04593176
2243.20297485,0.04581172
2245.13178223,0.04562349
2247.06058960,0.04571870
2248.98939697,0.04578260
2250.91820435,0.04565302
2252.84701172,0.04551952
2254.77581909,0.04558410
2256.70462646,0.04539419
2258.63343384,0.04528786
2260.56224121,0.04534710
2262.49104858,0.04526556
2264.41985596,0.04534643
2266.34866333,0.04517508
2268.27747070,0.04505517
2270.20627808,0.04504022
2272.13508545,0.04504567
2274.06389282,0.04508433
2275.99270020,0.04498351
2277.92150757,0.04493459
2279.85031494,0.04479326
2281.77912231,0.04476952
2283.70792969,0.04481553
2285.63673706,0.04476657
2287.56554443,0.04457293
2289.49435181,0.04442890
2291.42315918,0.04436743
2293.35196655,0.04426820
2295.28077393,0.04427824
2297.20958130,0.04406596
2299.13838867,0.04392974
2301.06719604,0.04383548
2302.99600342,0.04358089
2304.92481079,0.04334873
2306.85361816,0.04307906
2308.78242554,0.04286767
2310.71123291,0.04261680
2312.64004028,0.04231084
2314.56884766,0.04187415
2316.49765503,0.04138683
2318.42646240,0.04085311
2320.35526978,0.04041503
2322.28407715,0.03990402
2324.21288452,0.03927596
2326.14169189,0.03892981
2328.07049927,0.03846257
2329.99930664,0.03804580
2331.92811401,0.03771991
2333.85692139,0.03764053
2335.78572876,0.03753708
2337.71453613,0.03720517
2339.64334351,0.03734083
2341.57215088,0.03754014
2343.50095825,0.03803736
2345.42976562,0.03878801
2347.35857300,0.04021633
2349.28738037,0.04141305
2351.21618774,0.04017554
2353.14499512,0.03831795
2355.07380249,0.03696659
2357.00260986,0.03583629
2358.93141724,0.03522764
2360.86022461,0.03488786
2362.78903198,0.03481939
2364.71783936,0.03497650
2366.64664673,0.03533398
2368.57545410,0.03601133
2370.50426147,0.03704616
2372.43306885,0.03788600
2374.36187622,0.03880729
2376.29068359,0.03986800
2378.21949097,0.04064561
2380.14829834,0.04137736
2382.07710571,0.04172172
2384.00591309,0.04200558
2385.93472046,0.04212855
2387.86352783,0.04199114
2389.79233521,0.04211925
2391.72114258,0.04211055
2393.64994995,0.04198708
2395.57875732,0.04199346
2397.50756470,0.04195981
2399.43637207,0.04176057
2401.36517944,0.04166292
2403.29398682,0.04176304
2405.22279419,0.04183673
2407.15160156,0.04170967
2409.08040894,0.04151862
2411.00921631,0.04145840
2412.93802368,0.04141173
2414.86683105,0.04143573
2416.79563843,0.04135106
2418.72444580,0.04136752
2420.65325317,0.04132292
2422.58206055,0.04107655
2424.51086792,0.04114027
2426.43967529,0.04111632
2428.36848267,0.04109687
2430.29729004,0.04112574
2432.22609741,0.04103355
2434.15490479,0.04098425
2436.08371216,0.04087029
2438.01251953,0.04085051
2439.94132690,0.04078694
2441.87013428,0.04071567
2443.79894165,0.04075364
2445.72774902,0.04065079
2447.65655640,0.04056944
2449.58536377,0.04059738
2451.51417114,0.04045293
2453.44297852,0.04040401
2455.37178589,0.04046758
2457.30059326,0.04037709
2459.22940063,0.04031669
2461.15820801,0.04015053
2463.08701538,0.04017351
2465.01582275,0.04021592
2466.94463013,0.04007919
2468.87343750,0.04013387
2470.80224487,0.04003341
2472.73105225,0.03993788
2474.65985962,0.03992005
2476.58866699,0.03990457
2478.51747437,0.03990122
2480.44628174,0.03984012
2482.37508911,0.03982811
2484.30389648,0.03975542
2486.23270386,0.03968801
2488.16151123,0.03962169
2490.09031860,0.03962341
2492.01912598,0.03948411
2493.94793335,0.03939532
2495.87674072,0.03951757
2497.80554810,0.03941598
2499.73435547,0.03937874
2501.66316284,0.03937028
2503.59197021,0.03923351
2505.52077759,0.03914792
2507.44958496,0.03921584
2509.37839233,0.03915156
2511.30719971,0.03906482
2513.23600708,0.03907854
2515.16481445,0.03885744
2517.09362183,0.03897654
2519.02242920,0.03897416
2520.95123657,0.03879227
2522.88004395,0.03890037
2524.80885132,0.03873848
2526.73765869,0.03870635
2528.66646606,0.03867845
2530.59527344,0.03848618
2532.52408081,0.03854563
2534.45288818,0.03864822
2536.38169556,0.03855189
2538.31050293,0.03847456
2540.23931030,0.03841097
2542.16811768,0.03825854
2544.09692505,0.03826522
2546.02573242,0.03814717
2547.95453979,0.03824695
2549.88334717,0.03824785
2551.81215454,0.03793408
2553.74096191,0.03816947
2555.66976929,0.03818213
2557.59857666,0.03795843
2559.52738403,0.03785027
2561.45619141,0.03773253
2563.38499878,0.03776167
2565.31380615,0.03767937
2567.24261353,0.03777114
2569.17142090,0.03775360
2571.10022827,0.03760563
2573.02903564,0.03764237
2574.95784302,0.03749558
2576.88665039,0.03740517
2578.81545776,0.03742918
2580.74426514,0.03743562
2582.67307251,0.03746901
2584.60187988,0.03738721
2586.53068726,0.03727394
2588.45949463,0.03723923
2590.38830200,0.03722776
2592.31710937,0.03715848
2594.24591675,0.03710888
2596.17472412,0.03708594
2598.10353149,0.03694839
2600.03233887,0.03693420
2601.96114624,0.03693819
2603.88995361,0.03678486
2605.81876099,0.03679486
2607.74756836,0.03670348
2609.67637573,0.03658962
2611.60518311,0.03672057
2613.53399048,0.03666684
2615.46279785,0.03651574
2617.39160522,0.03651375
2619.32041260,0.03648940
2621.24921997,0.03648265
2623.17802734,0.03650191
2625.10683472,0.03635822
2627.03564209,0.03635699
2628.96444946,0.03642090
2630.89325684,0.03620780
2632.82206421,0.03603831
2634.75087158,0.03603799
2636.67967895,0.03610225
2638.60848633,0.03604742
2640.53729370,0.03594460
2642.46610107,0.03587949
2644.39490845,0.03589127
2646.32371582,0.03588819
2648.25252319,0.03569178
2650.18133057,0.03571244
2652.11013794,0.03569522
2654.03894531,0.03561853
2655.96775269,0.03563099
2657.89656006,0.03553803
2659.82536743,0.03552154
2661.75417480,0.03540406
2663.68298218,0.03545834
2665.61178955,0.03542705
2667.54059692,0.03525946
2669.46940430,0.03533062
2671.39821167,0.03525146
2673.32701904,0.03523965
2675.25582642,0.03515146
2677.18463379,0.03509995
2679.11344116,0.03510600
2681.04224854,0.03490769
2682.97105591,0.03492032
2684.89986328,0.03488294
2686.82867065,0.03485735
2688.75747803,0.03487427
2690.68628540,0.03482655
2692.61509277,0.03479005
2694.54390015,0.03464823
2696.47270752,0.03471968
2698.40151489,0.03463925
2700.33032227,0.03448649
2702.25912964,0.03457747
2704.18793701,0.03440341
2706.11674438,0.03438355
2708.04555176,0.03444612
2709.97435913,0.03426207
2711.90316650,0.03424986
2713.83197388,0.03413858
2715.76078125,0.03413031
2717.68958862,0.03420093
2719.61839600,0.03399768
2721.54720337,0.03406740
2723.47601074,0.03402342
2725.40481812,0.03384109
2727.33362549,0.03398517
2729.26243286,0.03383453
2731.19124023,0.03364492
2733.12004761,0.03378538
2735.04885498,0.03371404
2736.97766235,0.03357476
2738.90646973,0.03354695
2740.83527710,0.03350495
2742.76408447,0.03361371
2744.69289185,0.03349692
2746.62169922,0.03332373
2748.55050659,0.03342371
2750.47931396,0.03329138
2752.40812134,0.03327307
2754.33692871,0.03328707
2756.26573608,0.03310367
2758.19454346,0.03309715
2760.12335083,0.03303906
2762.05215820,0.03302283
2763.98096558,0.03298581
2765.90977295,0.03291034
2767.83858032,0.03288569
2769.76738770,0.03276481
2771.69619507,0.03277894
2773.62500244,0.03269170
2775.55380981,0.03253455
2777.48261719,0.03252080
2779.41142456,0.03248128
2781.34023193,0.03247363
2783.26903931,0.03236564
2785.19784668,0.03230246
2787.12665405,0.03231867
2789.05546143,0.03223337
2790.98426880,0.03222030
2792.91307617,0.03208121
2794.84188354,0.03200720
2796.77069092,0.03211128
2798.69949829,0.03189934
2800.62830566,0.03174434
2802.55711304,0.03183394
2804.48592041,0.03176704
2806.41472778,0.03167567
2808.34353516,0.03167783
2810.27234253,0.03154522
2812.20114990,0.03144168
2814.12995728,0.03151754
2816.05876465,0.03138915
2817.98757202,0.03130983
2819.91637939,0.03134030
2821.84518677,0.03119972
2823.77399414,0.03115123
2825.70280151,0.03106208
2827.63160889,0.03095530
2829.56041626,0.03092440
2831.48922363,0.03089558
2833.41803101,0.03081147
2835.34683838,0.03072596
2837.27564575,0.03076918
2839.20445312,0.03057222
2841.13326050,0.03044293
2843.06206787,0.03034438
2844.99087524,0.02995978
2846.91968262,0.02983394
2848.84848999,0.02968498
2850.77729736,0.02955220
2852.70610474,0.02970952
2854.63491211,0.02975268
2856.56371948,0.02979051
2858.49252686,0.02984984
2860.42133423,0.02983023
2862.35014160,0.02974688
2864.27894897,0.02966378
2866.20775635,0.02969548
2868.13656372,0.02967450
2870.06537109,0.02965029
2871.99417847,0.02959330
2873.92298584,0.02946847
2875.85179321,0.02949985
2877.78060059,0.02945123
2879.70940796,0.02931866
2881.63821533,0.02930374
2883.56702270,0.02929373
2885.49583008,0.02917653
2887.42463745,0.02904237
2889.35344482,0.02904517
2891.28225220,0.02897709
2893.21105957,0.02895074
2895.13986694,0.02882950
2897.06867432,0.02862296
2898.99748169,0.02872273
2900.92628906,0.02860749
2902.85509644,0.02844733
2904.78390381,0.02842346
2906.71271118,0.02832859
2908.64151855,0.02830084
2910.57032593,0.02813351
2912.49913330,0.02795142
2914.42794067,0.02773754
2916.35674805,0.02766223
2918.28555542,0.02771613
2920.21436279,0.02762227
2922.14317017,0.02760629
2924.07197754,0.02768136
2926.00078491,0.02787557
2927.92959229,0.02786941
2929.85839966,0.02781457
2931.78720703,0.02795212
2933.71601440,0.02794593
2935.64482178,0.02789622
2937.57362915,0.02785796
2939.50243652,0.02793961
2941.43124390,0.02789831
2943.36005127,0.02786015
2945.28885864,0.02793517
2947.21766602,0.02775760
2949.14647339,0.02775407
2951.07528076,0.02768385
2953.00408813,0.02758522
2954.93289551,0.02766609
2956.86170288,0.02740954
2958.79051025,0.02729747
2960.71931763,0.02741305
2962.64812500,0.02736195
2964.57693237,0.02725984
2966.50573975,0.02723784
2968.43454712,0.02731605
2970.36335449,0.02733063
2972.29216187,0.02736039
2974.22096924,0.02730702
2976.14977661,0.02728875
2978.07858398,0.02744816
2980.00739136,0.02737221
2981.93619873,0.02729201
2983.86500610,0.02729863
2985.79381348,0.02731477
2987.72262085,0.02732334
2989.65142822,0.02720711
2991.58023560,0.02725890
2993.50904297,0.02708638
2995.43785034,0.02694784
2997.36665771,0.02711097
2999.29546509,0.02696824
3001.22427246,0.02693765
3003.15307983,0.02692138
3005.08188721,0.02681461
3007.01069458,0.02687307
3008.93950195,0.02675508
3010.86830933,0.02660720
3012.79711670,0.02660662
3014.72592407,0.02655075
3016.65473145,0.02645219
3018.58353882,0.02653869
3020.51234619,0.02644501
3022.44115356,0.02632685
3024.36996094,0.02637236
3026.29876831,0.02624607
3028.22757568,0.02630002
3030.15638306,0.02614756
3032.08519043,0.02597891
3034.01399780,0.02604567
3035.94280518,0.02593348
3037.87161255,0.02594709
3039.80041992,0.02585024
3041.72922729,0.02584574
3043.65803467,0.02582137
3045.58684204,0.02564236
3047.51564941,0.02570377
3049.44445679,0.02563470
3051.37326416,0.02561379
3053.30207153,0.02559599
3055.23087891,0.02547618
3057.15968628,0.02535473
3059.08849365,0.02526822
3061.01730103,0.02535370
3062.94610840,0.02527360
3064.87491577,0.02516039
3066.80372314,0.02510486
3068.73253052,0.02509193
3070.66133789,0.02511148
3072.59014526,0.02505033
3074.51895264,0.02501687
3076.44776001,0.02495978
3078.37656738,0.02492449
3080.30537476,0.02478452
3082.23418213,0.02473823
3084.16298950,0.02476936
3086.09179687,0.02471510
3088.02060425,0.02479147
3089.94941162,0.02465645
3091.87821899,0.02458471
3093.80702637,0.02460052
3095.73583374,0.02444576
3097.66464111,0.02446588
3099.59344849,0.02432146
3101.52225586,0.02416248
3103.45106323,0.02423070
3105.37987061,0.02421636
3107.30867798,0.02418427
3109.23748535,0.02409848
3111.16629272,0.02404136
3113.09510010,0.02402432
3115.02390747,0.02391068
3116.95271484,0.02379796
3118.88152222,0.02377759
3120.81032959,0.02379517
3122.73913696,0.02367916
3124.66794434,0.02360024
3126.59675171,0.02357528
3128.52555908,0.02349413
3130.45436645,0.02344898
3132.38317383,0.02331414
3134.31198120,0.02325895
3136.24078857,0.02329767
3138.16959595,0.02332350
3140.09840332,0.02327626
3142.02721069,0.02309133
3143.95601807,0.02306706
3145.88482544,0.02298474
3147.81363281,0.02291864
3149.74244019,0.02291860
3151.67124756,0.02276764
3153.60005493,0.02279475
3155.52886230,0.02271468
3157.45766968,0.02257940
3159.38647705,0.02260279
3161.31528442,0.02256947
3163.24409180,0.02252608
3165.17289917,0.02244074
3167.10170654,0.02235410
3169.03051392,0.02227091
3170.95932129,0.02233234
3172.88812866,0.02227557
3174.81693604,0.02209272
3176.74574341,0.02211153
3178.67455078,0.02197690
3180.60335815,0.02193262
3182.53216553,0.02194959
3184.46097290,0.02182419
3186.38978027,0.02178959
3188.31858765,0.02166858
3190.24739502,0.02167420
3192.17620239,0.02170459
3194.10500977,0.02153808
3196.03381714,0.02150141
3197.96262451,0.02144042
3199.89143188,0.02142505
3201.82023926,0.02146643
3203.74904663,0.02125311
3205.67785400,0.02125558
3207.60666138,0.02125209
3209.53546875,0.02111319
3211.46427612,0.02122629
3213.39308350,0.02108549
3215.32189087,0.02102201
3217.25069824,0.02104229
3219.17950562,0.02095554
3221.10831299,0.02099859
3223.03712036,0.02087863
3224.96592773,0.02093529
3226.89473511,0.02087987
3228.82354248,0.02076189
3230.75234985,0.02078224
3232.68115723,0.02063521
3234.60996460,0.02069329
3236.53877197,0.02061762
3238.46757935,0.02056804
3240.39638672,0.02067942
3242.32519409,0.02059409
3244.25400146,0.02049081
3246.18280884,0.02042312
3248.11161621,0.02047406
3250.04042358,0.02049155
3251.96923096,0.02043253
3253.89803833,0.02032037
3255.82684570,0.02034929
3257.75565308,0.02038212
3259.68446045,0.02025523
3261.61326782,0.02029140
3263.54207520,0.02030645
3265.47088257,0.02032518
3267.39968994,0.02024630
3269.32849731,0.02021711
3271.25730469,0.02025306
3273.18611206,0.02011565
3275.11491943,0.02005339
3277.04372681,0.01996710
3278.97253418,0.02001771
3280.90134155,0.01993466
3282.83014893,0.01991229
3284.75895630,0.02012917
3286.68776367,0.02005487
3288.61657104,0.02000082
3290.54537842,0.01983861
3292.47418579,0.01983552
3294.40299316,0.01997858
3296.33180054,0.01989490
3298.26060791,0.01991492
3300.18941528,0.01982270
3302.11822266,0.01979196
3304.04703003,0.01978775
3305.97583740,0.01972374
3307.90464478,0.01973535
3309.83345215,0.01960288
3311.76225952,0.01964175
3313.69106689,0.01975664
3315.61987427,0.01970679
3317.54868164,0.01962899
3319.47748901,0.01953273
3321.40629639,0.01955693
3323.33510376,0.01956504
3325.26391113,0.01947556
3327.19271851,0.01948124
3329.12152588,0.01950380
3331.05033325,0.01940916
3332.97914062,0.01935006
3334.90794800,0.01942004
3336.83675537,0.01927150
3338.76556274,0.01923716
3340.69437012,0.01937488
3342.62317749,0.01919866
3344.55198486,0.01927551
3346.48079224,0.01927616
3348.40959961,0.01911778
3350.33840698,0.01920015
3352.26721436,0.01909642
3354.19602173,0.01909324
3356.12482910,0.01906121
3358.05363647,0.01902469
3359.98244385,0.01901615
3361.91125122,0.01893227
3363.84005859,0.01893616
3365.76886597,0.01882575
3367.69767334,0.01883062
3369.62648071,0.01877812
3371.55528809,0.01881739
3373.48409546,0.01882405
3375.41290283,0.01874312
3377.34171020,0.01876916
3379.27051758,0.01858820
3381.19932495,0.01868825
3383.12813232,0.01860401
3385.05693970,0.01850546
3386.98574707,0.01856220
3388.91455444,0.01842888
3390.84336182,0.01852125
3392.77216919,0.01830336
3394.70097656,0.01826398
3396.62978394,0.01831888
3398.55859131,0.01815404
3400.48739868,0.01823737
3402.41620605,0.01824590
3404.34501343,0.01832724
3406.27382080,0.01825624
3408.20262817,0.01811321
3410.13143555,0.01815168
3412.06024292,0.01814615
3413.98905029,0.01805020
3415.91785767,0.01796019
3417.84666504,0.01797679
3419.77547241,0.01793374
3421.70427979,0.01788796
3423.63308716,0.01786229
3425.56189453,0.01790680
3427.49070190,0.01784127
3429.41950928,0.01778575
3431.34831665,0.01780367
3433.27712402,0.01769603
3435.20593140,0.01770881
3437.13473877,0.01763365
3439.06354614,0.01762244
3440.99235352,0.01757176
3442.92116089,0.01749047
3444.84996826,0.01754816
3446.77877563,0.01732161
3448.70758301,0.01736981
3450.63639038,0.01763783
3452.56519775,0.01754589
3454.49400513,0.01749928
3456.42281250,0.01750231
3458.35161987,0.01737941
3460.28042725,0.01740961
3462.20923462,0.01735688
3464.13804199,0.01731277
3466.06684937,0.01722878
3467.99565674,0.01704139
3469.92446411,0.01729701
3471.85327148,0.01729172
3473.78207886,0.01723481
3475.71088623,0.01728819
3477.63969360,0.01719889
3479.56850098,0.01725346
3481.49730835,0.01697211
3483.42611572,0.01705055
3485.35492310,0.01719849
3487.28373047,0.01704385
3489.21253784,0.01704068
3491.14134521,0.01705658
3493.07015259,0.01716533
3494.99895996,0.01701597
3496.92776733,0.01697118
3498.85657471,0.01701790
3500.78538208,0.01698316
3502.71418945,0.01673812
3504.64299683,0.01669282
3506.57180420,0.01706232
3508.50061157,0.01686128
3510.42941895,0.01679158
3512.35822632,0.01689335
3514.28703369,0.01701919
3516.21584106,0.01704924
3518.14464844,0.01686586
3520.07345581,0.01701377
3522.00226318,0.01667223
3523.93107056,0.01642133
3525.85987793,0.01661602
3527.78868530,0.01665605
3529.71749268,0.01669267
3531.64630005,0.01687455
3533.57510742,0.01698919
3535.50391479,0.01664951
3537.43272217,0.01662543
3539.36152954,0.01696074
3541.29033691,0.01697326
3543.21914429,0.01675436
3545.14795166,0.01631735
3547.07675903,0.01598708
3549.00556641,0.01660022
3550.93437378,0.01675504
3552.86318115,0.01616761
3554.79198853,0.01660973
3556.72079590,0.01675302
3558.64960327,0.01663661
3560.57841064,0.01654480
3562.50721802,0.01640153
3564.43602539,0.01648682
3566.36483276,0.01519361
3568.29364014,0.01478508
3570.22244751,0.01624511
3572.15125488,0.01680647
3574.08006226,0.01660381
3576.00886963,0.01661728
3577.93767700,0.01650706
3579.86648437,0.01649272
3581.79529175,0.01651571
3583.72409912,0.01655601
3585.65290649,0.01618046
3587.58171387,0.01453704
3589.51052124,0.01506938
3591.43932861,0.01673984
3593.36813599,0.01611152
3595.29694336,0.01578768
3597.22575073,0.01615538
3599.15455811,0.01628677
3601.08336548,0.01611933
3603.01217285,0.01637324
3604.94098022,0.01667795
3606.86978760,0.01588473
3608.79859497,0.01484252
3610.72740234,0.01524624
3612.65620972,0.01564921
3614.58501709,0.01508186
3616.51382446,0.01634818
3618.44263184,0.01492650
3620.37143921,0.01426023
3622.30024658,0.01656636
3624.22905395,0.01605162
3626.15786133,0.01685042
3628.08666870,0.01388983
3630.01547607,0.01240632
3631.94428345,0.01639317
3633.87309082,0.01579818
3635.80189819,0.01613450
3637.73070557,0.01665349
3639.65951294,0.01630483
3641.58832031,0.01646767
3643.51712769,0.01616072
3645.44593506,0.01634453
3647.37474243,0.01428450
3649.30354980,0.01285156
3651.23235718,0.01323189
3653.16116455,0.01619691
3655.08997192,0.01599643
3657.01877930,0.01404599
3658.94758667,0.01648666
3660.87639404,0.01614392
3662.80520142,0.01646205
3664.73400879,0.01635113
3666.66281616,0.01609823
3668.59162354,0.01558699
3670.52043091,0.01223303
3672.44923828,0.01532059
3674.37804565,0.01449500
3676.30685303,0.01155074
3678.23566040,0.01518220
3680.16446777,0.01564055
3682.09327515,0.01566874
3684.02208252,0.01627278
3685.95088989,0.01598662
3687.87969727,0.01408119
3689.80850464,0.01274840
3691.73731201,0.01479563
3693.66611938,0.01535683
3695.59492676,0.01585645
3697.52373413,0.01578017
3699.45254150,0.01570468
3701.38134888,0.01515475
3703.31015625,0.01445313
3705.23896362,0.01620960
3707.16777100,0.01526764
3709.09657837,0.01486854
3711.02538574,0.01378302
3712.95419312,0.01277128
3714.88300049,0.01544290
3716.81180786,0.01516889
3718.74061523,0.01536385
3720.66942261,0.01503492
3722.59822998,0.01440304
3724.52703735,0.01493933
3726.45584473,0.01371596
3728.38465210,0.01513468
3730.31345947,0.01490263
3732.24226685,0.01357117
3734.17107422,0.01323560
3736.09988159,0.01226691
3738.02868896,0.01321385
3739.95749634,0.01459687
3741.88630371,0.01524522
3743.81511108,0.01145708
3745.74391846,0.01064812
3747.67272583,0.01443194
3749.60153320,0.01214463
3751.53034058,0.01100522
3753.45914795,0.01308853
3755.38795532,0.01412501
3757.31676270,0.01477891
3759.24557007,0.01347560
3761.17437744,0.01400096
3763.10318481,0.01520210
3765.03199219,0.01394673
3766.96079956,0.01434905
3768.88960693,0.01414167
3770.81841431,0.01326585
3772.74722168,0.01471896
3774.67602905,0.01472267
3776.60483643,0.01473642
3778.53364380,0.01430373
3780.46245117,0.01355282
3782.39125854,0.01463409
3784.32006592,0.01432199
3786.24887329,0.01427371
3788.17768066,0.01459223
3790.10648804,0.01450215
3792.03529541,0.01441597
3793.96410278,0.01466187
3795.89291016,0.01367717
3797.82171753,0.01343650
3799.75052490,0.01430594
3801.67933228,0.01090693
3803.60813965,0.01309373
3805.53694702,0.01443896
3807.46575439,0.01138966
3809.39456177,0.01430288
3811.32336914,0.01399738
3813.25217651,0.01451987
3815.18098389,0.01291204
3817.10979126,0.01108639
3819.03859863,0.01448154
3820.96740601,0.01121035
3822.89621338,0.01198265
3824.82502075,0.01436742
3826.75382812,0.01283860
3828.68263550,0.01394637
3830.61144287,0.01322823
3832.54025024,0.01282037
3834.46905762,0.01307559
3836.39786499,0.01235584
3838.32667236,0.01102257
3840.25547974,0.01203067
3842.18428711,0.01317487
3844.11309448,0.01245650
3846.04190186,0.01368059
3847.97070923,0.01348738
3849.89951660,0.01347452
3851.82832397,0.01186759
3853.75713135,0.00845639
3855.68593872,0.01039691
3857.61474609,0.01346585
3859.54355347,0.01317382
3861.47236084,0.01290103
3863.40116821,0.01253550
3865.32997559,0.01163597
3867.25878296,0.01320585
3869.18759033,0.01184991
3871.11639770,0.01082269
3873.04520508,0.01319376
3874.97401245,0.01188271
3876.90281982,0.01309690
3878.83162720,0.01341231
3880.76043457,0.01110902
3882.68924194,0.01306148
3884.61804932,0.01210310
3886.54685669,0.01103086
3888.47566406,0.01324575
3890.40447144,0.01236377
3892.33327881,0.01146349
3894.26208618,0.01287570
3896.19089355,0.01313475
3898.11970093,0.01239655
3900.04850830,0.01164409
3901.97731567,0.01142188
3903.90612305,0.01137400
3905.83493042,0.01158016
3907.76373779,0.01284363
3909.69254517,0.01283365
3911.62135254,0.01265535
3913.55015991,0.01301082
3915.47896728,0.01246818
3917.40777466,0.01202220
3919.33658203,0.01188559
3921.26538940,0.01245384
3923.19419678,0.01246972
3925.12300415,0.01221978
3927.05181152,0.01246411
3928.98061890,0.01248930
3930.90942627,0.01222731
3932.83823364,0.01170253
3934.76704102,0.01226954
3936.69584839,0.01254164
3938.62465576,0.01238857
3940.55346313,0.01248387
3942.48227051,0.01192184
3944.41107788,0.01201855
3946.33988525,0.01222900
3948.26869263,0.01195145
3950.19750000,0.01198233
3952.12630737,0.01224920
3954.05511475,0.01228677
3955.98392212,0.01214468
3957.91272949,0.01213916
3959.84153687,0.01211706
3961.77034424,0.01201801
3963.69915161,0.01193599
3965.62795898,0.01208767
3967.55676636,0.01211229
3969.48557373,0.01203189
3971.41438110,0.01196207
3973.34318848,0.01192859
3975.27199585,0.01193273
3977.20080322,0.01187578
3979.12961060,0.01192971
3981.05841797,0.01184144
3982.98722534,0.01187237
3984.91603271,0.01181757
3986.84484009,0.01184311
3988.77364746,0.01184653
3990.70245483,0.01159821
3992.63126221,0.01173104
3994.56006958,0.01164434
3996.48887695,0.01163957
3998.41768433,0.01173412
4000.34649170,0.01165254
4002.27529907,0.01163128
4004.20410645,0.01156328
4006.13291382,0.01159504
4008.06172119,0.01149888
4009.99052856,0.01151761
4011.91933594,0.01146754
4013.84814331,0.01138757
4015.77695068,0.01145351
4017.70575806,0.01144617
4019.63456543,0.01138028
4021.56337280,0.01137039
4023.49218018,0.01143667
4025.42098755,0.01130669
4027.34979492,0.01140818
4029.27860229,0.01125718
4031.20740967,0.01117131
4033.13621704,0.01133765
4035.06502441,0.01121023
4036.99383179,0.01133321
4038.92263916,0.01118261
4040.85144653,0.01118617
4042.78025391,0.01121073
4044.70906128,0.01108185
4046.63786865,0.01110946
4048.56667603,0.01099931
4050.49548340,0.01115993
4052.42429077,0.01104611
4054.35309814,0.01102536
4056.28190552,0.01101546
4058.21071289,0.01092114
4060.13952026,0.01101881
4062.06832764,0.01084260
4063.99713501,0.01091347
4065.92594238,0.01088455
4067.85474976,0.01080723
4069.78355713,0.01081501
4071.71236450,0.01075362
4073.64117187,0.01072673
4075.56997925,0.01069779
4077.49878662,0.01072479
4079.42759399,0.01059628
4081.35640137,0.01067329
4083.28520874,0.01071368
4085.21401611,0.01070143
4087.14282349,0.01066453
4089.07163086,0.01060931
4091.00043823,0.01062291
4092.92924561,0.01043570
4094.85805298,0.01052605
4096.78686035,0.01057031
4098.71566772,0.01055597
4100.64447510,0.01047989
4102.57328247,0.01043042
4104.50208984,0.01050990
4106.43089722,0.01035970
4108.35970459,0.01039625
4110.28851196,0.01029968
4112.21731934,0.01032899
4114.14612671,0.01034054
4116.07493408,0.01021987
4118.00374145,0.01028504
4119.93254883,0.01014005
4121.86135620,0.01021018
4123.79016357,0.01019446
4125.71897095,0.01013810
4127.64777832,0.01012322
4129.57658569,0.01013277
4131.50539307,0.01022963
4133.43420044,0.00998633
4135.36300781,0.01002279
4137.29181519,0.01004455
4139.22062256,0.00992971
4141.14942993,0.01000441
4143.07823730,0.00996029
4145.00704468,0.00996475
4146.93585205,0.00998592
4148.86465942,0.00994336
4150.79346680,0.00988743
4152.72227417,0.00988653
4154.65108154,0.00981650
4156.57988892,0.00974246
4158.50869629,0.00975370
4160.43750366,0.00972828
4162.36631103,0.00972111
4164.29511841,0.00972056
4166.22392578,0.00971124
4168.15273315,0.00965637
4170.08154053,0.00965098
4172.01034790,0.00964136
4173.93915527,0.00964818
4175.86796265,0.00963365
4177.79677002,0.00956417
4179.72557739,0.00959123
4181.65438477,0.00957212
4183.58319214,0.00956097
4185.51199951,0.00952637
4187.44080688,0.00948539
4189.36961426,0.00945695
4191.29842163,0.00942591
4193.22722900,0.00939663
4195.15603638,0.00937364
4197.08484375,0.00942608
4199.01365112,0.00928608
4200.94245850,0.00929284
4202.87126587,0.00937276
4204.80007324,0.00920528
4206.72888062,0.00920895
4208.65768799,0.00924187
4210.58649536,0.00923098
4212.51530273,0.00924446
4214.44411011,0.00913953
4216.37291748,0.00907767
4218.30172485,0.00915249
4220.23053223,0.00916086
4222.15933960,0.00912265
4224.08814697,0.00905489
4226.01695435,0.00899835
4227.94576172,0.00906321
4229.87456909,0.00902902
4231.80337646,0.00895539
4233.73218384,0.00895699
4235.66099121,0.00903347
4237.58979858,0.00899891
4239.51860596,0.00891313
4241.44741333,0.00891880
4243.37622070,0.00887517
4245.30502808,0.00892088
4247.23383545,0.00882511
4249.16264282,0.00879107
4251.09145020,0.00884126
4253.02025757,0.00877516
4254.94906494,0.00876624
4256.87787231,0.00866122
4258.80667969,0.00872141
4260.73548706,0.00871251
4262.66429443,0.00869842
4264.59310181,0.00877172
4266.52190918,0.00861480
4268.45071655,0.00858449
4270.37952393,0.00859721
4272.30833130,0.00864669
4274.23713867,0.00867937
4276.16594604,0.00860510
4278.09475342,0.00853646
4280.02356079,0.00854956
4281.95236816,0.00856521
4283.88117554,0.00844570
4285.80998291,0.00849194
4287.73879028,0.00847546
4289.66759766,0.00844096
4291.59640503,0.00849667
4293.52521240,0.00838343
4295.45401978,0.00833583
4297.38282715,0.00839393
4299.31163452,0.00833945
4301.24044189,0.00823860
4303.16924927,0.00832234
4305.09805664,0.00828873
4307.02686401,0.00822950
4308.95567139,0.00825255
4310.88447876,0.00819629
4312.81328613,0.00819435
4314.74209351,0.00809698
4316.67090088,0.00820850
4318.59970825,0.00825939
4320.52851562,0.00804025
4322.45732300,0.00808484
4324.38613037,0.00815071
4326.31493774,0.00808348
4328.24374512,0.00803999
4330.17255249,0.00803233
4332.10135986,0.00800130
4334.03016724,0.00797289
4335.95897461,0.00797721
4337.88778198,0.00799553
4339.81658936,0.00795172
4341.74539673,0.00792099
4343.67420410,0.00791908
4345.60301147,0.00785623
4347.53181885,0.00792656
4349.46062622,0.00785397
4351.38943359,0.00782795
4353.31824097,0.00792102
4355.24704834,0.00780938
4357.17585571,0.00780649
4359.10466309,0.00778135
4361.03347046,0.00779455
4362.96227783,0.00774946
4364.89108520,0.00767138
4366.81989258,0.00780948
4368.74869995,0.00773425
4370.67750732,0.00765112
4372.60631470,0.00771302
4374.53512207,0.00767114
4376.46392944,0.00767575
4378.39273682,0.00769705
4380.32154419,0.00755260
4382.25035156,0.00754917
4384.17915894,0.00759448
4386.10796631,0.00751422
4388.03677368,0.00753720
4389.96558105,0.00744281
4391.89438843,0.00748218
4393.82319580,0.00754791
4395.75200317,0.00747305
4397.68081055,0.00745410
4399.60961792,0.00734016
4401.53842529,0.00744034
4403.46723267,0.00739762
4405.39604004,0.00726450
4407.32484741,0.00737446
4409.25365478,0.00733045
4411.18246216,0.00732020
4413.11126953,0.00729541
4415.04007690,0.00729849
4416.96888428,0.00730837
4418.89769165,0.00715841
4420.82649902,0.00721489
4422.75530640,0.00727948
4424.68411377,0.00718515
4426.61292114,0.00717408
4428.54172852,0.00716679
4430.47053589,0.00710413
4432.39934326,0.00709117
4434.32815063,0.00716244
4436.25695801,0.00713276
4438.18576538,0.00703448
4440.11457275,0.00706621
4442.04338013,0.00700170
4443.97218750,0.00691566
4445.90099487,0.00694972
4447.82980225,0.00700133
4449.75860962,0.00710807
4451.68741699,0.00704571
4453.61622437,0.00694220
4455.54503174,0.00701345
4457.47383911,0.00701219
4459.40264648,0.00690598
4461.33145386,0.00689930
4463.26026123,0.00692064
4465.18906860,0.00689021
4467.11787598,0.00687377
4469.04668335,0.00677737
4470.97549072,0.00682823
4472.90429810,0.00682781
4474.83310547,0.00670699
4476.76191284,0.00681406
4478.69072021,0.00678434
4480.61952759,0.00673616
4482.54833496,0.00675064
4484.47714233,0.00668614
4486.40594971,0.00670383
4488.33475708,0.00670867
4490.26356445,0.00661766
4492.19237183,0.00651318
4494.12117920,0.00659856
4496.04998657,0.00667716
4497.97879395,0.00660887
4499.90760132,0.00651270
4501.83640869,0.00652344
4503.76521606,0.00658163
4505.69402344,0.00650131
4507.62283081,0.00643771
4509.55163818,0.00641913
4511.48044556,0.00653223
4513.40925293,0.00651680
4515.33806030,0.00642570
4517.26686768,0.00650050
4519.19567505,0.00641248
4521.12448242,0.00642388
4523.05328979,0.00644573
4524.98209717,0.00639134
4526.91090454,0.00638870
4528.83971191,0.00628765
4530.76851929,0.00633509
4532.69732666,0.00638084
4534.62613403,0.00630807
4536.55494141,0.00629018
4538.48374878,0.00622215
4540.41255615,0.00617797
4542.34136353,0.00627929
4544.27017090,0.00629218
4546.19897827,0.00622340
4548.12778564,0.00619705
4550.05659302,0.00618914
4551.98540039,0.00624892
4553.91420776,0.00617416
4555.84301514,0.00613298
4557.77182251,0.00618143
4559.70062988,0.00608018
4561.62943726,0.00604698
4563.55824463,0.00607595
4565.48705200,0.00604902
4567.41585937,0.00606475
4569.34466675,0.00609407
4571.27347412,0.00597183
4573.20228149,0.00591287
4575.13108887,0.00598502
4577.05989624,0.00595710
4578.98870361,0.00595607
4580.91751099,0.00598485
4582.84631836,0.00592257
4584.77512573,0.00585277
4586.70393311,0.00590117
4588.63274048,0.00589250
4590.56154785,0.00584487
4592.49035522,0.00587911
4594.41916260,0.00590211
4596.34796997,0.00588688
4598.27677734,0.00576778
4600.20558472,0.00575627
4602.13439209,0.00574939
4604.06319946,0.00573111
4605.99200684,0.00580612
4607.92081421,0.00577360
4609.84962158,0.00572803
4611.77842895,0.00570165
4613.70723633,0.00573401
4615.63604370,0.00566883
4617.56485107,0.00565939
4619.49365845,0.00568933
4621.42246582,0.00559781
4623.35127319,0.00566925
4625.28008057,0.00561694
4627.20888794,0.00559230
4629.13769531,0.00559879
4631.06650269,0.00554800
4632.99531006,0.00558901
4634.92411743,0.00544322
4636.85292480,0.00543921
4638.78173218,0.00555214
4640.71053955,0.00552651
4642.63934692,0.00554157
4644.56815430,0.00553110
4646.49696167,0.00544699
4648.42576904,0.00551153
4650.35457642,0.00551799
4652.28338379,0.00539999
4654.21219116,0.00547076
4656.14099853,0.00538991
4658.06980591,0.00538346
4659.99861328,0.00544788
4661.92742065,0.00535542
4663.85622803,0.00536676
4665.78503540,0.00523953
4667.71384277,0.00524895
4669.64265015,0.00533507
4671.57145752,0.00524713
4673.50026489,0.00526396
4675.42907227,0.00534524
4677.35787964,0.00530547
4679.28668701,0.00525277
4681.21549438,0.00532546
4683.14430176,0.00528070
4685.07310913,0.00527171
4687.00191650,0.00519755
4688.93072388,0.00511813
4690.85953125,0.00520418
4692.78833862,0.00516361
4694.71714600,0.00519893
4696.64595337,0.00517144
4698.57476074,0.00514596
4700.50356812,0.00512455
4702.43237549,0.00504635
4704.36118286,0.00511851
4706.28999023,0.00508451
4708.21879761,0.00505200
4710.14760498,0.00502078
4712.07641235,0.00503966
4714.00521973,0.00504331
4715.93402710,0.00499067
4717.86283447,0.00507432
4719.79164185,0.00503033
4721.72044922,0.00499868
4723.64925659,0.00497419
4725.57806396,0.00495769
4727.50687134,0.00505508
4729.43567871,0.00503601
4731.36448608,0.00497408
4733.29329346,0.00493574
4735.22210083,0.00494429
4737.15090820,0.00494365
4739.07971558,0.00491440
4741.00852295,0.00493218
4742.93733032,0.00490219
4744.86613770,0.00482735
4746.79494507,0.00485726
4748.72375244,0.00486007
4750.65255981,0.00475900
4752.58136719,0.00479380
4754.51017456,0.00478426
4756.43898193,0.00473644
4758.36778931,0.00481118
4760.29659668,0.00481655
4762.22540405,0.00481864
4764.15421143,0.00476564
4766.08301880,0.00466503
4768.01182617,0.00470117
4769.94063354,0.00471771
4771.86944092,0.00468733
4773.79824829,0.00470228
4775.72705566,0.00470051
4777.65586304,0.00468389
4779.58467041,0.00465859
4781.51347778,0.00460928
4783.44228516,0.00459782
4785.37109253,0.00466155
4787.29989990,0.00460157
4789.22870728,0.00448199
4791.15751465,0.00456803
4793.08632202,0.00460794
4795.01512939,0.00456593
4796.94393677,0.00458241
4798.87274414,0.00457636
4800.80155151,0.00453093
4802.73035889,0.00451784
4804.65916626,0.00453124
4806.58797363,0.00441127
4808.51678101,0.00444672
4810.44558838,0.00451261
4812.37439575,0.00442518
4814.30320312,0.00444732
4816.23201050,0.00440119
4818.16081787,0.00445340
4820.08962524,0.00447124
4822.01843262,0.00432997
4823.94723999,0.00433964
4825.87604736,0.00434060
4827.80485474,0.00435245
4829.73366211,0.00438838
4831.66246948,0.00432244
4833.59127686,0.00429744
4835.52008423,0.00438124
4837.44889160,0.00434290
4839.37769897,0.00434199
4841.30650635,0.00434904
4843.23531372,0.00420473
4845.16412109,0.00426698
4847.09292847,0.00428189
4849.02173584,0.00424158
4850.95054321,0.00423529
4852.87935059,0.00420598
4854.80815796,0.00426088
4856.73696533,0.00416208
4858.66577270,0.00416264
4860.59458008,0.00421321
4862.52338745,0.00419296
4864.45219482,0.00422326
4866.38100220,0.00417431
4868.30980957,0.00413360
4870.23861694,0.00408294
4872.16742432,0.00410608
4874.09623169,0.00417684
4876.02503906,0.00415072
4877.95384644,0.00410859
4879.88265381,0.00413410
4881.81146118,0.00413191
4883.74026855,0.00408612
4885.66907593,0.00407759
4887.59788330,0.00404683
4889.52669067,0.00407458
4891.45549805,0.00405551
4893.38430542,0.00399266
4895.31311279,0.00398096
4897.24192017,0.00401435
4899.17072754,0.00400416
4901.09953491,0.00392988
4903.02834228,0.00401871
4904.95714966,0.00400307
4906.88595703,0.00396538
4908.81476440,0.00394981
4910.74357178,0.00387257
4912.67237915,0.00397241
4914.60118652,0.00395438
4916.52999390,0.00391933
4918.45880127,0.00390715
4920.38760864,0.00386035
4922.31641602,0.00391969
4924.24522339,0.00387256
4926.17403076,0.00380736
4928.10283813,0.00383985
4930.03164551,0.00383574
4931.96045288,0.00379792
4933.88926025,0.00381516
4935.81806763,0.00378517
4937.74687500,0.00379499
4939.67568237,0.00380644
4941.60448975,0.00376243
4943.53329712,0.00377098
4945.46210449,0.00370905
4947.39091187,0.00378777
4949.31971924,0.00380324
4951.24852661,0.00370210
4953.17733398,0.00374683
4955.10614136,0.00370702
4957.03494873,0.00369326
4958.96375610,0.00369856
4960.89256348,0.00364825
4962.82137085,0.00366998
4964.75017822,0.00367855
4966.67898560,0.00357538
4968.60779297,0.00363268
4970.53660034,0.00372605
4972.46540771,0.00359158
4974.39421509,0.00361613
4976.32302246,0.00365149
4978.25182983,0.00360594
4980.18063721,0.00358611
4982.10944458,0.00359012
4984.03825195,0.00357839
4985.96705933,0.00346760
4987.89586670,0.00352864
4989.82467407,0.00349670
4991.75348145,0.00347520
4993.68228882,0.00354829
4995.61109619,0.00346485
4997.53990356,0.00348215
4999.46871094,0.00348517
5001.39751831,0.00348957
5003.32632568,0.00347853
5005.25513306,0.00347546
5007.18394043,0.00351335
5009.11274780,0.00345360
5011.04155518,0.00346000
5012.97036255,0.00345717
5014.89916992,0.00344454
5016.82797729,0.00344908
5018.75678467,0.00343879
5020.68559204,0.00339114
5022.61439941,0.00337882
5024.54320679,0.00344465
5026.47201416,0.00337616
5028.40082153,0.00332143
5030.32962891,0.00334842
5032.25843628,0.00337293
5034.18724365,0.00338631
5036.11605103,0.00336056
5038.04485840,0.00331800
5039.97366577,0.00331176
5041.90247314,0.00333967
5043.83128052,0.00330711
5045.76008789,0.00330599
5047.68889526,0.00322470
5049.61770264,0.00318453
5051.54651001,0.00327685
5053.47531738,0.00321881
5055.40412476,0.00323273
5057.33293213,0.00327437
5059.26173950,0.00323970
5061.19054687,0.00323195
5063.11935425,0.00318899
5065.04816162,0.00319229
5066.97696899,0.00318355
5068.90577637,0.00319921
5070.83458374,0.00317797
5072.76339111,0.00314274
5074.69219849,0.00324368
5076.62100586,0.00319389
5078.54981323,0.00314814
5080.47862061,0.00319392
5082.40742798,0.00312464
5084.33623535,0.00312001
5086.26504272,0.00307979
5088.19385010,0.00306121
5090.12265747,0.00314088
5092.05146484,0.00312352
5093.98027222,0.00313527
5095.90907959,0.00318438
5097.83788696,0.00313042
5099.76669434,0.00305256
5101.69550171,0.00309740
5103.62430908,0.00307945
5105.55311645,0.00303408
5107.48192383,0.00307624
5109.41073120,0.00301400
5111.33953857,0.00303141
5113.26834595,0.00304286
5115.19715332,0.00298759
5117.12596069,0.00299728
5119.05476807,0.00297863
5120.98357544,0.00298803
5122.91238281,0.00298036
5124.84119019,0.00295826
5126.76999756,0.00288608
5128.69880493,0.00288266
5130.62761230,0.00288963
5132.55641968,0.00279840
5134.48522705,0.00285191
5136.41403442,0.00285971
5138.34284180,0.00290153
5140.27164917,0.00297183
5142.20045654,0.00285293
5144.12926392,0.00282412
5146.05807129,0.00290020
5147.98687866,0.00287145
5149.91568603,0.00279809
5151.84449341,0.00286023
5153.77330078,0.00286964
5155.70210815,0.00281088
5157.63091553,0.00286621
5159.55972290,0.00288409
5161.48853027,0.00284359
5163.41733765,0.00278801
5165.34614502,0.00277643
5167.27495239,0.00285070
5169.20375977,0.00280558
5171.13256714,0.00270598
5173.06137451,0.00282115
5174.99018188,0.00281081
5176.91898926,0.00269345
5178.84779663,0.00276820
5180.77660400,0.00275152
5182.70541138,0.00271640
5184.63421875,0.00270220
5186.56302612,0.00269774
5188.49183350,0.00268843
5190.42064087,0.00264447
5192.34944824,0.00274407
5194.27825562,0.00275345
5196.20706299,0.00270651
5198.13587036,0.00269829
5200.06467773,0.00266986
5201.99348511,0.00268118
5203.92229248,0.00268005
5205.85109985,0.00264524
5207.77990723,0.00260781
5209.70871460,0.00258875
5211.63752197,0.00254546
5213.56632935,0.00261557
5215.49513672,0.00261266
5217.42394409,0.00260534
5219.35275146,0.00270065
5221.28155884,0.00259168
5223.21036621,0.00257453
5225.13917358,0.00251160
5227.06798096,0.00244571
5228.99678833,0.00260949
5230.92559570,0.00259507
5232.85440308,0.00244487
5234.78321045,0.00246914
5236.71201782,0.00265837
5238.64082520,0.00258130
5240.56963257,0.00247622
5242.49843994,0.00256286
5244.42724731,0.00251431
5246.35605469,0.00250256
5248.28486206,0.00246668
5250.21366943,0.00245714
5252.14247681,0.00253830
5254.07128418,0.00246801
5256.00009155,0.00242082
5257.92889893,0.00246268
5259.85770630,0.00242868
5261.78651367,0.00244483
5263.71532104,0.00245977
5265.64412842,0.00241965
5267.57293579,0.00246884
5269.50174316,0.00239864
5271.43055054,0.00243077
5273.35935791,0.00251725
5275.28816528,0.00240376
5277.21697266,0.00246217
5279.14578003,0.00245249
5281.07458740,0.00240500
5283.00339478,0.00249259
5284.93220215,0.00242128
5286.86100952,0.00237769
5288.78981689,0.00241644
5290.71862427,0.00235586
5292.64743164,0.00231926
5294.57623901,0.00236016
5296.50504639,0.00236429
5298.43385376,0.00239132
5300.36266113,0.00233648
5302.29146851,0.00228836
5304.22027588,0.00239531
5306.14908325,0.00234914
5308.07789062,0.00227844
5310.00669800,0.00233499
5311.93550537,0.00231219
5313.86431274,0.00225410
5315.79312012,0.00227209
5317.72192749,0.00224515
5319.65073486,0.00222436
5321.57954224,0.00232269
5323.50834961,0.00233777
5325.43715698,0.00227368
5327.36596436,0.00224207
5329.29477173,0.00228220
5331.22357910,0.00229490
5333.15238647,0.00223761
5335.08119385,0.00224119
5337.01000122,0.00221515
5338.93880859,0.00216815
5340.86761597,0.00219977
5342.79642334,0.00222704
5344.72523071,0.00213440
5346.65403809,0.00213319
5348.58284546,0.00224468
5350.51165283,0.00223970
5352.44046020,0.00215222
5354.36926758,0.00205647
5356.29807495,0.00211973
5358.22688232,0.00217254
5360.15568970,0.00213006
5362.08449707,0.00209767
5364.01330444,0.00210298
5365.94211182,0.00217487
5367.87091919,0.00212327
5369.79972656,0.00211015
5371.72853394,0.00212868
5373.65734131,0.00213441
5375.58614868,0.00210140
5377.51495605,0.00205851
5379.44376343,0.00217690
5381.37257080,0.00216698
5383.30137817,0.00211514
5385.23018555,0.00202229
5387.15899292,0.00205905
5389.08780029,0.00214070
5391.01660767,0.00198700
5392.94541504,0.00202357
5394.87422241,0.00200986
5396.80302978,0.00207504
5398.73183716,0.00211544
5400.66064453,0.00201581
5402.58945190,0.00212903
5404.51825928,0.00202486
5406.44706665,0.00199829
5408.37587402,0.00200101
5410.30468140,0.00193171
5412.23348877,0.00198232
5414.16229614,0.00186752
5416.09110352,0.00192487
5418.01991089,0.00201454
5419.94871826,0.00198813
5421.87752563,0.00201462
5423.80633301,0.00196882
5425.73514038,0.00194375
5427.66394775,0.00195436
5429.59275513,0.00186890
5431.52156250,0.00184404
5433.45036987,0.00195917
5435.37917725,0.00189066
5437.30798462,0.00191584
5439.23679199,0.00195225
5441.16559936,0.00181623
5443.09440674,0.00188001
5445.02321411,0.00187223
5446.95202148,0.00193944
5448.88082886,0.00192707
5450.80963623,0.00177561
5452.73844360,0.00191735
5454.66725098,0.00189161
5456.59605835,0.00185823
5458.52486572,0.00190607
5460.45367310,0.00183360
5462.38248047,0.00184560
5464.31128784,0.00185244
5466.24009521,0.00189323
5468.16890259,0.00181695
5470.09770996,0.00179090
5472.02651733,0.00195370
5473.95532471,0.00190091
5475.88413208,0.00182699
5477.81293945,0.00181724
5479.74174683,0.00178754
5481.67055420,0.00183198
5483.59936157,0.00181709
5485.52816895,0.00179803
5487.45697632,0.00176957
5489.38578369,0.00179470
5491.31459106,0.00188851
5493.24339844,0.00179385
5495.17220581,0.00179259
5497.10101318,0.00182384
5499.02982056,0.00173029
5500.95862793,0.00182862
5502.88743530,0.00179595
5504.81624268,0.00169435
5506.74505005,0.00178820
5508.67385742,0.00180127
5510.60266479,0.00174425
5512.53147217,0.00173659
5514.46027954,0.00181122
5516.38908691,0.00174708
5518.31789429,0.00170161
5520.24670166,0.00182227
5522.17550903,0.00171687
5524.10431641,0.00163949
5526.03312378,0.00169376
5527.96193115,0.00167943
5529.89073853,0.00170663
5531.81954590,0.00172706
5533.74835327,0.00177391
5535.67716064,0.00176794
5537.60596802,0.00164564
5539.53477539,0.00166676
5541.46358276,0.00176745
5543.39239014,0.00169735
5545.32119751,0.00164469
5547.25000488,0.00169970
5549.17881226,0.00166528
5551.10761963,0.00163396
5553.03642700,0.00168361
5554.96523437,0.00169256
5556.89404175,0.00166147
5558.82284912,0.00163972
5560.75165649,0.00161527
5562.68046387,0.00161282
5564.60927124,0.00162626
5566.53807861,0.00168976
5568.46688599,0.00171539
5570.39569336,0.00164090
5572.32450073,0.00165384
5574.25330811,0.00159298
5576.18211548,0.00155766
5578.11092285,0.00156244
5580.03973022,0.00145661
5581.96853760,0.00160928
5583.89734497,0.00164201
5585.82615234,0.00153611
5587.75495972,0.00164024
5589.68376709,0.00162890
5591.61257446,0.00159931
5593.54138184,0.00156183
5595.47018921,0.00152326
5597.39899658,0.00156111
5599.32780395,0.00156994
5601.25661133,0.00156755
5603.18541870,0.00156342
5605.11422607,0.00156492
5607.04303345,0.00151519
5608.97184082,0.00153582
5610.90064819,0.00154352
5612.82945557,0.00153398
5614.75826294,0.00159637
5616.68707031,0.00153063
5618.61587769,0.00148170
5620.54468506,0.00147048
5622.47349243,0.00151851
5624.40229980,0.00157898
5626.33110718,0.00151925
5628.25991455,0.00154081
5630.18872192,0.00153398
5632.11752930,0.00150092
5634.04633667,0.00149506
5635.97514404,0.00146581
5637.90395142,0.00150178
5639.83275879,0.00150267
5641.76156616,0.00145854
5643.69037353,0.00144039
5645.61918091,0.00149092
5647.54798828,0.00149967
5649.47679565,0.00145554
5651.40560303,0.00149675
5653.33441040,0.00148694
5655.26321777,0.00148414
5657.19202515,0.00148787
5659.12083252,0.00141078
5661.04963989,0.00142986
5662.97844727,0.00148011
5664.90725464,0.00146029
5666.83606201,0.00142821
5668.76486938,0.00143050
5670.69367676,0.00143825
5672.62248413,0.00145108
5674.55129150,0.00142913
5676.48009888,0.00135587
5678.40890625,0.00140707
5680.33771362,0.00135241
5682.26652100,0.00131792
5684.19532837,0.00150937
5686.12413574,0.00145628
5688.05294311,0.00137127
5689.98175049,0.00135515
5691.91055786,0.00130219
5693.83936523,0.00141596
5695.76817261,0.00140115
5697.69697998,0.00132538
5699.62578735,0.00140544
5701.55459473,0.00143630
5703.48340210,0.00136151
5705.41220947,0.00131789
5707.34101685,0.00133893
5709.26982422,0.00132123
5711.19863159,0.00130105
5713.12743896,0.00130148
5715.05624634,0.00129955
5716.98505371,0.00133371
5718.91386108,0.00135104
5720.84266846,0.00127937
5722.77147583,0.00126422
5724.70028320,0.00132019
5726.62909058,0.00132598
5728.55789795,0.00132564
5730.48670532,0.00130811
5732.41551270,0.00127617
5734.34432007,0.00123223
5736.27312744,0.00131224
5738.20193481,0.00133092
5740.13074219,0.00122848
5742.05954956,0.00132657
5743.98835693,0.00130429
5745.91716431,0.00124809
5747.84597168,0.00126427
5749.77477905,0.00124170
5751.70358643,0.00127215
5753.63239380,0.00120583
5755.56120117,0.00126959
5757.49000854,0.00127389
5759.41881592,0.00118189
5761.34762329,0.00123751
5763.27643066,0.00126549
5765.20523804,0.00126677
5767.13404541,0.00120168
5769.06285278,0.00120974
5770.99166016,0.00117304
5772.92046753,0.00116397
5774.84927490,0.00126908
5776.77808228,0.00120295
5778.70688965,0.00118388
5780.63569702,0.00121338
5782.56450439,0.00124234
5784.49331177,0.00122464
5786.42211914,0.00122308
5788.35092651,0.00127521
5790.27973389,0.00116636
5792.20854126,0.00114030
5794.13734863,0.00114300
5796.06615601,0.00114082
5797.99496338,0.00122799
5799.92377075,0.00123036
5801.85257812,0.00118512
5803.78138550,0.00112443
5805.71019287,0.00113095
5807.63900024,0.00119275
5809.56780762,0.00114737
5811.49661499,0.00110379
5813.42542236,0.00117556
5815.35422974,0.00111291
5817.28303711,0.00105790
5819.21184448,0.00114972
5821.14065186,0.00109592
5823.06945923,0.00109337
5824.99826660,0.00113933
5826.92707397,0.00114679
5828.85588135,0.00115318
5830.78468872,0.00104497
5832.71349609,0.00104313
5834.64230347,0.00111066
5836.57111084,0.00113745
5838.49991821,0.00115528
5840.42872559,0.00114546
5842.35753296,0.00114328
5844.28634033,0.00110016
5846.21514770,0.00106782
5848.14395508,0.00105045
5850.07276245,0.00106776
5852.00156982,0.00111010
5853.93037720,0.00106341
5855.85918457,0.00103880
5857.78799194,0.00106899
5859.71679932,0.00106911
5861.64560669,0.00104489
5863.57441406,0.00101212
5865.50322144,0.00105637
5867.43202881,0.00110727
5869.36083618,0.00105343
5871.28964355,0.00104653
5873.21845093,0.00107962
5875.14725830,0.00104608
5877.07606567,0.00102113
5879.00487305,0.00103511
5880.93368042,0.00104774
5882.86248779,0.00104902
5884.79129517,0.00102828
5886.72010254,0.00101148
5888.64890991,0.00105966
5890.57771728,0.00103749
5892.50652466,0.00098010
5894.43533203,0.00104144
5896.36413940,0.00101226
5898.29294678,0.00094961
5900.22175415,0.00099527
5902.15056152,0.00099224
5904.07936890,0.00097499
5906.00817627,0.00098379
5907.93698364,0.00097549
5909.86579102,0.00095947
5911.79459839,0.00096085
5913.72340576,0.00097485
5915.65221313,0.00094374
5917.58102051,0.00097038
5919.50982788,0.00098683
5921.43863525,0.00093528
5923.36744263,0.00097948
5925.29625000,0.00098013
5927.22505737,0.00098944
5929.15386475,0.00097565
5931.08267212,0.00090396
5933.01147949,0.00098204
5934.94028686,0.00093697
5936.86909424,0.00091394
5938.79790161,0.00097895
5940.72670898,0.00092027
5942.65551636,0.00093019
5944.58432373,0.00094339
5946.51313110,0.00098153
5948.44193848,0.00094997
5950.37074585,0.00091520
5952.29955322,0.00097075
5954.22836060,0.00088351
5956.15716797,0.00089426
5958.08597534,0.00094917
5960.01478271,0.00091315
5961.94359009,0.00091910
5963.87239746,0.00090583
5965.80120483,0.00090661
5967.73001221,0.00090035
5969.65881958,0.00083782
5971.58762695,0.00084022
5973.51643433,0.00091294
5975.44524170,0.00087381
5977.37404907,0.00085078
5979.30285645,0.00088124
5981.23166382,0.00086994
5983.16047119,0.00091991
5985.08927856,0.00089627
5987.01808594,0.00085160
5988.94689331,0.00091160
5990.87570068,0.00094460
5992.80450806,0.00088604
5994.73331543,0.00082976
5996.66212280,0.00083868
5998.59093018,0.00085841
6000.51973755,0.00088513
