399.26312622,0.00066071
401.19193359,0.00077102
403.12074097,0.00024723
405.04954834,0.00050843
406.97835571,0.00102829
408.90716309,0.00066660
410.83597046,0.00107800
412.76477783,0.00108964
414.69358521,0.00104817
416.62239258,0.00118598
418.55119995,0.00045356
420.48000732,0.00087890
422.40881470,0.00138605
424.33762207,0.00136283
426.26642944,0.00135244
428.19523682,0.00111033
430.12404419,0.00102717
432.05285156,0.00103934
433.98165894,0.00106010
435.91046631,0.00095864
437.83927368,0.00096960
439.76808105,0.00070296
441.69688843,0.00077787
443.62569580,0.00077785
445.55450317,0.00064460
447.48331055,0.00108076
449.41211792,0.00088467
451.34092529,0.00089455
453.26973267,0.00084055
455.19854004,0.00061228
457.12734741,0.00067180
459.05615479,0.00052765
460.98496216,0.00076794
462.91376953,0.00073741
464.84257690,0.00044120
466.77138428,0.00069745
468.70019165,0.00108735
470.62899902,0.00069961
472.55780640,0.00066807
474.48661377,0.00080173
476.41542114,0.00019660
478.34422852,0.00038021
480.27303589,0.00026379
482.20184326,0.00009498
484.13065063,0.00037283
486.05945801,0.00023981
487.98826538,0.00043914
489.91707275,0.00044447
491.84588013,0.00020903
493.77468750,0.00032330
495.70349487,0.00063412
497.63230225,0.00029057
499.56110962,0.00016987
501.48991699,0.00018759
503.41872437,-0.00027091
505.34753174,0.00004029
507.27633911,-0.00001641
509.20514648,-0.00012101
511.13395386,0.00000607
513.06276123,0.00005196
514.99156860,0.00014172
516.92037598,-0.00016068
518.84918335,-0.00001688
520.77799072,-0.00017910
522.70679810,0.00011809
524.63560547,0.00051071
526.56441284,0.00041379
528.49322021,0.00050448
530.42202759,0.00007150
532.35083496,0.00047127
534.27964233,0.00022868
536.20844971,-0.00007564
538.13725708,0.00041544
540.06606445,0.00007098
541.99487183,0.00050154
543.92367920,0.00014090
545.85248657,-0.00016997
547.78129395,0.00034060
549.71010132,0.00000599
551.63890869,0.00042715
553.56771606,0.00043880
555.49652344,0.00016979
557.42533081,0.00041770
559.35413818,0.00003476
561.28294556,-0.00011320
563.21175293,0.00025081
565.14056030,0.00031224
567.06936768,0.00009743
568.99817505,0.00020175
570.92698242,0.00016250
572.85578979,0.00020615
574.78459717,0.00025156
576.71340454,0.00014321
578.64221191,0.00018034
580.57101929,0.00001457
582.49982666,0.00044498
584.42863403,0.00016689
586.35744141,-0.00007558
588.28624878,0.00047891
590.21505615,-0.00001560
592.14386353,0.00006857
594.07267090,0.00024043
596.00147827,0.00013207
597.93028564,0.00028858
599.85909302,0.00010591
601.78790039,0.00026102
603.71670776,0.00005582
605.64551514,0.00013864
607.57432251,0.00052169
609.50312988,0.00032274
611.43193726,0.00034089
613.36074463,0.00039698
615.28955200,-0.00009531
617.21835938,-0.00010039
619.14716675,0.00035233
621.07597412,0.00003783
623.00478149,-0.00009862
624.93358887,0.00003638
626.86239624,0.00001936
628.79120361,-0.00002143
630.72001099,0.00017827
632.64881836,0.00079406
634.57762573,0.00070509
636.50643311,0.00067936
638.43524048,0.00106017
640.36404785,0.00069082
642.29285522,0.00087054
644.22166260,0.00133914
646.15046997,0.00108150
648.07927734,0.00091866
650.00808472,0.00130980
651.93689209,0.00182300
653.86569946,0.00159950
655.79450684,0.00146835
657.72331421,0.00153841
659.65212158,0.00136169
661.58092896,0.00149744
663.50973633,0.00178930
665.43854370,0.00186446
667.36735107,0.00139614
669.29615845,0.00150188
671.22496582,0.00205137
673.15377319,0.00201688
675.08258057,0.00198998
677.01138794,0.00198914
678.94019531,0.00214969
680.86900269,0.00220385
682.79781006,0.00215037
684.72661743,0.00227296
686.65542480,0.00230013
688.58423218,0.00214460
690.51303955,0.00208700
692.44184692,0.00228164
694.37065430,0.00224410
696.29946167,0.00277526
698.22826904,0.00335665
700.15707642,0.00334330
702.08588379,0.00337489
704.01469116,0.00317259
705.94349854,0.00303827
707.87230591,0.00244895
709.80111328,0.00191726
711.72992065,0.00159630
713.65872803,0.00094145
715.58753540,0.00076363
717.51634277,0.00065201
719.44515015,0.00056393
721.37395752,0.00022032
723.30276489,0.00016005
725.23157227,0.00017269
727.16037964,-0.00030488
729.08918701,0.00018038
731.01799438,0.00027666
732.94680176,-0.00003467
734.87560913,0.00021335
736.80441650,0.00012110
738.73322388,0.00016911
740.66203125,0.00038871
742.59083862,0.00021487
744.51964600,0.00003752
746.44845337,0.00037322
748.37726074,0.00041400
750.30606812,0.00052212
752.23487549,0.00054724
754.16368286,0.00010552
756.09249023,0.00038013
758.02129761,0.00027094
759.95010498,0.00026496
761.87891235,0.00054664
763.80771973,0.00023921
765.73652710,0.00015236
767.66533447,0.00005670
769.59414185,0.00020710
771.52294922,0.00027036
773.45175659,0.00058624
775.38056396,0.00051537
777.30937134,0.00009055
779.23817871,0.00058872
781.16698608,0.00024155
783.09579346,0.00031658
785.02460083,0.00062441
786.95340820,0.00024663
788.88221558,0.00046522
790.81102295,0.00011049
792.73983032,0.00033462
794.66863770,0.00058331
796.59744507,0.00040926
798.52625244,0.00069869
800.45505981,0.00020289
802.38386719,0.00046075
804.31267456,0.00069039
806.24148193,0.00034099
808.17028931,0.00048720
810.09909668,0.00025229
812.02790405,0.00039882
813.95671143,0.00039384
815.88551880,0.00042903
817.81432617,0.00051763
819.74313354,0.00013303
821.67194092,0.00041281
823.60074829,0.00036485
825.52955566,0.00017488
827.45836304,0.00029245
829.38717041,0.00054278
831.31597778,0.00082476
833.24478516,0.00056688
835.17359253,0.00055346
837.10239990,0.00058367
839.03120728,0.00082517
840.96001465,0.00084754
842.88882202,0.00046043
844.81762939,0.00087917
846.74643677,0.00091962
848.67524414,0.00063896
850.60405151,0.00080875
852.53285889,0.00068549
854.46166626,0.00058611
856.39047363,0.00067469
858.31928101,0.00041574
860.24808838,0.00031455
862.17689575,0.00036294
864.10570313,0.00026671
866.03451050,0.00061049
867.96331787,0.00044214
869.89212524,0.00024126
871.82093262,0.00054575
873.74973999,0.00036829
875.67854736,0.00045299
877.60735474,0.00037830
879.53616211,0.00027295
881.46496948,0.00042579
883.39377686,0.00016116
885.32258423,0.00028076
887.25139160,0.00056012
889.18019897,0.00060627
891.10900635,0.00039480
893.03781372,0.00019961
894.96662109,0.00038050
896.89542847,0.00042939
898.82423584,0.00045885
900.75304321,0.00047785
902.68185059,0.00036502
904.61065796,0.00025621
906.53946533,0.00042618
908.46827271,0.00050750
910.39708008,0.00049484
912.32588745,0.00088901
914.25469482,0.00081274
916.18350220,0.00053895
918.11230957,0.00057000
920.04111694,0.00064475
921.96992432,0.00090670
923.89873169,0.00100344
925.82753906,0.00097329
927.75634644,0.00089270
929.68515381,0.00079734
931.61396118,0.00085010
933.54276855,0.00101734
935.47157593,0.00120139
937.40038330,0.00109996
939.32919067,0.00134414
941.25799805,0.00154324
943.18680542,0.00120738
945.11561279,0.00123626
947.04442017,0.00121113
948.97322754,0.00140227
950.90203491,0.00155783
952.83084229,0.00127328
954.75964966,0.00135691
956.68845703,0.00128104
958.61726440,0.00135112
960.54607178,0.00137203
962.47487915,0.00122013
964.40368652,0.00124856
966.33249390,0.00109291
968.26130127,0.00125002
970.19010864,0.00143519
972.11891602,0.00166270
974.04772339,0.00164682
975.97653076,0.00155686
977.90533813,0.00194178
979.83414551,0.00208718
981.76295288,0.00216560
983.69176025,0.00237435
985.62056763,0.00269752
987.54937500,0.00263415
989.47818237,0.00291975
991.40698975,0.00350206
993.33579712,0.00361422
995.26460449,0.00426378
997.19341187,0.00458462
999.12221924,0.00488592
1001.05102661,0.00533703
1002.97983398,0.00560770
1004.90864136,0.00605743
1006.83744873,0.00625909
1008.76625610,0.00683795
1010.69506348,0.00687166
1012.62387085,0.00713414
1014.55267822,0.00806855
1016.48148560,0.00825620
1018.41029297,0.00848563
1020.33910034,0.00874678
1022.26790771,0.00922280
1024.19671509,0.00970769
1026.12552246,0.01010646
1028.05432983,0.01056996
1029.98313721,0.01074116
1031.91194458,0.01111183
1033.84075195,0.01123459
1035.76955933,0.01119615
1037.69836670,0.01133579
1039.62717407,0.01155520
1041.55598145,0.01154067
1043.48478882,0.01128137
1045.41359619,0.01135058
1047.34240356,0.01121244
1049.27121094,0.01096258
1051.20001831,0.01079669
1053.12882568,0.01062025
1055.05763306,0.01054723
1056.98644043,0.01003626
1058.91524780,0.00967742
1060.84405518,0.00989787
1062.77286255,0.00959160
1064.70166992,0.00896873
1066.63047729,0.00869085
1068.55928467,0.00829726
1070.48809204,0.00798866
1072.41689941,0.00777382
1074.34570679,0.00725388
1076.27451416,0.00686111
1078.20332153,0.00676868
1080.13212891,0.00646151
1082.06093628,0.00617697
1083.98974365,0.00595593
1085.91855103,0.00550895
1087.84735840,0.00551618
1089.77616577,0.00536224
1091.70497314,0.00494134
1093.63378052,0.00468892
1095.56258789,0.00448794
1097.49139526,0.00464609
1099.42020264,0.00432318
1101.34901001,0.00411435
1103.27781738,0.00418399
1105.20662476,0.00414020
1107.13543213,0.00420259
1109.06423950,0.00378880
1110.99304687,0.00383280
1112.92185425,0.00388255
1114.85066162,0.00364963
1116.77946899,0.00383714
1118.70827637,0.00399537
1120.63708374,0.00398201
1122.56589111,0.00388417
1124.49469849,0.00407422
1126.42350586,0.00395879
1128.35231323,0.00400563
1130.28112061,0.00428473
1132.20992798,0.00433421
1134.13873535,0.00458187
1136.06754272,0.00454394
1137.99635010,0.00496707
1139.92515747,0.00525496
1141.85396484,0.00535777
1143.78277222,0.00587163
1145.71157959,0.00586191
1147.64038696,0.00633339
1149.56919434,0.00691658
1151.49800171,0.00706385
1153.42680908,0.00735009
1155.35561646,0.00768233
1157.28442383,0.00816697
1159.21323120,0.00832461
1161.14203857,0.00871686
1163.07084595,0.00935807
1164.99965332,0.00938753
1166.92846069,0.00966203
1168.85726807,0.01016879
1170.78607544,0.01040343
1172.71488281,0.01068215
1174.64369019,0.01111073
1176.57249756,0.01172753
1178.50130493,0.01201521
1180.43011230,0.01247497
1182.35891968,0.01314524
1184.28772705,0.01351007
1186.21653442,0.01444858
1188.14534180,0.01509832
1190.07414917,0.01549345
1192.00295654,0.01637481
1193.93176392,0.01706260
1195.86057129,0.01785175
1197.78937866,0.01871121
1199.71818604,0.01942378
1201.64699341,0.02014956
1203.57580078,0.02114398
1205.50460815,0.02191607
1207.43341553,0.02264584
1209.36222290,0.02361057
1211.29103027,0.02411979
1213.21983765,0.02479618
1215.14864502,0.02534412
1217.07745239,0.02595010
1219.00625977,0.02653570
1220.93506714,0.02676762
1222.86387451,0.02744254
1224.79268188,0.02760595
1226.72148926,0.02768429
1228.65029663,0.02791483
1230.57910400,0.02804227
1232.50791138,0.02827609
1234.43671875,0.02805753
1236.36552612,0.02805981
1238.29433350,0.02812814
1240.22314087,0.02804254
1242.15194824,0.02788777
1244.08075562,0.02779112
1246.00956299,0.02779739
1247.93837036,0.02749344
1249.86717773,0.02736020
1251.79598511,0.02712581
1253.72479248,0.02684100
1255.65359985,0.02665066
1257.58240723,0.02632492
1259.51121460,0.02595197
1261.44002197,0.02546900
1263.36882935,0.02515846
1265.29763672,0.02493447
1267.22644409,0.02474635
1269.15525146,0.02428794
1271.08405884,0.02390727
1273.01286621,0.02361424
1274.94167358,0.02298214
1276.87048096,0.02279466
1278.79928833,0.02237308
1280.72809570,0.02185005
1282.65690308,0.02158319
1284.58571045,0.02099976
1286.51451782,0.02076213
1288.44332520,0.02043242
1290.37213257,0.02006293
1292.30093994,0.02000428
1294.22974731,0.01976616
1296.15855469,0.01960702
1298.08736206,0.01966122
1300.01616943,0.01986571
1301.94497681,0.01982618
1303.87378418,0.01990998
1305.80259155,0.02037526
1307.73139893,0.02057169
1309.66020630,0.02084023
1311.58901367,0.02111267
1313.51782104,0.02139450
1315.44662842,0.02200800
1317.37543579,0.02244851
1319.30424316,0.02300579
1321.23305054,0.02391821
1323.16185791,0.02450968
1325.09066528,0.02509501
1327.01947266,0.02609426
1328.94828003,0.02673166
1330.87708740,0.02737903
1332.80589478,0.02815601
1334.73470215,0.02851519
1336.66350952,0.02872366
1338.59231689,0.02814674
1340.52112427,0.02852669
1342.44993164,0.03003822
1344.37873901,0.03011861
1346.30754639,0.03016296
1348.23635376,0.03009658
1350.16516113,0.02991679
1352.09396851,0.03004266
1354.02277588,0.02936178
1355.95158325,0.02924586
1357.88039062,0.02915248
1359.80919800,0.02858225
1361.73800537,0.02711674
1363.66681274,0.02669245
1365.59562012,0.02843379
1367.52442749,0.02758313
1369.45323486,0.02742924
1371.38204224,0.02802956
1373.31084961,0.02616287
1375.23965698,0.02637986
1377.16846436,0.02715757
1379.09727173,0.02723018
1381.02607910,0.02729554
1382.95488647,0.02734905
1384.88369385,0.02731306
1386.81250122,0.02575715
1388.74130859,0.02625871
1390.67011597,0.02875808
1392.59892334,0.02792472
1394.52773071,0.02565711
1396.45653809,0.02718486
1398.38534546,0.02705591
1400.31415283,0.02686859
1402.24296021,0.02977068
1404.17176758,0.02755995
1406.10057495,0.02774626
1408.02938232,0.02928488
1409.95818970,0.02790928
1411.88699707,0.02855633
1413.81580444,0.02735338
1415.74461182,0.02825132
1417.67341919,0.02507958
1419.60222656,0.02189375
1421.53103394,0.02630660
1423.45984131,0.02521856
1425.38864868,0.02438855
1427.31745605,0.02501365
1429.24626343,0.02269769
1431.17507080,0.02223423
1433.10387817,0.02286869
1435.03268555,0.02075405
1436.96149292,0.01723634
1438.89030029,0.02004923
1440.81910767,0.02084919
1442.74791504,0.01908921
1444.67672241,0.02029474
1446.60552979,0.01839677
1448.53433716,0.01849661
1450.46314453,0.01934401
1452.39195190,0.01965274
1454.32075928,0.02054229
1456.24956665,0.01650219
1458.17837402,0.01678974
1460.10718140,0.02332080
1462.03598877,0.02514398
1463.96479614,0.02449018
1465.89360352,0.02516675
1467.82241089,0.02928641
1469.75121826,0.03174582
1471.68002563,0.02710069
1473.60883301,0.02857101
1475.53764038,0.03330020
1477.46644775,0.03594305
1479.39525513,0.04006146
1481.32406250,0.04035256
1483.25286987,0.04288201
1485.18167725,0.04409648
1487.11048462,0.04284463
1489.03929199,0.04239038
1490.96809937,0.04236040
1492.89690674,0.05064953
1494.82571411,0.04924739
1496.75452148,0.04307215
1498.68332886,0.04940075
1500.61213623,0.05115986
1502.54094360,0.05559526
1504.46975098,0.05171144
1506.39855835,0.03517157
1508.32736572,0.04459088
1510.25617310,0.05373637
1512.18498047,0.05208528
1514.11378784,0.05717175
1516.04259521,0.05036713
1517.97140259,0.05270879
1519.90020996,0.05084336
1521.82901733,0.04271397
1523.75782471,0.05428668
1525.68663208,0.05313862
1527.61543945,0.05271787
1529.54424683,0.05976564
1531.47305420,0.05686554
1533.40186157,0.05119293
1535.33066895,0.05515075
1537.25947632,0.05968090
1539.18828369,0.04004093
1541.11709106,0.04210989
1543.04589844,0.05242871
1544.97470581,0.04970971
1546.90351318,0.06105655
1548.83232056,0.05638710
1550.76112793,0.05798410
1552.68993530,0.05801386
1554.61874268,0.05160960
1556.54755005,0.05607067
1558.47635742,0.03691740
1560.40516479,0.04044563
1562.33397217,0.06173541
1564.26277954,0.05750660
1566.19158691,0.05963074
1568.12039429,0.05880205
1570.04920166,0.05089239
1571.97800903,0.06074198
1573.90681641,0.06147246
1575.83562378,0.04681577
1577.76443115,0.05419661
1579.69323853,0.06265069
1581.62204590,0.05956471
1583.55085327,0.06111627
1585.47966064,0.06048486
1587.40846802,0.06099215
1589.33727539,0.06023636
1591.26608276,0.06030096
1593.19489014,0.06039578
1595.12369751,0.05975295
1597.05250488,0.06059549
1598.98131226,0.06014548
1600.91011963,0.06082375
1602.83892700,0.05928421
1604.76773437,0.06041463
1606.69654175,0.05951910
1608.62534912,0.05922364
1610.55415649,0.05941749
1612.48296387,0.05993526
1614.41177124,0.06076801
1616.34057861,0.04791284
1618.26938599,0.05286634
1620.19819336,0.06330924
1622.12700073,0.05475256
1624.05580811,0.05504672
1625.98461548,0.05839944
1627.91342285,0.05778113
1629.84223022,0.05755989
1631.77103760,0.06229873
1633.69984497,0.05661592
1635.62865234,0.04489149
1637.55745972,0.05384771
1639.48626709,0.06044553
1641.41507446,0.05876121
1643.34388184,0.06068658
1645.27268921,0.05363240
1647.20149658,0.04565459
1649.13030396,0.05935798
1651.05911133,0.05608879
1652.98791870,0.03281745
1654.91672607,0.04757503
1656.84553345,0.06211095
1658.77434082,0.05937079
1660.70314819,0.06114561
1662.63195557,0.05445719
1664.56076294,0.05819267
1666.48957031,0.06330674
1668.41837769,0.05382375
1670.34718506,0.05192476
1672.27599243,0.06042898
1674.20479980,0.05491028
1676.13360718,0.05207417
1678.06241455,0.06200314
1679.99122192,0.05937097
1681.92002930,0.05815176
1683.84883667,0.04562014
1685.77764404,0.04519872
1687.70645142,0.06545062
1689.63525879,0.05558578
1691.56406616,0.06216548
1693.49287354,0.06359841
1695.42168091,0.04383659
1697.35048828,0.05630839
1699.27929565,0.04825197
1701.20810303,0.04229517
1703.13691040,0.06137125
1705.06571777,0.05539783
1706.99452515,0.05589851
1708.92333252,0.06211337
1710.85213989,0.05944964
1712.78094727,0.06031971
1714.70975464,0.05496360
1716.63856201,0.04867171
1718.56736938,0.04772335
1720.49617676,0.05829436
1722.42498413,0.06140511
1724.35379150,0.05618280
1726.28259888,0.06223077
1728.21140625,0.05670618
1730.14021362,0.05700495
1732.06902100,0.05585896
1733.99782837,0.04006248
1735.92663574,0.05221771
1737.85544312,0.05896323
1739.78425049,0.05119284
1741.71305786,0.05662366
1743.64186523,0.05741375
1745.57067261,0.05749242
1747.49947998,0.05769221
1749.42828735,0.05475428
1751.35709473,0.05203909
1753.28590210,0.05862776
1755.21470947,0.06197288
1757.14351685,0.05546853
1759.07232422,0.06208071
1761.00113159,0.05751607
1762.92993896,0.05516802
1764.85874634,0.06503569
1766.78755371,0.05741734
1768.71636108,0.05807308
1770.64516846,0.05750571
1772.57397583,0.05067067
1774.50278320,0.05783701
1776.43159058,0.06160171
1778.36039795,0.06060718
1780.28920532,0.05964583
1782.21801270,0.06030361
1784.14682007,0.06011245
1786.07562744,0.05881043
1788.00443481,0.06255162
1789.93324219,0.06049975
1791.86204956,0.05359204
1793.79085693,0.05633294
1795.71966431,0.06146950
1797.64847168,0.06057066
1799.57727905,0.05936389
1801.50608643,0.05812582
1803.43489380,0.06044377
1805.36370117,0.06214342
1807.29250854,0.06110672
1809.22131592,0.06129038
1811.15012329,0.05934959
1813.07893066,0.06172469
1815.00773804,0.06197722
1816.93654541,0.06100538
1818.86535278,0.06167570
1820.79416016,0.06130009
1822.72296753,0.06254819
1824.65177490,0.05756649
1826.58058228,0.06008456
1828.50938965,0.06039929
1830.43819702,0.05567356
1832.36700439,0.06186883
1834.29581177,0.06144724
1836.22461914,0.06123721
1838.15342651,0.06113918
1840.08223389,0.06153339
1842.01104126,0.06153835
1843.93984863,0.05322310
1845.86865601,0.05749036
1847.79746338,0.06137781
1849.72627075,0.06012238
1851.65507812,0.06208048
1853.58388550,0.06046669
1855.51269287,0.06156116
1857.44150024,0.06097817
1859.37030762,0.06056358
1861.29911499,0.06098273
1863.22792236,0.06015854
1865.15672974,0.06111284
1867.08553711,0.05842395
1869.01434448,0.05561887
1870.94315186,0.05830851
1872.87195923,0.06105476
1874.80076660,0.06000713
1876.72957397,0.06041060
1878.65838135,0.06022069
1880.58718872,0.05967245
1882.51599609,0.06044509
1884.44480347,0.05929920
1886.37361084,0.06036435
1888.30241821,0.05861341
1890.23122559,0.05715168
1892.16003296,0.06002212
1894.08884033,0.05892164
1896.01764771,0.05869229
1897.94645508,0.05957270
1899.87526245,0.05928384
1901.80406982,0.05948012
1903.73287720,0.05891420
1905.66168457,0.05932263
1907.59049194,0.05862325
1909.51929932,0.05816479
1911.44810669,0.05855094
1913.37691406,0.05860389
1915.30572144,0.05929681
1917.23452881,0.05633166
1919.16333618,0.05640547
1921.09214355,0.05886092
1923.02095093,0.05657813
1924.94975830,0.05805562
1926.87856567,0.05887673
1928.80737305,0.05794080
1930.73618042,0.05890241
1932.66498779,0.05770972
1934.59379517,0.05842444
1936.52260254,0.05817798
1938.45140991,0.05815682
1940.38021729,0.05839240
1942.30902466,0.05604437
1944.23783203,0.05721590
1946.16663940,0.05809147
1948.09544678,0.05781285
1950.02425415,0.05809835
1951.95306152,0.05784012
1953.88186890,0.05810624
1955.81067627,0.05765910
1957.73948364,0.05786705
1959.66829102,0.05801370
1961.59709839,0.05759758
1963.52590576,0.05780708
1965.45471313,0.05746227
1967.38352051,0.05673560
1969.31232788,0.05736702
1971.24113525,0.05786116
1973.16994263,0.05737223
1975.09875000,0.05765506
1977.02755737,0.05732811
1978.95636475,0.05744516
1980.88517212,0.05749920
1982.81397949,0.05706085
1984.74278687,0.05747509
1986.67159424,0.05692744
1988.60040161,0.05698626
1990.52920898,0.05643316
1992.45801636,0.05554760
1994.38682373,0.05667921
1996.31563110,0.05689000
1998.24443848,0.05650608
2000.17324585,0.05650657
2002.10205322,0.05630916
2004.03086060,0.05630798
2005.95966797,0.05623358
2007.88847534,0.05604220
2009.81728271,0.05602679
2011.74609009,0.05587972
2013.67489746,0.05576180
2015.60370483,0.05541663
2017.53251221,0.05496525
2019.46131958,0.05542371
2021.39012695,0.05539670
2023.31893433,0.05519514
2025.24774170,0.05532165
2027.17654907,0.05499527
2029.10535645,0.05488439
2031.03416382,0.05477010
2032.96297119,0.05482680
2034.89177856,0.05457399
2036.82058594,0.05440818
2038.74939331,0.05450287
2040.67820068,0.05398146
2042.60700806,0.05408756
2044.53581543,0.05419106
2046.46462280,0.05392016
2048.39343018,0.05393505
2050.32223755,0.05375708
2052.25104492,0.05372673
2054.17985229,0.05365594
2056.10865967,0.05344790
2058.03746704,0.05339745
2059.96627441,0.05326147
2061.89508179,0.05318528
2063.82388916,0.05289080
2065.75269653,0.05260130
2067.68150391,0.05287497
2069.61031128,0.05286137
2071.53911865,0.05270724
2073.46792603,0.05267332
2075.39673340,0.05248490
2077.32554077,0.05252060
2079.25434814,0.05242214
2081.18315552,0.05221946
2083.11196289,0.05226622
2085.04077026,0.05221700
2086.96957764,0.05187833
2088.89838501,0.05181682
2090.82719238,0.05185862
2092.75599976,0.05167929
2094.68480713,0.05170317
2096.61361450,0.05160116
2098.54242187,0.05152828
2100.47122925,0.05141038
2102.40003662,0.05121614
2104.32884399,0.05117101
2106.25765137,0.05107415
2108.18645874,0.05108584
2110.11526611,0.05093571
2112.04407349,0.05078012
2113.97288086,0.05074919
2115.90168823,0.05083944
2117.83049561,0.05069491
2119.75930298,0.05043725
2121.68811035,0.05058683
2123.61691772,0.05043890
2125.54572510,0.05033576
2127.47453247,0.05042002
2129.40333984,0.05039805
2131.33214722,0.05026112
2133.26095459,0.05013752
2135.18976196,0.05021819
2137.11856934,0.05008410
2139.04737671,0.05002781
2140.97618408,0.04996967
2142.90499146,0.04988562
2144.83379883,0.04987463
2146.76260620,0.04976609
2148.69141357,0.04964810
2150.62022095,0.04965685
2152.54902832,0.04961418
2154.47783569,0.04932321
2156.40664307,0.04947481
2158.33545044,0.04945801
2160.26425781,0.04931122
2162.19306519,0.04937812
2164.12187256,0.04924157
2166.05067993,0.04919259
2167.97948730,0.04894716
2169.90829468,0.04902592
2171.83710205,0.04901893
2173.76590942,0.04885032
2175.69471680,0.04898485
2177.62352417,0.04889355
2179.55233154,0.04883704
2181.48113892,0.04872283
2183.40994629,0.04872564
2185.33875366,0.04858395
2187.26756104,0.04853621
2189.19636841,0.04858107
2191.12517578,0.04840090
2193.05398315,0.04852772
2194.98279053,0.04836227
2196.91159790,0.04828677
2198.84040527,0.04829309
2200.76921265,0.04815924
2202.69802002,0.04820888
2204.62682739,0.04812187
2206.55563477,0.04796567
2208.48444214,0.04786970
2210.41324951,0.04798034
2212.34205688,0.04789964
2214.27086426,0.04785962
2216.19967163,0.04786995
2218.12847900,0.04773870
2220.05728638,0.04768279
2221.98609375,0.04758466
2223.91490112,0.04762331
2225.84370850,0.04751869
2227.77251587,0.04738673
2229.70132324,0.04725494
2231.63013062,0.04732763
2233.55893799,0.04733135
2235.48774536,0.04706876
2237.41655273,0.04716161
2239.34536011,0.04709539
2241.27416748,0.04709573
2243.20297485,0.04697049
2245.13178223,0.04675985
2247.06058960,0.04678591
2248.98939697,0.04670024
2250.91820435,0.04666204
2252.84701172,0.04648482
2254.77581909,0.04652731
2256.70462646,0.04646691
2258.63343384,0.04638980
2260.56224121,0.04637545
2262.49104858,0.04611558
2264.41985596,0.04614983
2266.34866333,0.04609258
2268.27747070,0.04601558
2270.20627808,0.04596869
2272.13508545,0.04596995
2274.06389282,0.04594728
2275.99270020,0.04587119
2277.92150757,0.04590312
2279.85031494,0.04578605
2281.77912231,0.04583415
2283.70792969,0.04563348
2285.63673706,0.04552262
2287.56554443,0.04566257
2289.49435181,0.04546665
2291.42315918,0.04533933
2293.35196655,0.04522462
2295.28077393,0.04504434
2297.20958130,0.04486401
2299.13838867,0.04477499
2301.06719604,0.04465595
2302.99600342,0.04442011
2304.92481079,0.04424483
2306.85361816,0.04415514
2308.78242554,0.04377078
2310.71123291,0.04323332
2312.64004028,0.04294477
2314.56884766,0.04253451
2316.49765503,0.04222926
2318.42646240,0.04167471
2320.35526978,0.04115229
2322.28407715,0.04068078
2324.21288452,0.03991479
2326.14169189,0.03972722
2328.07049927,0.03932007
2329.99930664,0.03883348
2331.92811401,0.03854023
2333.85692139,0.03830265
2335.78572876,0.03826830
2337.71453613,0.03817680
2339.64334351,0.03825468
2341.57215088,0.03824779
2343.50095825,0.03876903
2345.42976562,0.03950321
2347.35857300,0.04104779
2349.28738037,0.04230366
2351.21618774,0.04075152
2353.14499512,0.03893365
2355.07380249,0.03756320
2357.00260986,0.03650271
2358.93141724,0.03592545
2360.86022461,0.03535124
2362.78903198,0.03553906
2364.71783936,0.03570637
2366.64664673,0.03609756
2368.57545410,0.03681421
2370.50426147,0.03756864
2372.43306885,0.03848174
2374.36187622,0.03942838
2376.29068359,0.04053378
2378.21949097,0.04123613
2380.14829834,0.04198126
2382.07710571,0.04249174
2384.00591309,0.04244151
2385.93472046,0.04257410
2387.86352783,0.04267413
2389.79233521,0.04272537
2391.72114258,0.04276001
2393.64994995,0.04265510
2395.57875732,0.04255521
2397.50756470,0.04250764
2399.43637207,0.04247473
2401.36517944,0.04245316
2403.29398682,0.04236968
2405.22279419,0.04235504
2407.15160156,0.04229357
2409.08040894,0.04208856
2411.00921631,0.04208891
2412.93802368,0.04214372
2414.86683105,0.04215347
2416.79563843,0.04195815
2418.72444580,0.04178583
2420.65325317,0.04193429
2422.58206055,0.04190387
2424.51086792,0.04179090
2426.43967529,0.04180682
2428.36848267,0.04168755
2430.29729004,0.04158156
2432.22609741,0.04161749
2434.15490479,0.04144472
2436.08371216,0.04144213
2438.01251953,0.04150416
2439.94132690,0.04129065
2441.87013428,0.04128396
2443.79894165,0.04120293
2445.72774902,0.04114887
2447.65655640,0.04111660
2449.58536377,0.04104737
2451.51417114,0.04107540
2453.44297852,0.04092738
2455.37178589,0.04091822
2457.30059326,0.04091102
2459.22940063,0.04085505
2461.15820801,0.04078986
2463.08701538,0.04069982
2465.01582275,0.04066232
2466.94463013,0.04053547
2468.87343750,0.04051979
2470.80224487,0.04052340
2472.73105225,0.04045360
2474.65985962,0.04031516
2476.58866699,0.04029467
2478.51747437,0.04028744
2480.44628174,0.04019225
2482.37508911,0.04025500
2484.30389648,0.04024633
2486.23270386,0.04017294
2488.16151123,0.04002709
2490.09031860,0.04000923
2492.01912598,0.04006697
2493.94793335,0.03993015
2495.87674072,0.03986580
2497.80554810,0.03983055
2499.73435547,0.03971672
2501.66316284,0.03970435
2503.59197021,0.03971126
2505.52077759,0.03941340
2507.44958496,0.03944753
2509.37839233,0.03963137
2511.30719971,0.03946217
2513.23600708,0.03946095
2515.16481445,0.03931107
2517.09362183,0.03927039
2519.02242920,0.03932555
2520.95123657,0.03916783
2522.88004395,0.03917856
2524.80885132,0.03916774
2526.73765869,0.03908025
2528.66646606,0.03897800
2530.59527344,0.03900286
2532.52408081,0.03905231
2534.45288818,0.03893821
2536.38169556,0.03886021
2538.31050293,0.03881299
2540.23931030,0.03863937
2542.16811768,0.03867250
2544.09692505,0.03877600
2546.02573242,0.03853786
2547.95453979,0.03857744
2549.88334717,0.03861963
2551.81215454,0.03847674
2553.74096191,0.03834347
2555.66976929,0.03822399
2557.59857666,0.03833107
2559.52738403,0.03816232
2561.45619141,0.03815441
2563.38499878,0.03819081
2565.31380615,0.03805398
2567.24261353,0.03813793
2569.17142090,0.03805199
2571.10022827,0.03803390
2573.02903564,0.03788220
2574.95784302,0.03773751
2576.88665039,0.03783450
2578.81545776,0.03768686
2580.74426514,0.03757329
2582.67307251,0.03762428
2584.60187988,0.03759348
2586.53068726,0.03755771
2588.45949463,0.03756180
2590.38830200,0.03743329
2592.31710937,0.03744206
2594.24591675,0.03745698
2596.17472412,0.03739869
2598.10353149,0.03738403
2600.03233887,0.03711816
2601.96114624,0.03699550
2603.88995361,0.03702940
2605.81876099,0.03699334
2607.74756836,0.03690162
2609.67637573,0.03682645
2611.60518311,0.03685684
2613.53399048,0.03685259
2615.46279785,0.03680998
2617.39160522,0.03675403
2619.32041260,0.03670728
2621.24921997,0.03651162
2623.17802734,0.03651080
2625.10683472,0.03650407
2627.03564209,0.03641036
2628.96444946,0.03657260
2630.89325684,0.03641734
2632.82206421,0.03639891
2634.75087158,0.03640178
2636.67967895,0.03621806
2638.60848633,0.03623155
2640.53729370,0.03601051
2642.46610107,0.03600464
2644.39490845,0.03615205
2646.32371582,0.03594953
2648.25252319,0.03582663
2650.18133057,0.03585708
2652.11013794,0.03580339
2654.03894531,0.03585969
2655.96775269,0.03575735
2657.89656006,0.03556962
2659.82536743,0.03571499
2661.75417480,0.03559509
2663.68298218,0.03545114
2665.61178955,0.03543379
2667.54059692,0.03543828
2669.46940430,0.03547402
2671.39821167,0.03525337
2673.32701904,0.03527508
2675.25582642,0.03527400
2677.18463379,0.03520974
2679.11344116,0.03521630
2681.04224854,0.03504658
2682.97105591,0.03502326
2684.89986328,0.03497449
2686.82867065,0.03490021
2688.75747803,0.03493270
2690.68628540,0.03485465
2692.61509277,0.03473125
2694.54390015,0.03477280
2696.47270752,0.03466884
2698.40151489,0.03457850
2700.33032227,0.03468417
2702.25912964,0.03451245
2704.18793701,0.03443776
2706.11674438,0.03443520
2708.04555176,0.03435728
2709.97435913,0.03438057
2711.90316650,0.03436011
2713.83197388,0.03430384
2715.76078125,0.03425627
2717.68958862,0.03424037
2719.61839600,0.03407646
2721.54720337,0.03403898
2723.47601074,0.03399780
2725.40481812,0.03387922
2727.33362549,0.03394688
2729.26243286,0.03386054
2731.19124023,0.03374193
2733.12004761,0.03367421
2735.04885498,0.03366832
2736.97766235,0.03357057
2738.90646973,0.03350257
2740.83527710,0.03356223
2742.76408447,0.03346739
2744.69289185,0.03345166
2746.62169922,0.03334226
2748.55050659,0.03331476
2750.47931396,0.03330764
2752.40812134,0.03315681
2754.33692871,0.03314761
2756.26573608,0.03307325
2758.19454346,0.03307720
2760.12335083,0.03303412
2762.05215820,0.03300025
2763.98096558,0.03304322
2765.90977295,0.03286202
2767.83858032,0.03276860
2769.76738770,0.03275799
2771.69619507,0.03259987
2773.62500244,0.03250761
2775.55380981,0.03254283
2777.48261719,0.03245692
2779.41142456,0.03241494
2781.34023193,0.03243955
2783.26903931,0.03236488
2785.19784668,0.03231940
2787.12665405,0.03221016
2789.05546143,0.03206996
2790.98426880,0.03201410
2792.91307617,0.03203131
2794.84188354,0.03204496
2796.77069092,0.03187556
2798.69949829,0.03170998
2800.62830566,0.03178836
2802.55711304,0.03170588
2804.48592041,0.03168851
2806.41472778,0.03180899
2808.34353516,0.03154455
2810.27234253,0.03145258
2812.20114990,0.03135994
2814.12995728,0.03128103
2816.05876465,0.03136707
2817.98757202,0.03123862
2819.91637939,0.03125657
2821.84518677,0.03111802
2823.77399414,0.03112141
2825.70280151,0.03106984
2827.63160889,0.03081456
2829.56041626,0.03089065
2831.48922363,0.03075266
2833.41803101,0.03073927
2835.34683838,0.03064645
2837.27564575,0.03045695
2839.20445312,0.03046339
2841.13326050,0.03037667
2843.06206787,0.03033875
2844.99087524,0.03005843
2846.91968262,0.02992693
2848.84848999,0.02982559
2850.77729736,0.02971760
2852.70610474,0.02981265
2854.63491211,0.02966134
2856.56371948,0.02967872
2858.49252686,0.02977098
2860.42133423,0.02974951
2862.35014160,0.02965287
2864.27894897,0.02962328
2866.20775635,0.02967881
2868.13656372,0.02950977
2870.06537109,0.02938882
2871.99417847,0.02929316
2873.92298584,0.02927839
2875.85179321,0.02921988
2877.78060059,0.02912173
2879.70940796,0.02915272
2881.63821533,0.02900532
2883.56702270,0.02904112
2885.49583008,0.02913734
2887.42463745,0.02899622
2889.35344482,0.02892782
2891.28225220,0.02887013
2893.21105957,0.02877950
2895.13986694,0.02865675
2897.06867432,0.02859651
2898.99748169,0.02858517
2900.92628906,0.02842315
2902.85509644,0.02834404
2904.78390381,0.02834437
2906.71271118,0.02832550
2908.64151855,0.02828470
2910.57032593,0.02803608
2912.49913330,0.02801968
2914.42794067,0.02805932
2916.35674805,0.02775056
2918.28555542,0.02772202
2920.21436279,0.02780220
2922.14317017,0.02768039
2924.07197754,0.02775370
2926.00078491,0.02780069
2927.92959229,0.02757584
2929.85839966,0.02756716
2931.78720703,0.02770141
2933.71601440,0.02770273
2935.64482178,0.02773863
2937.57362915,0.02770590
2939.50243652,0.02778794
2941.43124390,0.02780675
2943.36005127,0.02773615
2945.28885864,0.02780834
2947.21766602,0.02767669
2949.14647339,0.02760496
2951.07528076,0.02753286
2953.00408813,0.02742375
2954.93289551,0.02746028
2956.86170288,0.02733486
2958.79051025,0.02724429
2960.71931763,0.02722360
2962.64812500,0.02714210
2964.57693237,0.02707353
2966.50573975,0.02704079
2968.43454712,0.02700936
2970.36335449,0.02701899
2972.29216187,0.02712819
2974.22096924,0.02709674
2976.14977661,0.02699760
2978.07858398,0.02707015
2980.00739136,0.02706925
2981.93619873,0.02701198
2983.86500610,0.02712259
2985.79381348,0.02696971
2987.72262085,0.02685078
2989.65142822,0.02704275
2991.58023560,0.02690501
2993.50904297,0.02678344
2995.43785034,0.02676522
2997.36665771,0.02668035
2999.29546509,0.02668471
3001.22427246,0.02661106
3003.15307983,0.02658588
3005.08188721,0.02652255
3007.01069458,0.02652286
3008.93950195,0.02650375
3010.86830933,0.02629576
3012.79711670,0.02628656
3014.72592407,0.02622823
3016.65473145,0.02617628
3018.58353882,0.02626729
3020.51234619,0.02609388
3022.44115356,0.02602836
3024.36996094,0.02599938
3026.29876831,0.02582312
3028.22757568,0.02594532
3030.15638306,0.02586370
3032.08519043,0.02566516
3034.01399780,0.02564143
3035.94280518,0.02555840
3037.87161255,0.02573822
3039.80041992,0.02569211
3041.72922729,0.02545049
3043.65803467,0.02544926
3045.58684204,0.02540326
3047.51564941,0.02529045
3049.44445679,0.02512549
3051.37326416,0.02520636
3053.30207153,0.02522650
3055.23087891,0.02498597
3057.15968628,0.02500878
3059.08849365,0.02513352
3061.01730103,0.02504075
3062.94610840,0.02488984
3064.87491577,0.02484932
3066.80372314,0.02471856
3068.73253052,0.02468145
3070.66133789,0.02472157
3072.59014526,0.02466089
3074.51895264,0.02461586
3076.44776001,0.02450454
3078.37656738,0.02456069
3080.30537476,0.02451248
3082.23418213,0.02432381
3084.16298950,0.02432758
3086.09179687,0.02433747
3088.02060425,0.02437338
3089.94941162,0.02430412
3091.87821899,0.02425886
3093.80702637,0.02420793
3095.73583374,0.02398203
3097.66464111,0.02395255
3099.59344849,0.02397433
3101.52225586,0.02388089
3103.45106323,0.02389268
3105.37987061,0.02387558
3107.30867798,0.02374759
3109.23748535,0.02371032
3111.16629272,0.02368882
3113.09510010,0.02357273
3115.02390747,0.02343224
3116.95271484,0.02335694
3118.88152222,0.02335540
3120.81032959,0.02335079
3122.73913696,0.02332053
3124.66794434,0.02321812
3126.59675171,0.02315123
3128.52555908,0.02311875
3130.45436645,0.02304577
3132.38317383,0.02299829
3134.31198120,0.02295779
3136.24078857,0.02288031
3138.16959595,0.02282758
3140.09840332,0.02283979
3142.02721069,0.02269943
3143.95601807,0.02262422
3145.88482544,0.02267892
3147.81363281,0.02253995
3149.74244019,0.02243756
3151.67124756,0.02238595
3153.60005493,0.02232223
3155.52886230,0.02237253
3157.45766968,0.02234097
3159.38647705,0.02217098
3161.31528442,0.02216740
3163.24409180,0.02213659
3165.17289917,0.02196555
3167.10170654,0.02196997
3169.03051392,0.02185368
3170.95932129,0.02173354
3172.88812866,0.02173637
3174.81693604,0.02160620
3176.74574341,0.02151904
3178.67455078,0.02150499
3180.60335815,0.02154378
3182.53216553,0.02150138
3184.46097290,0.02139039
3186.38978027,0.02131956
3188.31858765,0.02127482
3190.24739502,0.02129713
3192.17620239,0.02128681
3194.10500977,0.02119825
3196.03381714,0.02104181
3197.96262451,0.02090982
3199.89143188,0.02092080
3201.82023926,0.02101377
3203.74904663,0.02097416
3205.67785400,0.02092453
3207.60666138,0.02079606
3209.53546875,0.02069742
3211.46427612,0.02082167
3213.39308350,0.02062353
3215.32189087,0.02054857
3217.25069824,0.02060665
3219.17950562,0.02052698
3221.10831299,0.02055235
3223.03712036,0.02041975
3224.96592773,0.02045870
3226.89473511,0.02033371
3228.82354248,0.02022491
3230.75234985,0.02038676
3232.68115723,0.02028332
3234.60996460,0.02027809
3236.53877197,0.02021706
3238.46757935,0.02015534
3240.39638672,0.02017037
3242.32519409,0.02009645
3244.25400146,0.02003982
3246.18280884,0.02000165
3248.11161621,0.02001519
3250.04042358,0.02000603
3251.96923096,0.02008269
3253.89803833,0.01993243
3255.82684570,0.01992112
3257.75565308,0.02004856
3259.68446045,0.01989274
3261.61326782,0.01992901
3263.54207520,0.01975783
3265.47088257,0.01970687
3267.39968994,0.01983022
3269.32849731,0.01966448
3271.25730469,0.01973247
3273.18611206,0.01968510
3275.11491943,0.01957043
3277.04372681,0.01964768
3278.97253418,0.01964549
3280.90134155,0.01966159
3282.83014893,0.01955255
3284.75895630,0.01942232
3286.68776367,0.01944372
3288.61657104,0.01945337
3290.54537842,0.01944203
3292.47418579,0.01935397
3294.40299316,0.01940643
3296.33180054,0.01948789
3298.26060791,0.01935232
3300.18941528,0.01934711
3302.11822266,0.01928874
3304.04703003,0.01926043
3305.97583740,0.01933548
3307.90464478,0.01922559
3309.83345215,0.01917092
3311.76225952,0.01917071
3313.69106689,0.01919366
3315.61987427,0.01919327
3317.54868164,0.01912412
3319.47748901,0.01901524
3321.40629639,0.01905966
3323.33510376,0.01909388
3325.26391113,0.01896949
3327.19271851,0.01901271
3329.12152588,0.01887503
3331.05033325,0.01891508
3332.97914062,0.01900360
3334.90794800,0.01874787
3336.83675537,0.01878278
3338.76556274,0.01882961
3340.69437012,0.01875477
3342.62317749,0.01877369
3344.55198486,0.01881561
3346.48079224,0.01863232
3348.40959961,0.01858668
3350.33840698,0.01870129
3352.26721436,0.01859708
3354.19602173,0.01861989
3356.12482910,0.01855551
3358.05363647,0.01855082
3359.98244385,0.01840788
3361.91125122,0.01831536
3363.84005859,0.01839318
3365.76886597,0.01817364
3367.69767334,0.01823709
3369.62648071,0.01826191
3371.55528809,0.01827068
3373.48409546,0.01817460
3375.41290283,0.01810384
3377.34171020,0.01821377
3379.27051758,0.01806181
3381.19932495,0.01813218
3383.12813232,0.01797334
3385.05693970,0.01793808
3386.98574707,0.01803564
3388.91455444,0.01796426
3390.84336182,0.01792396
3392.77216919,0.01767039
3394.70097656,0.01772778
3396.62978394,0.01768265
3398.55859131,0.01769096
3400.48739868,0.01769953
3402.41620605,0.01765036
3404.34501343,0.01770535
3406.27382080,0.01750037
3408.20262817,0.01757306
3410.13143555,0.01747942
3412.06024292,0.01753164
3413.98905029,0.01763359
3415.91785767,0.01748834
3417.84666504,0.01750340
3419.77547241,0.01733577
3421.70427979,0.01731438
3423.63308716,0.01727298
3425.56189453,0.01731397
3427.49070190,0.01726832
3429.41950928,0.01719494
3431.34831665,0.01719611
3433.27712402,0.01703901
3435.20593140,0.01713753
3437.13473877,0.01704871
3439.06354614,0.01715159
3440.99235352,0.01712164
3442.92116089,0.01697083
3444.84996826,0.01703757
3446.77877563,0.01668795
3448.70758301,0.01679375
3450.63639038,0.01698782
3452.56519775,0.01687983
3454.49400513,0.01687487
3456.42281250,0.01680904
3458.35161987,0.01674619
3460.28042725,0.01663056
3462.20923462,0.01663215
3464.13804199,0.01675759
3466.06684937,0.01673433
3467.99565674,0.01663369
3469.92446411,0.01664650
3471.85327148,0.01648218
3473.78207886,0.01651460
3475.71088623,0.01659399
3477.63969360,0.01646863
3479.56850098,0.01652266
3481.49730835,0.01631859
3483.42611572,0.01636560
3485.35492310,0.01648257
3487.28373047,0.01637235
3489.21253784,0.01641346
3491.14134521,0.01648142
3493.07015259,0.01656920
3494.99895996,0.01639394
3496.92776733,0.01634232
3498.85657471,0.01644255
3500.78538208,0.01635931
3502.71418945,0.01596711
3504.64299683,0.01605733
3506.57180420,0.01648434
3508.50061157,0.01610211
3510.42941895,0.01606701
3512.35822632,0.01633935
3514.28703369,0.01632748
3516.21584106,0.01619392
3518.14464844,0.01617599
3520.07345581,0.01632883
3522.00226318,0.01603257
3523.93107056,0.01584759
3525.85987793,0.01588936
3527.78868530,0.01595235
3529.71749268,0.01593020
3531.64630005,0.01609205
3533.57510742,0.01627592
3535.50391479,0.01603156
3537.43272217,0.01608522
3539.36152954,0.01619197
3541.29033691,0.01621722
3543.21914429,0.01603933
3545.14795166,0.01555435
3547.07675903,0.01538107
3549.00556641,0.01592700
3550.93437378,0.01605654
3552.86318115,0.01560119
3554.79198853,0.01602275
3556.72079590,0.01602095
3558.64960327,0.01591328
3560.57841064,0.01597125
3562.50721802,0.01576493
3564.43602539,0.01582414
3566.36483276,0.01455113
3568.29364014,0.01411600
3570.22244751,0.01561565
3572.15125488,0.01602219
3574.08006226,0.01576876
3576.00886963,0.01596965
3577.93767700,0.01590986
3579.86648437,0.01586570
3581.79529175,0.01585559
3583.72409912,0.01587429
3585.65290649,0.01550286
3587.58171387,0.01393588
3589.51052124,0.01445874
3591.43932861,0.01597104
3593.36813599,0.01540161
3595.29694336,0.01516486
3597.22575073,0.01547360
3599.15455811,0.01565117
3601.08336548,0.01544435
3603.01217285,0.01549362
3604.94098022,0.01585158
3606.86978760,0.01519356
3608.79859497,0.01415671
3610.72740234,0.01463244
3612.65620972,0.01491574
3614.58501709,0.01430698
3616.51382446,0.01563197
3618.44263184,0.01423984
3620.37143921,0.01367157
3622.30024658,0.01578084
3624.22905395,0.01522842
3626.15786133,0.01609072
3628.08666870,0.01323036
3630.01547607,0.01179285
3631.94428345,0.01554967
3633.87309082,0.01506262
3635.80189819,0.01526046
3637.73070557,0.01569016
3639.65951294,0.01548606
3641.58832031,0.01554945
3643.51712769,0.01536724
3645.44593506,0.01556502
3647.37474243,0.01368422
3649.30354980,0.01238764
3651.23235718,0.01251339
3653.16116455,0.01537379
3655.08997192,0.01521587
3657.01877930,0.01338818
3658.94758667,0.01575271
3660.87639404,0.01526964
3662.80520142,0.01554479
3664.73400879,0.01554096
3666.66281616,0.01528902
3668.59162354,0.01474827
3670.52043091,0.01170697
3672.44923828,0.01471089
3674.37804565,0.01371351
3676.30685303,0.01091065
3678.23566040,0.01450973
3680.16446777,0.01479769
3682.09327515,0.01485851
3684.02208252,0.01542046
3685.95088989,0.01497384
3687.87969727,0.01337266
3689.80850464,0.01204740
3691.73731201,0.01402777
3693.66611938,0.01463001
3695.59492676,0.01491716
3697.52373413,0.01498067
3699.45254150,0.01486353
3701.38134888,0.01442849
3703.31015625,0.01375930
3705.23896362,0.01530320
3707.16777100,0.01450652
3709.09657837,0.01393534
3711.02538574,0.01301010
3712.95419312,0.01207987
3714.88300049,0.01454766
3716.81180786,0.01442447
3718.74061523,0.01444731
3720.66942261,0.01416856
3722.59822998,0.01366852
3724.52703735,0.01410469
3726.45584473,0.01289301
3728.38465210,0.01427400
3730.31345947,0.01410883
3732.24226685,0.01274036
3734.17107422,0.01240242
3736.09988159,0.01157214
3738.02868896,0.01249987
3739.95749634,0.01379616
3741.88630371,0.01446346
3743.81511108,0.01088840
3745.74391846,0.01009188
3747.67272583,0.01370444
3749.60153320,0.01147713
3751.53034058,0.01031189
3753.45914795,0.01227406
3755.38795532,0.01335411
3757.31676270,0.01395483
3759.24557007,0.01266629
3761.17437744,0.01322641
3763.10318481,0.01429740
3765.03199219,0.01308250
3766.96079956,0.01341900
3768.88960693,0.01324388
3770.81841431,0.01257102
3772.74722168,0.01388303
3774.67602905,0.01386965
3776.60483643,0.01396261
3778.53364380,0.01346337
3780.46245117,0.01272167
3782.39125854,0.01383119
3784.32006592,0.01344183
3786.24887329,0.01332085
3788.17768066,0.01374557
3790.10648804,0.01368239
3792.03529541,0.01358685
3793.96410278,0.01381634
3795.89291016,0.01281857
3797.82171753,0.01256336
3799.75052490,0.01342519
3801.67933228,0.01021489
3803.60813965,0.01220810
3805.53694702,0.01356757
3807.46575439,0.01075654
3809.39456177,0.01339024
3811.32336914,0.01308459
3813.25217651,0.01360114
3815.18098389,0.01210860
3817.10979126,0.01044974
3819.03859863,0.01362731
3820.96740601,0.01050062
3822.89621338,0.01126018
3824.82502075,0.01348940
3826.75382812,0.01197701
3828.68263550,0.01309680
3830.61144287,0.01249262
3832.54025024,0.01202104
3834.46905762,0.01225950
3836.39786499,0.01165641
3838.32667236,0.01039342
3840.25547974,0.01125803
3842.18428711,0.01228426
3844.11309448,0.01167801
3846.04190186,0.01284228
3847.97070923,0.01263707
3849.89951660,0.01267756
3851.82832397,0.01119491
3853.75713135,0.00800779
3855.68593872,0.00983925
3857.61474609,0.01268094
3859.54355347,0.01231818
3861.47236084,0.01205954
3863.40116821,0.01176449
3865.32997559,0.01088691
3867.25878296,0.01240000
3869.18759033,0.01112912
3871.11639770,0.01015858
3873.04520508,0.01242570
3874.97401245,0.01117330
3876.90281982,0.01229767
3878.83162720,0.01248129
3880.76043457,0.01041220
3882.68924194,0.01240463
3884.61804932,0.01138485
3886.54685669,0.01037371
3888.47566406,0.01242270
3890.40447144,0.01155896
3892.33327881,0.01070818
3894.26208618,0.01192092
3896.19089355,0.01223653
3898.11970093,0.01155948
3900.04850830,0.01079916
3901.97731567,0.01062514
3903.90612305,0.01056512
3905.83493042,0.01077128
3907.76373779,0.01192342
3909.69254517,0.01195133
3911.62135254,0.01190140
3913.55015991,0.01216942
3915.47896728,0.01163233
3917.40777466,0.01128474
3919.33658203,0.01111936
3921.26538940,0.01164028
3923.19419678,0.01160493
3925.12300415,0.01125309
3927.05181152,0.01152988
3928.98061890,0.01165488
3930.90942627,0.01144361
3932.83823364,0.01093584
3934.76704102,0.01146977
3936.69584839,0.01171082
3938.62465576,0.01155402
3940.55346313,0.01168847
3942.48227051,0.01103940
3944.41107788,0.01118834
3946.33988525,0.01156422
3948.26869263,0.01113308
3950.19750000,0.01111018
3952.12630737,0.01138456
3954.05511475,0.01139432
3955.98392212,0.01135214
3957.91272949,0.01132123
3959.84153687,0.01129991
3961.77034424,0.01117544
3963.69915161,0.01106652
3965.62795898,0.01133031
3967.55676636,0.01127410
3969.48557373,0.01110829
3971.41438110,0.01112377
3973.34318848,0.01114392
3975.27199585,0.01111506
3977.20080322,0.01095433
3979.12961060,0.01110537
3981.05841797,0.01109135
3982.98722534,0.01094164
3984.91603271,0.01088043
3986.84484009,0.01093525
3988.77364746,0.01093920
3990.70245483,0.01080963
3992.63126221,0.01094366
3994.56006958,0.01085072
3996.48887695,0.01086007
3998.41768433,0.01087807
4000.34649170,0.01078143
4002.27529907,0.01078270
4004.20410645,0.01071077
4006.13291382,0.01073432
4008.06172119,0.01059208
4009.99052856,0.01066693
4011.91933594,0.01073122
4013.84814331,0.01061595
4015.77695068,0.01056013
4017.70575806,0.01058052
4019.63456543,0.01061532
4021.56337280,0.01046256
4023.49218018,0.01054739
4025.42098755,0.01041380
4027.34979492,0.01040090
4029.27860229,0.01050026
4031.20740967,0.01031409
4033.13621704,0.01038814
4035.06502441,0.01033939
4036.99383179,0.01038651
4038.92263916,0.01037405
4040.85144653,0.01027611
4042.78025391,0.01038509
4044.70906128,0.01031667
4046.63786865,0.01021447
4048.56667603,0.01022177
4050.49548340,0.01020917
4052.42429077,0.01014924
4054.35309814,0.01022149
4056.28190552,0.01014559
4058.21071289,0.01009091
4060.13952026,0.01007873
4062.06832764,0.00999582
4063.99713501,0.01006789
4065.92594238,0.01000605
4067.85474976,0.00998321
4069.78355713,0.00997385
4071.71236450,0.01000623
4073.64117187,0.00993566
4075.56997925,0.00986333
4077.49878662,0.00989604
4079.42759399,0.00978226
4081.35640137,0.00985623
4083.28520874,0.00979449
4085.21401611,0.00983147
4087.14282349,0.00978347
4089.07163086,0.00961036
4091.00043823,0.00974737
4092.92924561,0.00967814
4094.85805298,0.00967628
4096.78686035,0.00965129
4098.71566772,0.00959956
4100.64447510,0.00963975
4102.57328247,0.00964875
4104.50208984,0.00959796
4106.43089722,0.00948667
4108.35970459,0.00950597
4110.28851196,0.00945461
4112.21731934,0.00949464
4114.14612671,0.00943764
4116.07493408,0.00942380
4118.00374145,0.00943694
4119.93254883,0.00939002
4121.86135620,0.00942487
4123.79016357,0.00922770
4125.71897095,0.00936315
4127.64777832,0.00936815
4129.57658569,0.00927132
4131.50539307,0.00936695
4133.43420044,0.00919902
4135.36300781,0.00914039
4137.29181519,0.00912261
4139.22062256,0.00924890
4141.14942993,0.00915424
4143.07823730,0.00903910
4145.00704468,0.00915527
4146.93585205,0.00909784
4148.86465942,0.00918900
4150.79346680,0.00909095
4152.72227417,0.00899542
4154.65108154,0.00904836
4156.57988892,0.00896558
4158.50869629,0.00900651
4160.43750366,0.00902634
4162.36631103,0.00890054
4164.29511841,0.00894021
4166.22392578,0.00898712
4168.15273315,0.00882982
4170.08154053,0.00886780
4172.01034790,0.00886883
4173.93915527,0.00888027
4175.86796265,0.00889402
4177.79677002,0.00876374
4179.72557739,0.00878524
4181.65438477,0.00872961
4183.58319214,0.00871205
4185.51199951,0.00860961
4187.44080688,0.00857132
4189.36961426,0.00869080
4191.29842163,0.00864718
4193.22722900,0.00861828
4195.15603638,0.00859680
4197.08484375,0.00862024
4199.01365112,0.00853579
4200.94245850,0.00854748
4202.87126587,0.00854209
4204.80007324,0.00843248
4206.72888062,0.00854203
4208.65768799,0.00850777
4210.58649536,0.00845338
4212.51530273,0.00845157
4214.44411011,0.00841597
4216.37291748,0.00834951
4218.30172485,0.00832710
4220.23053223,0.00832645
4222.15933960,0.00827667
4224.08814697,0.00835583
4226.01695435,0.00831136
4227.94576172,0.00827354
4229.87456909,0.00826675
4231.80337646,0.00826086
4233.73218384,0.00818487
4235.66099121,0.00804838
4237.58979858,0.00814972
4239.51860596,0.00812038
4241.44741333,0.00813296
4243.37622070,0.00814084
4245.30502808,0.00805918
4247.23383545,0.00807806
4249.16264282,0.00799137
4251.09145020,0.00797385
4253.02025757,0.00797751
4254.94906494,0.00799206
4256.87787231,0.00797790
4258.80667969,0.00796803
4260.73548706,0.00791230
4262.66429443,0.00782731
4264.59310181,0.00791263
4266.52190918,0.00783874
4268.45071655,0.00785264
4270.37952393,0.00788531
4272.30833130,0.00779732
4274.23713867,0.00786734
4276.16594604,0.00777921
4278.09475342,0.00771417
4280.02356079,0.00775130
4281.95236816,0.00765756
4283.88117554,0.00767135
4285.80998291,0.00771909
4287.73879028,0.00766044
4289.66759766,0.00765553
4291.59640503,0.00766591
4293.52521240,0.00768744
4295.45401978,0.00766291
4297.38282715,0.00754619
4299.31163452,0.00753101
4301.24044189,0.00755588
4303.16924927,0.00751839
4305.09805664,0.00747651
4307.02686401,0.00751661
4308.95567139,0.00750755
4310.88447876,0.00743930
4312.81328613,0.00741557
4314.74209351,0.00738636
4316.67090088,0.00745628
4318.59970825,0.00746052
4320.52851562,0.00737936
4322.45732300,0.00733043
4324.38613037,0.00733368
4326.31493774,0.00734036
4328.24374512,0.00727645
4330.17255249,0.00727778
4332.10135986,0.00720143
4334.03016724,0.00722949
4335.95897461,0.00730361
4337.88778198,0.00717932
4339.81658936,0.00717068
4341.74539673,0.00719988
4343.67420410,0.00720161
4345.60301147,0.00721004
4347.53181885,0.00718199
4349.46062622,0.00715820
4351.38943359,0.00713468
4353.31824097,0.00708063
4355.24704834,0.00706361
4357.17585571,0.00705407
4359.10466309,0.00698812
4361.03347046,0.00708034
4362.96227783,0.00709012
4364.89108520,0.00698247
4366.81989258,0.00699899
4368.74869995,0.00696446
4370.67750732,0.00691589
4372.60631470,0.00692896
4374.53512207,0.00693883
4376.46392944,0.00689510
4378.39273682,0.00687234
4380.32154419,0.00691978
4382.25035156,0.00695483
4384.17915894,0.00684475
4386.10796631,0.00676049
4388.03677368,0.00680338
4389.96558105,0.00676580
4391.89438843,0.00675496
4393.82319580,0.00672038
4395.75200317,0.00671426
4397.68081055,0.00669925
4399.60961792,0.00668189
4401.53842529,0.00674850
4403.46723267,0.00664895
4405.39604004,0.00662259
4407.32484741,0.00660261
4409.25365478,0.00659210
4411.18246216,0.00659207
4413.11126953,0.00648211
4415.04007690,0.00653259
4416.96888428,0.00653169
4418.89769165,0.00654414
4420.82649902,0.00655297
4422.75530640,0.00651185
4424.68411377,0.00650594
4426.61292114,0.00642183
4428.54172852,0.00641417
4430.47053589,0.00641955
4432.39934326,0.00642012
4434.32815063,0.00637154
4436.25695801,0.00632906
4438.18576538,0.00633988
4440.11457275,0.00637857
4442.04338013,0.00641194
4443.97218750,0.00626530
4445.90099487,0.00625302
4447.82980225,0.00632530
4449.75860962,0.00627334
4451.68741699,0.00627531
4453.61622437,0.00631921
4455.54503174,0.00624499
4457.47383911,0.00616133
4459.40264648,0.00620398
4461.33145386,0.00614668
4463.26026123,0.00615624
4465.18906860,0.00614228
4467.11787598,0.00607176
4469.04668335,0.00620343
4470.97549072,0.00613604
4472.90429810,0.00603156
4474.83310547,0.00608231
4476.76191284,0.00600142
4478.69072021,0.00596828
4480.61952759,0.00597431
4482.54833496,0.00596722
4484.47714233,0.00601987
4486.40594971,0.00593276
4488.33475708,0.00590103
4490.26356445,0.00592256
4492.19237183,0.00588183
4494.12117920,0.00596910
4496.04998657,0.00591995
4497.97879395,0.00585508
4499.90760132,0.00583567
4501.83640869,0.00578978
4503.76521606,0.00581911
4505.69402344,0.00579735
4507.62283081,0.00579810
4509.55163818,0.00571392
4511.48044556,0.00575063
4513.40925293,0.00578276
4515.33806030,0.00570182
4517.26686768,0.00573264
4519.19567505,0.00566286
4521.12448242,0.00572350
4523.05328979,0.00570949
4524.98209717,0.00567113
4526.91090454,0.00568842
4528.83971191,0.00555538
4530.76851929,0.00561948
4532.69732666,0.00561050
4534.62613403,0.00557067
4536.55494141,0.00557003
4538.48374878,0.00553276
4540.41255615,0.00556345
4542.34136353,0.00549214
4544.27017090,0.00550291
4546.19897827,0.00553096
4548.12778564,0.00548116
4550.05659302,0.00544471
4551.98540039,0.00545867
4553.91420776,0.00552203
4555.84301514,0.00549203
4557.77182251,0.00546417
4559.70062988,0.00548075
4561.62943726,0.00538310
4563.55824463,0.00532337
4565.48705200,0.00543049
4567.41585937,0.00541551
4569.34466675,0.00533882
4571.27347412,0.00533902
4573.20228149,0.00532861
4575.13108887,0.00526827
4577.05989624,0.00523094
4578.98870361,0.00528748
4580.91751099,0.00524475
4582.84631836,0.00527056
4584.77512573,0.00531742
4586.70393311,0.00524786
4588.63274048,0.00525701
4590.56154785,0.00524577
4592.49035522,0.00517112
4594.41916260,0.00512510
4596.34796997,0.00513215
4598.27677734,0.00509468
4600.20558472,0.00518495
4602.13439209,0.00518430
4604.06319946,0.00504431
4605.99200684,0.00510967
4607.92081421,0.00504099
4609.84962158,0.00501160
4611.77842895,0.00507298
4613.70723633,0.00507167
4615.63604370,0.00500912
4617.56485107,0.00494318
4619.49365845,0.00502547
4621.42246582,0.00497879
4623.35127319,0.00502100
4625.28008057,0.00501406
4627.20888794,0.00498260
4629.13769531,0.00502655
4631.06650269,0.00489860
4632.99531006,0.00495145
4634.92411743,0.00487344
4636.85292480,0.00481005
4638.78173218,0.00489196
4640.71053955,0.00480089
4642.63934692,0.00483614
4644.56815430,0.00488523
4646.49696167,0.00486603
4648.42576904,0.00482742
4650.35457642,0.00481987
4652.28338379,0.00482316
4654.21219116,0.00482771
4656.14099853,0.00482553
4658.06980591,0.00474744
4659.99861328,0.00480104
4661.92742065,0.00478896
4663.85622803,0.00463973
4665.78503540,0.00463321
4667.71384277,0.00471674
4669.64265015,0.00467788
4671.57145752,0.00461974
4673.50026489,0.00468658
4675.42907227,0.00468638
4677.35787964,0.00462361
4679.28668701,0.00459211
4681.21549438,0.00459510
4683.14430176,0.00455698
4685.07310913,0.00453388
4687.00191650,0.00458462
4688.93072388,0.00459104
4690.85953125,0.00457831
4692.78833862,0.00452383
4694.71714600,0.00451330
4696.64595337,0.00453963
4698.57476074,0.00448966
4700.50356812,0.00447628
4702.43237549,0.00451074
4704.36118286,0.00443260
4706.28999023,0.00436158
4708.21879761,0.00444565
4710.14760498,0.00443325
4712.07641235,0.00440653
4714.00521973,0.00444075
4715.93402710,0.00440559
4717.86283447,0.00440240
4719.79164185,0.00439300
4721.72044922,0.00435200
4723.64925659,0.00435213
4725.57806396,0.00434595
4727.50687134,0.00426631
4729.43567871,0.00427593
4731.36448608,0.00433481
4733.29329346,0.00433712
4735.22210083,0.00435923
4737.15090820,0.00431935
4739.07971558,0.00423434
4741.00852295,0.00419092
4742.93733032,0.00424172
4744.86613770,0.00422231
4746.79494507,0.00418353
4748.72375244,0.00425460
4750.65255981,0.00426407
4752.58136719,0.00420691
4754.51017456,0.00418640
4756.43898193,0.00425591
4758.36778931,0.00417101
4760.29659668,0.00415824
4762.22540405,0.00419608
4764.15421143,0.00401719
4766.08301880,0.00410495
4768.01182617,0.00416917
4769.94063354,0.00402010
4771.86944092,0.00403198
4773.79824829,0.00413478
4775.72705566,0.00409496
4777.65586304,0.00404984
4779.58467041,0.00411378
4781.51347778,0.00404089
4783.44228516,0.00404345
4785.37109253,0.00402861
4787.29989990,0.00399726
4789.22870728,0.00395610
4791.15751465,0.00389821
4793.08632202,0.00402533
4795.01512939,0.00390068
4796.94393677,0.00393482
4798.87274414,0.00401563
4800.80155151,0.00389026
4802.73035889,0.00398994
4804.65916626,0.00394111
4806.58797363,0.00392972
4808.51678101,0.00393699
4810.44558838,0.00390915
4812.37439575,0.00391943
4814.30320312,0.00380850
4816.23201050,0.00383542
4818.16081787,0.00382164
4820.08962524,0.00379588
4822.01843262,0.00382689
4823.94723999,0.00384010
4825.87604736,0.00386201
4827.80485474,0.00385313
4829.73366211,0.00384074
4831.66246948,0.00379000
4833.59127686,0.00384368
4835.52008423,0.00382203
4837.44889160,0.00376270
4839.37769897,0.00378935
4841.30650635,0.00368840
4843.23531372,0.00368969
4845.16412109,0.00372855
4847.09292847,0.00366051
4849.02173584,0.00369041
4850.95054321,0.00370772
4852.87935059,0.00365173
4854.80815796,0.00362999
4856.73696533,0.00360900
4858.66577270,0.00366342
4860.59458008,0.00364456
4862.52338745,0.00353732
4864.45219482,0.00359585
4866.38100220,0.00361114
4868.30980957,0.00362382
4870.23861694,0.00359435
4872.16742432,0.00348570
4874.09623169,0.00354299
4876.02503906,0.00353835
4877.95384644,0.00349481
4879.88265381,0.00349741
4881.81146118,0.00350783
4883.74026855,0.00351104
4885.66907593,0.00349088
4887.59788330,0.00351058
4889.52669067,0.00345360
4891.45549805,0.00345574
4893.38430542,0.00348009
4895.31311279,0.00347434
4897.24192017,0.00348090
4899.17072754,0.00338463
4901.09953491,0.00341446
4903.02834228,0.00344545
4904.95714966,0.00338039
4906.88595703,0.00340783
4908.81476440,0.00341491
4910.74357178,0.00342731
4912.67237915,0.00342343
4914.60118652,0.00337896
4916.52999390,0.00338012
4918.45880127,0.00333124
4920.38760864,0.00331028
4922.31641602,0.00335968
4924.24522339,0.00328101
4926.17403076,0.00329341
4928.10283813,0.00339828
4930.03164551,0.00329805
4931.96045288,0.00329239
4933.88926025,0.00329633
4935.81806763,0.00321458
4937.74687500,0.00329560
4939.67568237,0.00323642
4941.60448975,0.00318431
4943.53329712,0.00325675
4945.46210449,0.00319118
4947.39091187,0.00324647
4949.31971924,0.00330282
4951.24852661,0.00316113
4953.17733398,0.00311094
4955.10614136,0.00315516
4957.03494873,0.00316521
4958.96375610,0.00316398
4960.89256348,0.00314698
4962.82137085,0.00316198
4964.75017822,0.00316396
4966.67898560,0.00306026
4968.60779297,0.00308429
4970.53660034,0.00316759
4972.46540771,0.00307563
4974.39421509,0.00305227
4976.32302246,0.00305955
4978.25182983,0.00302740
4980.18063721,0.00305815
4982.10944458,0.00302638
4984.03825195,0.00303846
4985.96705933,0.00303937
4987.89586670,0.00297588
4989.82467407,0.00302853
4991.75348145,0.00297821
4993.68228882,0.00293642
4995.61109619,0.00302844
4997.53990356,0.00300754
4999.46871094,0.00300088
5001.39751831,0.00295644
5003.32632568,0.00294447
5005.25513306,0.00302544
5007.18394043,0.00296985
5009.11274780,0.00297448
5011.04155518,0.00293190
5012.97036255,0.00286004
5014.89916992,0.00295294
5016.82797729,0.00290289
5018.75678467,0.00283626
5020.68559204,0.00287407
5022.61439941,0.00287150
5024.54320679,0.00293903
5026.47201416,0.00293547
5028.40082153,0.00283476
5030.32962891,0.00287941
5032.25843628,0.00286394
5034.18724365,0.00282632
5036.11605103,0.00288986
5038.04485840,0.00283820
5039.97366577,0.00283360
5041.90247314,0.00279657
5043.83128052,0.00271491
5045.76008789,0.00273961
5047.68889526,0.00277031
5049.61770264,0.00281812
5051.54651001,0.00271359
5053.47531738,0.00269167
5055.40412476,0.00279215
5057.33293213,0.00275084
5059.26173950,0.00271704
5061.19054687,0.00269983
5063.11935425,0.00273400
5065.04816162,0.00269998
5066.97696899,0.00266183
5068.90577637,0.00267620
5070.83458374,0.00265705
5072.76339111,0.00270545
5074.69219849,0.00264298
5076.62100586,0.00265870
5078.54981323,0.00275285
5080.47862061,0.00266719
5082.40742798,0.00261120
5084.33623535,0.00264027
5086.26504272,0.00268937
5088.19385010,0.00267973
5090.12265747,0.00263015
5092.05146484,0.00262202
5093.98027222,0.00261852
5095.90907959,0.00260238
5097.83788696,0.00261091
5099.76669434,0.00259161
5101.69550171,0.00252656
5103.62430908,0.00257368
5105.55311645,0.00261262
5107.48192383,0.00253425
5109.41073120,0.00253680
5111.33953857,0.00255465
5113.26834595,0.00247156
5115.19715332,0.00248698
5117.12596069,0.00249752
5119.05476807,0.00248031
5120.98357544,0.00255357
5122.91238281,0.00249082
5124.84119019,0.00248891
5126.76999756,0.00249808
5128.69880493,0.00245504
5130.62761230,0.00253027
5132.55641968,0.00245677
5134.48522705,0.00239897
5136.41403442,0.00243323
5138.34284180,0.00250567
5140.27164917,0.00250927
5142.20045654,0.00241450
5144.12926392,0.00245205
5146.05807129,0.00241020
5147.98687866,0.00239069
5149.91568603,0.00240277
5151.84449341,0.00241184
5153.77330078,0.00244329
5155.70210815,0.00234924
5157.63091553,0.00238365
5159.55972290,0.00239930
5161.48853027,0.00236949
5163.41733765,0.00240165
5165.34614502,0.00236440
5167.27495239,0.00234223
5169.20375977,0.00230533
5171.13256714,0.00228844
5173.06137451,0.00229627
5174.99018188,0.00230586
5176.91898926,0.00231648
5178.84779663,0.00232670
5180.77660400,0.00230960
5182.70541138,0.00225388
5184.63421875,0.00226620
5186.56302612,0.00229815
5188.49183350,0.00232691
5190.42064087,0.00230880
5192.34944824,0.00226683
5194.27825562,0.00223263
5196.20706299,0.00220155
5198.13587036,0.00224991
5200.06467773,0.00227483
5201.99348511,0.00226399
5203.92229248,0.00225959
5205.85109985,0.00221395
5207.77990723,0.00213820
5209.70871460,0.00214981
5211.63752197,0.00218389
5213.56632935,0.00219977
5215.49513672,0.00224019
5217.42394409,0.00218102
5219.35275146,0.00219771
5221.28155884,0.00220197
5223.21036621,0.00213010
5225.13917358,0.00216043
5227.06798096,0.00216302
5228.99678833,0.00213342
5230.92559570,0.00208435
5232.85440308,0.00208450
5234.78321045,0.00206039
5236.71201782,0.00204143
5238.64082520,0.00208282
5240.56963257,0.00212174
5242.49843994,0.00214329
5244.42724731,0.00201567
5246.35605469,0.00208698
5248.28486206,0.00207107
5250.21366943,0.00196118
5252.14247681,0.00214674
5254.07128418,0.00205429
5256.00009155,0.00202797
5257.92889893,0.00212069
5259.85770630,0.00207634
5261.78651367,0.00206789
5263.71532104,0.00190458
5265.64412842,0.00197054
5267.57293579,0.00208258
5269.50174316,0.00199936
5271.43055054,0.00204789
5273.35935791,0.00206679
5275.28816528,0.00195858
5277.21697266,0.00192109
5279.14578003,0.00204051
5281.07458740,0.00201103
5283.00339478,0.00193084
5284.93220215,0.00199155
5286.86100952,0.00198137
5288.78981689,0.00193069
5290.71862427,0.00190857
5292.64743164,0.00194958
5294.57623901,0.00199708
5296.50504639,0.00201973
5298.43385376,0.00198034
5300.36266113,0.00194133
5302.29146851,0.00199328
5304.22027588,0.00195454
5306.14908325,0.00190182
5308.07789062,0.00188488
5310.00669800,0.00187483
5311.93550537,0.00185188
5313.86431274,0.00183475
5315.79312012,0.00193065
5317.72192749,0.00189637
5319.65073486,0.00186293
5321.57954224,0.00191232
5323.50834961,0.00179819
5325.43715698,0.00181562
5327.36596436,0.00187703
5329.29477173,0.00179912
5331.22357910,0.00182799
5333.15238647,0.00183708
5335.08119385,0.00184814
5337.01000122,0.00183370
5338.93880859,0.00169034
5340.86761597,0.00176974
5342.79642334,0.00183242
5344.72523071,0.00167528
5346.65403809,0.00169278
5348.58284546,0.00180209
5350.51165283,0.00180435
5352.44046020,0.00171304
5354.36926758,0.00172994
5356.29807495,0.00182354
5358.22688232,0.00176470
5360.15568970,0.00184390
5362.08449707,0.00184859
5364.01330444,0.00167645
5365.94211182,0.00176914
5367.87091919,0.00175216
5369.79972656,0.00170950
5371.72853394,0.00180707
5373.65734131,0.00174431
5375.58614868,0.00177016
5377.51495605,0.00168302
5379.44376343,0.00164941
5381.37257080,0.00181572
5383.30137817,0.00171085
5385.23018555,0.00167812
5387.15899292,0.00169615
5389.08780029,0.00167845
5391.01660767,0.00172206
5392.94541504,0.00163235
5394.87422241,0.00164082
5396.80302978,0.00170009
5398.73183716,0.00171630
5400.66064453,0.00170629
5402.58945190,0.00166349
5404.51825928,0.00165599
5406.44706665,0.00166091
5408.37587402,0.00166821
5410.30468140,0.00162943
5412.23348877,0.00162799
5414.16229614,0.00156448
5416.09110352,0.00157258
5418.01991089,0.00163340
5419.94871826,0.00156507
5421.87752563,0.00162656
5423.80633301,0.00159642
5425.73514038,0.00157151
5427.66394775,0.00159173
5429.59275513,0.00150890
5431.52156250,0.00159053
5433.45036987,0.00160353
5435.37917725,0.00155525
5437.30798462,0.00157131
5439.23679199,0.00159121
5441.16559936,0.00158835
5443.09440674,0.00155079
5445.02321411,0.00152700
5446.95202148,0.00148392
5448.88082886,0.00154209
5450.80963623,0.00153085
5452.73844360,0.00148702
5454.66725098,0.00154059
5456.59605835,0.00158226
5458.52486572,0.00158425
5460.45367310,0.00148255
5462.38248047,0.00152052
5464.31128784,0.00147670
5466.24009521,0.00140243
5468.16890259,0.00149865
5470.09770996,0.00144323
5472.02651733,0.00154406
5473.95532471,0.00155126
5475.88413208,0.00139626
5477.81293945,0.00147388
5479.74174683,0.00143324
5481.67055420,0.00140610
5483.59936157,0.00145898
5485.52816895,0.00141645
5487.45697632,0.00140882
5489.38578369,0.00143206
5491.31459106,0.00141808
5493.24339844,0.00138913
5495.17220581,0.00146947
5497.10101318,0.00145145
5499.02982056,0.00137262
5500.95862793,0.00143426
5502.88743530,0.00143121
5504.81624268,0.00143165
5506.74505005,0.00142631
5508.67385742,0.00135391
5510.60266479,0.00134561
5512.53147217,0.00139850
5514.46027954,0.00136885
5516.38908691,0.00130965
5518.31789429,0.00142256
5520.24670166,0.00138037
5522.17550903,0.00132899
5524.10431641,0.00142622
5526.03312378,0.00133355
5527.96193115,0.00136782
5529.89073853,0.00138203
5531.81954590,0.00130278
5533.74835327,0.00135500
5535.67716064,0.00129171
5537.60596802,0.00129880
5539.53477539,0.00135274
5541.46358276,0.00134571
5543.39239014,0.00135426
5545.32119751,0.00127224
5547.25000488,0.00126109
5549.17881226,0.00130545
5551.10761963,0.00127237
5553.03642700,0.00130897
5554.96523437,0.00134528
5556.89404175,0.00130913
5558.82284912,0.00132547
5560.75165649,0.00129923
5562.68046387,0.00129035
5564.60927124,0.00130268
5566.53807861,0.00127614
5568.46688599,0.00128738
5570.39569336,0.00126616
5572.32450073,0.00132935
5574.25330811,0.00128339
5576.18211548,0.00119156
5578.11092285,0.00127099
5580.03973022,0.00126095
5581.96853760,0.00125754
5583.89734497,0.00120970
5585.82615234,0.00119286
5587.75495972,0.00124569
5589.68376709,0.00125995
5591.61257446,0.00129379
5593.54138184,0.00121647
5595.47018921,0.00117739
5597.39899658,0.00112905
5599.32780395,0.00116835
5601.25661133,0.00127157
5603.18541870,0.00123300
5605.11422607,0.00125016
5607.04303345,0.00122444
5608.97184082,0.00127824
5610.90064819,0.00127899
5612.82945557,0.00117559
5614.75826294,0.00124145
5616.68707031,0.00125758
5618.61587769,0.00121786
5620.54468506,0.00114493
5622.47349243,0.00118950
5624.40229980,0.00126688
5626.33110718,0.00118005
5628.25991455,0.00121595
5630.18872192,0.00122442
5632.11752930,0.00113308
5634.04633667,0.00112819
5635.97514404,0.00115396
5637.90395142,0.00117094
5639.83275879,0.00117015
5641.76156616,0.00118484
5643.69037353,0.00115022
5645.61918091,0.00113788
5647.54798828,0.00120104
5649.47679565,0.00113301
5651.40560303,0.00110733
5653.33441040,0.00115079
5655.26321777,0.00113532
5657.19202515,0.00119973
5659.12083252,0.00115134
5661.04963989,0.00109710
5662.97844727,0.00113436
5664.90725464,0.00111417
5666.83606201,0.00113397
5668.76486938,0.00108045
5670.69367676,0.00105437
5672.62248413,0.00108633
5674.55129150,0.00108164
5676.48009888,0.00105761
5678.40890625,0.00105158
5680.33771362,0.00113203
5682.26652100,0.00107593
5684.19532837,0.00104128
5686.12413574,0.00107048
5688.05294311,0.00103136
5689.98175049,0.00107946
5691.91055786,0.00111858
5693.83936523,0.00108967
5695.76817261,0.00104377
5697.69697998,0.00111573
5699.62578735,0.00111462
5701.55459473,0.00104405
5703.48340210,0.00111928
5705.41220947,0.00107733
5707.34101685,0.00101905
5709.26982422,0.00098943
5711.19863159,0.00098762
5713.12743896,0.00106534
5715.05624634,0.00103556
5716.98505371,0.00101141
5718.91386108,0.00102476
5720.84266846,0.00104183
5722.77147583,0.00101859
5724.70028320,0.00098038
5726.62909058,0.00103860
5728.55789795,0.00102194
5730.48670532,0.00098333
5732.41551270,0.00101618
5734.34432007,0.00099270
5736.27312744,0.00098846
5738.20193481,0.00098744
5740.13074219,0.00097150
5742.05954956,0.00102653
5743.98835693,0.00101521
5745.91716431,0.00096489
5747.84597168,0.00094675
5749.77477905,0.00091264
5751.70358643,0.00092203
5753.63239380,0.00097236
5755.56120117,0.00100957
5757.49000854,0.00099918
5759.41881592,0.00097479
5761.34762329,0.00095939
5763.27643066,0.00095853
5765.20523804,0.00091256
5767.13404541,0.00089044
5769.06285278,0.00094531
5770.99166016,0.00091827
5772.92046753,0.00093221
5774.84927490,0.00096664
5776.77808228,0.00097421
5778.70688965,0.00098258
5780.63569702,0.00091376
5782.56450439,0.00088810
5784.49331177,0.00089863
5786.42211914,0.00095222
5788.35092651,0.00099223
5790.27973389,0.00096798
5792.20854126,0.00091060
5794.13734863,0.00087813
5796.06615601,0.00092185
5797.99496338,0.00090244
5799.92377075,0.00089459
5801.85257812,0.00090701
5803.78138550,0.00089939
5805.71019287,0.00085071
5807.63900024,0.00087281
5809.56780762,0.00092128
5811.49661499,0.00081306
5813.42542236,0.00087227
5815.35422974,0.00089734
5817.28303711,0.00089097
5819.21184448,0.00098497
5821.14065186,0.00089562
5823.06945923,0.00084326
5824.99826660,0.00082171
5826.92707397,0.00084811
5828.85588135,0.00084945
5830.78468872,0.00080072
5832.71349609,0.00087297
5834.64230347,0.00087722
5836.57111084,0.00085073
5838.49991821,0.00084536
5840.42872559,0.00088315
5842.35753296,0.00086976
5844.28634033,0.00080212
5846.21514770,0.00082071
5848.14395508,0.00082079
5850.07276245,0.00081688
5852.00156982,0.00082080
5853.93037720,0.00080948
5855.85918457,0.00076223
5857.78799194,0.00074519
5859.71679932,0.00081134
5861.64560669,0.00083794
5863.57441406,0.00079253
5865.50322144,0.00081265
5867.43202881,0.00082640
5869.36083618,0.00076707
5871.28964355,0.00078472
5873.21845093,0.00077740
5875.14725830,0.00080599
5877.07606567,0.00074080
5879.00487305,0.00067856
5880.93368042,0.00077681
5882.86248779,0.00072918
5884.79129517,0.00079878
5886.72010254,0.00078742
5888.64890991,0.00075012
5890.57771728,0.00083090
5892.50652466,0.00076942
5894.43533203,0.00080234
5896.36413940,0.00073679
5898.29294678,0.00075901
5900.22175415,0.00076194
5902.15056152,0.00067631
5904.07936890,0.00079218
5906.00817627,0.00074427
5907.93698364,0.00072282
5909.86579102,0.00071933
5911.79459839,0.00070371
5913.72340576,0.00074974
5915.65221313,0.00075637
5917.58102051,0.00078325
5919.50982788,0.00074752
5921.43863525,0.00078701
5923.36744263,0.00077553
5925.29625000,0.00070550
5927.22505737,0.00068286
5929.15386475,0.00069312
5931.08267212,0.00070377
5933.01147949,0.00067072
5934.94028686,0.00072899
5936.86909424,0.00074785
5938.79790161,0.00075864
5940.72670898,0.00069935
5942.65551636,0.00068337
5944.58432373,0.00078755
5946.51313110,0.00071930
5948.44193848,0.00066086
5950.37074585,0.00068486
5952.29955322,0.00072191
5954.22836060,0.00065921
5956.15716797,0.00066822
5958.08597534,0.00075988
5960.01478271,0.00070332
5961.94359009,0.00067360
5963.87239746,0.00064699
5965.80120483,0.00072674
5967.73001221,0.00072311
5969.65881958,0.00063022
5971.58762695,0.00067896
5973.51643433,0.00067561
5975.44524170,0.00073377
5977.37404907,0.00074971
5979.30285645,0.00068633
5981.23166382,0.00064361
5983.16047119,0.00065061
5985.08927856,0.00072626
5987.01808594,0.00068991
5988.94689331,0.00062801
5990.87570068,0.00067043
5992.80450806,0.00071351
5994.73331543,0.00065371
5996.66212280,0.00068256
5998.59093018,0.00066832
6000.51973755,0.00059684
