399.26312622,0.00059330
401.19193359,0.00087132
403.12074097,0.00058323
405.04954834,0.00038955
406.97835571,0.00103479
408.90716309,0.00134706
410.83597046,0.00091208
412.76477783,0.00083361
414.69358521,0.00134563
416.62239258,0.00105119
418.55119995,0.00064283
420.48000732,0.00105933
422.40881470,0.00108526
424.33762207,0.00105341
426.26642944,0.00092985
428.19523682,0.00099589
430.12404419,0.00141207
432.05285156,0.00103601
433.98165894,0.00119128
435.91046631,0.00123110
437.83927368,0.00103213
439.76808105,0.00111491
441.69688843,0.00025151
443.62569580,0.00063873
445.55450317,0.00107594
447.48331055,0.00056377
449.41211792,0.00091524
451.34092529,0.00069145
453.26973267,0.00058961
455.19854004,0.00069107
457.12734741,0.00028106
459.05615479,0.00032194
460.98496216,0.00058625
462.91376953,0.00090647
464.84257690,0.00079939
466.77138428,0.00047596
468.70019165,0.00058900
470.62899902,0.00045478
472.55780640,0.00018603
474.48661377,0.00031805
476.41542114,0.00043158
478.34422852,0.00026416
480.27303589,0.00033362
482.20184326,0.00056663
484.13065063,0.00020076
486.05945801,0.00005215
487.98826538,0.00021881
489.91707275,0.00013852
491.84588013,0.00020518
493.77468750,0.00030065
495.70349487,0.00063900
497.63230225,0.00036927
499.56110962,-0.00004766
501.48991699,0.00028166
503.41872437,0.00024977
505.34753174,0.00011955
507.27633911,0.00012578
509.20514648,0.00032755
511.13395386,0.00016881
513.06276123,-0.00023241
514.99156860,0.00006381
516.92037598,0.00054988
518.84918335,0.00084302
520.77799072,0.00019753
522.70679810,-0.00004541
524.63560547,0.00032850
526.56441284,-0.00016627
528.49322021,-0.00029011
530.42202759,-0.00004965
532.35083496,-0.00004895
534.27964233,0.00010140
536.20844971,0.00042849
538.13725708,0.00027619
540.06606445,0.00014804
541.99487183,0.00017430
543.92367920,-0.00031320
545.85248657,0.00013941
547.78129395,0.00056275
549.71010132,0.00017888
551.63890869,0.00006114
553.56771606,-0.00010384
555.49652344,0.00021940
557.42533081,0.00043150
559.35413818,0.00004394
561.28294556,0.00013255
563.21175293,0.00019364
565.14056030,0.00009531
567.06936768,0.00001933
568.99817505,-0.00000837
570.92698242,-0.00002031
572.85578979,0.00003623
574.78459717,0.00018426
576.71340454,0.00012753
578.64221191,-0.00000093
580.57101929,0.00015299
582.49982666,0.00020612
584.42863403,0.00024149
586.35744141,0.00036240
588.28624878,-0.00005430
590.21505615,0.00018305
592.14386353,0.00027316
594.07267090,-0.00010504
596.00147827,0.00027470
597.93028564,0.00004385
599.85909302,-0.00001103
601.78790039,0.00020220
603.71670776,0.00032219
605.64551514,0.00040678
607.57432251,0.00013499
609.50312988,0.00018952
611.43193726,-0.00019471
613.36074463,0.00004258
615.28955200,0.00045702
617.21835938,0.00007341
619.14716675,0.00008278
621.07597412,0.00003608
623.00478149,0.00004988
624.93358887,0.00029281
626.86239624,0.00022554
628.79120361,0.00014550
630.72001099,0.00024017
632.64881836,0.00048136
634.57762573,0.00084314
636.50643311,0.00082617
638.43524048,0.00087206
640.36404785,0.00108805
642.29285522,0.00085026
644.22166260,0.00087263
646.15046997,0.00086749
648.07927734,0.00115900
650.00808472,0.00127352
651.93689209,0.00107369
653.86569946,0.00161849
655.79450684,0.00126344
657.72331421,0.00122652
659.65212158,0.00133150
661.58092896,0.00097122
663.50973633,0.00156665
665.43854370,0.00136061
667.36735107,0.00150793
669.29615845,0.00192115
671.22496582,0.00166911
673.15377319,0.00183322
675.08258057,0.00168617
677.01138794,0.00186994
678.94019531,0.00201177
680.86900269,0.00192959
682.79781006,0.00212560
684.72661743,0.00203880
686.65542480,0.00196223
688.58423218,0.00195728
690.51303955,0.00201900
692.44184692,0.00209188
694.37065430,0.00239465
696.29946167,0.00283133
698.22826904,0.00307552
700.15707642,0.00315643
702.08588379,0.00290611
704.01469116,0.00260210
705.94349854,0.00245367
707.87230591,0.00214059
709.80111328,0.00162549
711.72992065,0.00128635
713.65872803,0.00074545
715.58753540,0.00045617
717.51634277,0.00046838
719.44515015,0.00002381
721.37395752,0.00024561
723.30276489,0.00041590
725.23157227,-0.00002188
727.16037964,0.00008865
729.08918701,0.00015552
731.01799438,0.00020599
732.94680176,0.00037022
734.87560913,0.00023033
736.80441650,0.00030026
738.73322388,0.00049246
740.66203125,0.00031243
742.59083862,0.00009281
744.51964600,0.00029691
746.44845337,0.00057075
748.37726074,0.00033755
750.30606812,0.00006653
752.23487549,0.00033907
754.16368286,0.00049950
756.09249023,0.00034499
758.02129761,0.00033507
759.95010498,0.00039860
761.87891235,0.00013009
763.80771973,-0.00009510
765.73652710,0.00030312
767.66533447,0.00031576
769.59414185,0.00005843
771.52294922,0.00026122
773.45175659,0.00020182
775.38056396,0.00012671
777.30937134,0.00012755
779.23817871,0.00021426
781.16698608,0.00039759
783.09579346,0.00020150
785.02460083,0.00036736
786.95340820,0.00053194
788.88221558,0.00021555
790.81102295,0.00016263
792.73983032,0.00023607
794.66863770,0.00039020
796.59744507,0.00036621
798.52625244,0.00030655
800.45505981,0.00039807
802.38386719,0.00023307
804.31267456,0.00038974
806.24148193,0.00041540
808.17028931,0.00028189
810.09909668,0.00032480
812.02790405,0.00012863
813.95671143,0.00047004
815.88551880,0.00056918
817.81432617,0.00041815
819.74313354,0.00054052
821.67194092,0.00029201
823.60074829,0.00034540
825.52955566,0.00021840
827.45836304,0.00040500
829.38717041,0.00078436
831.31597778,0.00035234
833.24478516,0.00050003
835.17359253,0.00059331
837.10239990,0.00045389
839.03120728,0.00064520
840.96001465,0.00057916
842.88882202,0.00059950
844.81762939,0.00041642
846.74643677,0.00062832
848.67524414,0.00093804
850.60405151,0.00046307
852.53285889,0.00058531
854.46166626,0.00060181
856.39047363,0.00020950
858.31928101,0.00053404
860.24808838,0.00054430
862.17689575,0.00039825
864.10570313,0.00050441
866.03451050,0.00030225
867.96331787,0.00020886
869.89212524,0.00022933
871.82093262,0.00034869
873.74973999,0.00039991
875.67854736,0.00036458
877.60735474,0.00047189
879.53616211,0.00044865
881.46496948,0.00047706
883.39377686,0.00041890
885.32258423,0.00046533
887.25139160,0.00056687
889.18019897,0.00048232
891.10900635,0.00059558
893.03781372,0.00060826
894.96662109,0.00043679
896.89542847,0.00032434
898.82423584,0.00061481
900.75304321,0.00064920
902.68185059,0.00042090
904.61065796,0.00070949
906.53946533,0.00066265
908.46827271,0.00061204
910.39708008,0.00075426
912.32588745,0.00062932
914.25469482,0.00045840
916.18350220,0.00056914
918.11230957,0.00096799
920.04111694,0.00088975
921.96992432,0.00083816
923.89873169,0.00084111
925.82753906,0.00070098
927.75634644,0.00102062
929.68515381,0.00109699
931.61396118,0.00090681
933.54276855,0.00103796
935.47157593,0.00126588
937.40038330,0.00136203
939.32919067,0.00136082
941.25799805,0.00114195
943.18680542,0.00114248
945.11561279,0.00151686
947.04442017,0.00141502
948.97322754,0.00131491
950.90203491,0.00135881
952.83084229,0.00117320
954.75964966,0.00123313
956.68845703,0.00122199
958.61726440,0.00124209
960.54607178,0.00128356
962.47487915,0.00117664
964.40368652,0.00140657
966.33249390,0.00139281
968.26130127,0.00142211
970.19010864,0.00156847
972.11891602,0.00136593
974.04772339,0.00162020
975.97653076,0.00167193
977.90533813,0.00165766
979.83414551,0.00178376
981.76295288,0.00178994
983.69176025,0.00244813
985.62056763,0.00244228
987.54937500,0.00243663
989.47818237,0.00309385
991.40698975,0.00326158
993.33579712,0.00347711
995.26460449,0.00358599
997.19341187,0.00414388
999.12221924,0.00445897
1001.05102661,0.00435366
1002.97983398,0.00504371
1004.90864136,0.00530685
1006.83744873,0.00545272
1008.76625610,0.00574336
1010.69506348,0.00606191
1012.62387085,0.00637464
1014.55267822,0.00658359
1016.48148560,0.00717298
1018.41029297,0.00730589
1020.33910034,0.00766450
1022.26790771,0.00802623
1024.19671509,0.00828458
1026.12552246,0.00879484
1028.05432983,0.00873853
1029.98313721,0.00923684
1031.91194458,0.00943809
1033.84075195,0.00928939
1035.76955933,0.00952632
1037.69836670,0.00961214
1039.62717407,0.00994259
1041.55598145,0.00971631
1043.48478882,0.00972378
1045.41359619,0.01003220
1047.34240356,0.00973003
1049.27121094,0.00950347
1051.20001831,0.00927251
1053.12882568,0.00916464
1055.05763306,0.00903244
1056.98644043,0.00873663
1058.91524780,0.00837569
1060.84405518,0.00816967
1062.77286255,0.00813872
1064.70166992,0.00790760
1066.63047729,0.00760464
1068.55928467,0.00723992
1070.48809204,0.00700198
1072.41689941,0.00665956
1074.34570679,0.00638427
1076.27451416,0.00620489
1078.20332153,0.00572550
1080.13212891,0.00543684
1082.06093628,0.00523865
1083.98974365,0.00505977
1085.91855103,0.00481142
1087.84735840,0.00468979
1089.77616577,0.00478111
1091.70497314,0.00438889
1093.63378052,0.00403632
1095.56258789,0.00414206
1097.49139526,0.00411014
1099.42020264,0.00381519
1101.34901001,0.00376168
1103.27781738,0.00378189
1105.20662476,0.00361965
1107.13543213,0.00360388
1109.06423950,0.00354439
1110.99304687,0.00353715
1112.92185425,0.00357162
1114.85066162,0.00339080
1116.77946899,0.00345841
1118.70827637,0.00363311
1120.63708374,0.00355294
1122.56589111,0.00363336
1124.49469849,0.00365634
1126.42350586,0.00367958
1128.35231323,0.00394993
1130.28112061,0.00381340
1132.20992798,0.00390059
1134.13873535,0.00409828
1136.06754272,0.00400264
1137.99635010,0.00434075
1139.92515747,0.00432387
1141.85396484,0.00449456
1143.78277222,0.00516679
1145.71157959,0.00532668
1147.64038696,0.00556183
1149.56919434,0.00590630
1151.49800171,0.00608437
1153.42680908,0.00625629
1155.35561646,0.00663625
1157.28442383,0.00703221
1159.21323120,0.00717921
1161.14203857,0.00746010
1163.07084595,0.00773949
1164.99965332,0.00787234
1166.92846069,0.00813973
1168.85726807,0.00852627
1170.78607544,0.00857601
1172.71488281,0.00885398
1174.64369019,0.00950567
1176.57249756,0.00974718
1178.50130493,0.01018321
1180.43011230,0.01057887
1182.35891968,0.01078970
1184.28772705,0.01138010
1186.21653442,0.01203932
1188.14534180,0.01255109
1190.07414917,0.01277362
1192.00295654,0.01323486
1193.93176392,0.01387656
1195.86057129,0.01454174
1197.78937866,0.01530578
1199.71818604,0.01586875
1201.64699341,0.01665856
1203.57580078,0.01729884
1205.50460815,0.01792264
1207.43341553,0.01863629
1209.36222290,0.01914019
1211.29103027,0.01985472
1213.21983765,0.02020001
1215.14864502,0.02057983
1217.07745239,0.02106779
1219.00625977,0.02133318
1220.93506714,0.02191707
1222.86387451,0.02220480
1224.79268188,0.02224207
1226.72148926,0.02235153
1228.65029663,0.02245551
1230.57910400,0.02246173
1232.50791138,0.02244725
1234.43671875,0.02253966
1236.36552612,0.02243023
1238.29433350,0.02243648
1240.22314087,0.02239006
1242.15194824,0.02227097
1244.08075562,0.02225646
1246.00956299,0.02219925
1247.93837036,0.02203817
1249.86717773,0.02176879
1251.79598511,0.02168912
1253.72479248,0.02138789
1255.65359985,0.02118583
1257.58240723,0.02088729
1259.51121460,0.02043122
1261.44002197,0.02033985
1263.36882935,0.01997172
1265.29763672,0.01981711
1267.22644409,0.01955107
1269.15525146,0.01926858
1271.08405884,0.01910980
1273.01286621,0.01863902
1274.94167358,0.01846702
1276.87048096,0.01794315
1278.79928833,0.01760100
1280.72809570,0.01735700
1282.65690308,0.01697283
1284.58571045,0.01686103
1286.51451782,0.01634448
1288.44332520,0.01613054
1290.37213257,0.01593589
1292.30093994,0.01573863
1294.22974731,0.01579792
1296.15855469,0.01557509
1298.08736206,0.01552187
1300.01616943,0.01574494
1301.94497681,0.01571874
1303.87378418,0.01551639
1305.80259155,0.01597708
1307.73139893,0.01624210
1309.66020630,0.01632821
1311.58901367,0.01658126
1313.51782104,0.01673194
1315.44662842,0.01739119
1317.37543579,0.01748165
1319.30424316,0.01789016
1321.23305054,0.01878460
1323.16185791,0.01900687
1325.09066528,0.01953656
1327.01947266,0.02017849
1328.94828003,0.02078260
1330.87708740,0.02119558
1332.80589478,0.02158216
1334.73470215,0.02196608
1336.66350952,0.02205512
1338.59231689,0.02179832
1340.52112427,0.02179701
1342.44993164,0.02299026
1344.37873901,0.02333880
1346.30754639,0.02311952
1348.23635376,0.02315458
1350.16516113,0.02287263
1352.09396851,0.02299170
1354.02277588,0.02259669
1355.95158325,0.02230158
1357.88039062,0.02219975
1359.80919800,0.02184286
1361.73800537,0.02090675
1363.66681274,0.02044459
1365.59562012,0.02170641
1367.52442749,0.02111420
1369.45323486,0.02080465
1371.38204224,0.02125809
1373.31084961,0.01987314
1375.23965698,0.02021682
1377.16846436,0.02089933
1379.09727173,0.02078400
1381.02607910,0.02082181
1382.95488647,0.02077897
1384.88369385,0.02071494
1386.81250122,0.01967656
1388.74130859,0.02008027
1390.67011597,0.02170820
1392.59892334,0.02097489
1394.52773071,0.01967443
1396.45653809,0.02075578
1398.38534546,0.02040089
1400.31415283,0.02027729
1402.24296021,0.02229080
1404.17176758,0.02089142
1406.10057495,0.02099254
1408.02938232,0.02193709
1409.95818970,0.02112217
1411.88699707,0.02157556
1413.81580444,0.02083105
1415.74461182,0.02123713
1417.67341919,0.01879598
1419.60222656,0.01674349
1421.53103394,0.01966792
1423.45984131,0.01903072
1425.38864868,0.01861012
1427.31745605,0.01888616
1429.24626343,0.01721493
1431.17507080,0.01692070
1433.10387817,0.01736311
1435.03268555,0.01553751
1436.96149292,0.01313500
1438.89030029,0.01525366
1440.81910767,0.01554664
1442.74791504,0.01445004
1444.67672241,0.01527082
1446.60552979,0.01386113
1448.53433716,0.01415355
1450.46314453,0.01473618
1452.39195190,0.01497660
1454.32075928,0.01531491
1456.24956665,0.01221567
1458.17837402,0.01291350
1460.10718140,0.01755424
1462.03598877,0.01859976
1463.96479614,0.01823986
1465.89360352,0.01884223
1467.82241089,0.02187612
1469.75121826,0.02324466
1471.68002563,0.02006290
1473.60883301,0.02135101
1475.53764038,0.02436718
1477.46644775,0.02633357
1479.39525513,0.02903813
1481.32406250,0.02906193
1483.25286987,0.03101978
1485.18167725,0.03196474
1487.11048462,0.03112700
1489.03929199,0.03062860
1490.96809937,0.03082447
1492.89690674,0.03650911
1494.82571411,0.03498258
1496.75452148,0.03088588
1498.68332886,0.03565916
1500.61213623,0.03678251
1502.54094360,0.03983729
1504.46975098,0.03688057
1506.39855835,0.02525723
1508.32736572,0.03231250
1510.25617310,0.03850888
1512.18498047,0.03733021
1514.11378784,0.04079911
1516.04259521,0.03583559
1517.97140259,0.03783058
1519.90020996,0.03614536
1521.82901733,0.03070389
1523.75782471,0.03888346
1525.68663208,0.03769702
1527.61543945,0.03769027
1529.54424683,0.04239693
1531.47305420,0.04031900
1533.40186157,0.03634945
1535.33066895,0.03918023
1537.25947632,0.04201432
1539.18828369,0.02846533
1541.11709106,0.03044821
1543.04589844,0.03702271
1544.97470581,0.03557552
1546.90351318,0.04319952
1548.83232056,0.03958058
1550.76112793,0.04112466
1552.68993530,0.04074535
1554.61874268,0.03680746
1556.54755005,0.03929611
1558.47635742,0.02581313
1560.40516479,0.02906722
1562.33397217,0.04315780
1564.26277954,0.04038855
1566.19158691,0.04205214
1568.12039429,0.04109151
1570.04920166,0.03575285
1571.97800903,0.04259755
1573.90681641,0.04269186
1575.83562378,0.03277753
1577.76443115,0.03817322
1579.69323853,0.04334807
1581.62204590,0.04141666
1583.55085327,0.04267256
1585.47966064,0.04181453
1587.40846802,0.04211656
1589.33727539,0.04155751
1591.26608276,0.04175764
1593.19489014,0.04179109
1595.12369751,0.04114523
1597.05250488,0.04183280
1598.98131226,0.04158441
1600.91011963,0.04170424
1602.83892700,0.04079287
1604.76773437,0.04174369
1606.69654175,0.04091611
1608.62534912,0.04083084
1610.55415649,0.04080775
1612.48296387,0.04114017
1614.41177124,0.04149160
1616.34057861,0.03293304
1618.26938599,0.03676378
1620.19819336,0.04316661
1622.12700073,0.03728499
1624.05580811,0.03771224
1625.98461548,0.03991753
1627.91342285,0.03943764
1629.84223022,0.03938562
1631.77103760,0.04266695
1633.69984497,0.03827501
1635.62865234,0.03079352
1637.55745972,0.03711810
1639.48626709,0.04109085
1641.41507446,0.04005478
1643.34388184,0.04128171
1645.27268921,0.03636873
1647.20149658,0.03124775
1649.13030396,0.04052362
1651.05911133,0.03765423
1652.98791870,0.02242994
1654.91672607,0.03314501
1656.84553345,0.04228296
1658.77434082,0.04005247
1660.70314819,0.04128150
1662.63195557,0.03686912
1664.56076294,0.03940686
1666.48957031,0.04258469
1668.41837769,0.03611508
1670.34718506,0.03514685
1672.27599243,0.04072230
1674.20479980,0.03680810
1676.13360718,0.03536344
1678.06241455,0.04163969
1679.99122192,0.03970185
1681.92002930,0.03886192
1683.84883667,0.03043086
1685.77764404,0.03086186
1687.70645142,0.04372853
1689.63525879,0.03702066
1691.56406616,0.04162272
1693.49287354,0.04183257
1695.42168091,0.02947513
1697.35048828,0.03772704
1699.27929565,0.03177280
1701.20810303,0.02869022
1703.13691040,0.04090530
1705.06571777,0.03653069
1706.99452515,0.03744175
1708.92333252,0.04094861
1710.85213989,0.03909576
1712.78094727,0.04014995
1714.70975464,0.03621834
1716.63856201,0.03203611
1718.56736938,0.03184838
1720.49617676,0.03864848
1722.42498413,0.04025504
1724.35379150,0.03711707
1726.28259888,0.04092301
1728.21140625,0.03718016
1730.14021362,0.03770699
1732.06902100,0.03627476
1733.99782837,0.02634988
1735.92663574,0.03454598
1737.85544312,0.03825112
1739.78425049,0.03360368
1741.71305786,0.03705101
1743.64186523,0.03729133
1745.57067261,0.03746694
1747.49947998,0.03763584
1749.42828735,0.03561670
1751.35709473,0.03388933
1753.28590210,0.03825745
1755.21470947,0.03984318
1757.14351685,0.03593455
1759.07232422,0.04024474
1761.00113159,0.03699353
1762.92993896,0.03603380
1764.85874634,0.04185959
1766.78755371,0.03682920
1768.71636108,0.03759403
1770.64516846,0.03687553
1772.57397583,0.03265931
1774.50278320,0.03721737
1776.43159058,0.03946919
1778.36039795,0.03895818
1780.28920532,0.03832806
1782.21801270,0.03882718
1784.14682007,0.03863504
1786.07562744,0.03776538
1788.00443481,0.04011407
1789.93324219,0.03850911
1791.86204956,0.03439239
1793.79085693,0.03630811
1795.71966431,0.03925925
1797.64847168,0.03877141
1799.57727905,0.03780690
1801.50608643,0.03701794
1803.43489380,0.03862160
1805.36370117,0.03938423
1807.29250854,0.03874933
1809.22131592,0.03884391
1811.15012329,0.03762753
1813.07893066,0.03907564
1815.00773804,0.03917936
1816.93654541,0.03870413
1818.86535278,0.03912054
1820.79416016,0.03898900
1822.72296753,0.03949993
1824.65177490,0.03634323
1826.58058228,0.03788894
1828.50938965,0.03777809
1830.43819702,0.03522199
1832.36700439,0.03906183
1834.29581177,0.03866097
1836.22461914,0.03858893
1838.15342651,0.03829883
1840.08223389,0.03854089
1842.01104126,0.03850000
1843.93984863,0.03353725
1845.86865601,0.03625092
1847.79746338,0.03832340
1849.72627075,0.03747921
1851.65507812,0.03882400
1853.58388550,0.03789913
1855.51269287,0.03841885
1857.44150024,0.03790029
1859.37030762,0.03777746
1861.29911499,0.03822185
1863.22792236,0.03745507
1865.15672974,0.03794309
1867.08553711,0.03632877
1869.01434448,0.03441030
1870.94315186,0.03630989
1872.87195923,0.03792232
1874.80076660,0.03711974
1876.72957397,0.03756966
1878.65838135,0.03742243
1880.58718872,0.03696571
1882.51599609,0.03714982
1884.44480347,0.03659478
1886.37361084,0.03733090
1888.30241821,0.03604221
1890.23122559,0.03528933
1892.16003296,0.03688697
1894.08884033,0.03623594
1896.01764771,0.03619711
1897.94645508,0.03646895
1899.87526245,0.03635389
1901.80406982,0.03649855
1903.73287720,0.03600320
1905.66168457,0.03632770
1907.59049194,0.03589220
1909.51929932,0.03544656
1911.44810669,0.03577157
1913.37691406,0.03592135
1915.30572144,0.03610668
1917.23452881,0.03416035
1919.16333618,0.03424434
1921.09214355,0.03571594
1923.02095093,0.03447031
1924.94975830,0.03528628
1926.87856567,0.03572574
1928.80737305,0.03529603
1930.73618042,0.03562939
1932.66498779,0.03503501
1934.59379517,0.03544228
1936.52260254,0.03510162
1938.45140991,0.03538956
1940.38021729,0.03517319
1942.30902466,0.03365923
1944.23783203,0.03458263
1946.16663940,0.03491920
1948.09544678,0.03493019
1950.02425415,0.03511234
1951.95306152,0.03471040
1953.88186890,0.03481084
1955.81067627,0.03470065
1957.73948364,0.03475620
1959.66829102,0.03463183
1961.59709839,0.03461331
1963.52590576,0.03469369
1965.45471313,0.03429275
1967.38352051,0.03399801
1969.31232788,0.03429826
1971.24113525,0.03448404
1973.16994263,0.03426188
1975.09875000,0.03428219
1977.02755737,0.03405002
1978.95636475,0.03423264
1980.88517212,0.03420021
1982.81397949,0.03394994
1984.74278687,0.03412832
1986.67159424,0.03376994
1988.60040161,0.03382915
1990.52920898,0.03341884
1992.45801636,0.03294703
1994.38682373,0.03357769
1996.31563110,0.03350188
1998.24443848,0.03325171
2000.17324585,0.03335589
2002.10205322,0.03313083
2004.03086060,0.03311317
2005.95966797,0.03312440
2007.88847534,0.03295138
2009.81728271,0.03292196
2011.74609009,0.03279435
2013.67489746,0.03291543
2015.60370483,0.03262450
2017.53251221,0.03215092
2019.46131958,0.03241917
2021.39012695,0.03224010
2023.31893433,0.03220945
2025.24774170,0.03227770
2027.17654907,0.03207023
2029.10535645,0.03214024
2031.03416382,0.03194338
2032.96297119,0.03184312
2034.89177856,0.03179550
2036.82058594,0.03175467
2038.74939331,0.03162300
2040.67820068,0.03145078
2042.60700806,0.03145323
2044.53581543,0.03131863
2046.46462280,0.03132246
2048.39343018,0.03125749
2050.32223755,0.03124726
2052.25104492,0.03107662
2054.17985229,0.03078713
2056.10865967,0.03092846
2058.03746704,0.03078760
2059.96627441,0.03061544
2061.89508179,0.03069864
2063.82388916,0.03044508
2065.75269653,0.03034034
2067.68150391,0.03043858
2069.61031128,0.03025023
2071.53911865,0.03021973
2073.46792603,0.03016835
2075.39673340,0.03008747
2077.32554077,0.03010438
2079.25434814,0.02997717
2081.18315552,0.02992183
2083.11196289,0.02980311
2085.04077026,0.02986931
2086.96957764,0.02973513
2088.89838501,0.02949797
2090.82719238,0.02952027
2092.75599976,0.02943981
2094.68480713,0.02949465
2096.61361450,0.02924265
2098.54242187,0.02916846
2100.47122925,0.02920224
2102.40003662,0.02898530
2104.32884399,0.02900615
2106.25765137,0.02889908
2108.18645874,0.02894434
2110.11526611,0.02892419
2112.04407349,0.02878260
2113.97288086,0.02871875
2115.90168823,0.02871941
2117.83049561,0.02878040
2119.75930298,0.02859848
2121.68811035,0.02853225
2123.61691772,0.02844854
2125.54572510,0.02831165
2127.47453247,0.02830793
2129.40333984,0.02842511
2131.33214722,0.02839420
2133.26095459,0.02821580
2135.18976196,0.02807507
2137.11856934,0.02791131
2139.04737671,0.02811677
2140.97618408,0.02808484
2142.90499146,0.02789452
2144.83379883,0.02787660
2146.76260620,0.02779131
2148.69141357,0.02780225
2150.62022095,0.02767877
2152.54902832,0.02766657
2154.47783569,0.02763129
2156.40664307,0.02761000
2158.33545044,0.02750501
2160.26425781,0.02732242
2162.19306519,0.02740616
2164.12187256,0.02735107
2166.05067993,0.02733613
2167.97948730,0.02729107
2169.90829468,0.02726678
2171.83710205,0.02721278
2173.76590942,0.02713501
2175.69471680,0.02713378
2177.62352417,0.02698810
2179.55233154,0.02700168
2181.48113892,0.02684114
2183.40994629,0.02677545
2185.33875366,0.02690168
2187.26756104,0.02683548
2189.19636841,0.02676945
2191.12517578,0.02671455
2193.05398315,0.02670745
2194.98279053,0.02658827
2196.91159790,0.02651808
2198.84040527,0.02642745
2200.76921265,0.02637526
2202.69802002,0.02633401
2204.62682739,0.02624668
2206.55563477,0.02637205
2208.48444214,0.02621971
2210.41324951,0.02609692
2212.34205688,0.02617982
2214.27086426,0.02610163
2216.19967163,0.02609972
2218.12847900,0.02610002
2220.05728638,0.02586036
2221.98609375,0.02577920
2223.91490112,0.02592277
2225.84370850,0.02580120
2227.77251587,0.02568552
2229.70132324,0.02563292
2231.63013062,0.02562133
2233.55893799,0.02555719
2235.48774536,0.02547891
2237.41655273,0.02552505
2239.34536011,0.02535770
2241.27416748,0.02534334
2243.20297485,0.02537053
2245.13178223,0.02529354
2247.06058960,0.02516032
2248.98939697,0.02508690
2250.91820435,0.02510545
2252.84701172,0.02494652
2254.77581909,0.02499707
2256.70462646,0.02483327
2258.63343384,0.02470095
2260.56224121,0.02478974
2262.49104858,0.02468384
2264.41985596,0.02464605
2266.34866333,0.02449283
2268.27747070,0.02458260
2270.20627808,0.02467301
2272.13508545,0.02451949
2274.06389282,0.02447867
2275.99270020,0.02448935
2277.92150757,0.02446009
2279.85031494,0.02434386
2281.77912231,0.02435491
2283.70792969,0.02418654
2285.63673706,0.02415138
2287.56554443,0.02423851
2289.49435181,0.02401063
2291.42315918,0.02404762
2293.35196655,0.02398115
2295.28077393,0.02371820
2297.20958130,0.02382098
2299.13838867,0.02382431
2301.06719604,0.02358910
2302.99600342,0.02349254
2304.92481079,0.02339156
2306.85361816,0.02326185
2308.78242554,0.02305551
2310.71123291,0.02279211
2312.64004028,0.02254931
2314.56884766,0.02234089
2316.49765503,0.02221783
2318.42646240,0.02177480
2320.35526978,0.02152893
2322.28407715,0.02140683
2324.21288452,0.02102852
2326.14169189,0.02082782
2328.07049927,0.02053947
2329.99930664,0.02038812
2331.92811401,0.02017598
2333.85692139,0.01994490
2335.78572876,0.01992121
2337.71453613,0.01991411
2339.64334351,0.01999430
2341.57215088,0.01998329
2343.50095825,0.02022378
2345.42976562,0.02052918
2347.35857300,0.02132639
2349.28738037,0.02192654
2351.21618774,0.02110804
2353.14499512,0.02017318
2355.07380249,0.01940178
2357.00260986,0.01886487
2358.93141724,0.01860832
2360.86022461,0.01840166
2362.78903198,0.01843934
2364.71783936,0.01847141
2366.64664673,0.01865356
2368.57545410,0.01896340
2370.50426147,0.01942236
2372.43306885,0.01993875
2374.36187622,0.02037667
2376.29068359,0.02080226
2378.21949097,0.02131208
2380.14829834,0.02160552
2382.07710571,0.02161784
2384.00591309,0.02187592
2385.93472046,0.02179391
2387.86352783,0.02174025
2389.79233521,0.02186006
2391.72114258,0.02169101
2393.64994995,0.02175219
2395.57875732,0.02166869
2397.50756470,0.02171127
2399.43637207,0.02183555
2401.36517944,0.02162359
2403.29398682,0.02157141
2405.22279419,0.02151628
2407.15160156,0.02142330
2409.08040894,0.02140509
2411.00921631,0.02142072
2412.93802368,0.02140524
2414.86683105,0.02129919
2416.79563843,0.02129490
2418.72444580,0.02127140
2420.65325317,0.02114840
2422.58206055,0.02115657
2424.51086792,0.02116381
2426.43967529,0.02105431
2428.36848267,0.02095019
2430.29729004,0.02095911
2432.22609741,0.02104913
2434.15490479,0.02096447
2436.08371216,0.02086872
2438.01251953,0.02082827
2439.94132690,0.02081690
2441.87013428,0.02075341
2443.79894165,0.02058330
2445.72774902,0.02066243
2447.65655640,0.02061525
2449.58536377,0.02046839
2451.51417114,0.02053989
2453.44297852,0.02052451
2455.37178589,0.02050388
2457.30059326,0.02051722
2459.22940063,0.02040872
2461.15820801,0.02035685
2463.08701538,0.02035154
2465.01582275,0.02022031
2466.94463013,0.02027891
2468.87343750,0.02019786
2470.80224487,0.02018224
2472.73105225,0.02030673
2474.65985962,0.01993606
2476.58866699,0.02001587
2478.51747437,0.02009647
2480.44628174,0.01984372
2482.37508911,0.01993857
2484.30389648,0.01985818
2486.23270386,0.01978602
2488.16151123,0.01978479
2490.09031860,0.01979290
2492.01912598,0.01975428
2493.94793335,0.01967574
2495.87674072,0.01964841
2497.80554810,0.01958652
2499.73435547,0.01967685
2501.66316284,0.01957976
2503.59197021,0.01945183
2505.52077759,0.01944818
2507.44958496,0.01937257
2509.37839233,0.01937992
2511.30719971,0.01937043
2513.23600708,0.01919144
2515.16481445,0.01909703
2517.09362183,0.01920282
2519.02242920,0.01917646
2520.95123657,0.01915193
2522.88004395,0.01912078
2524.80885132,0.01905294
2526.73765869,0.01898487
2528.66646606,0.01899791
2530.59527344,0.01900938
2532.52408081,0.01883929
2534.45288818,0.01892477
2536.38169556,0.01886173
2538.31050293,0.01885780
2540.23931030,0.01888485
2542.16811768,0.01866056
2544.09692505,0.01876463
2546.02573242,0.01872252
2547.95453979,0.01870072
2549.88334717,0.01861330
2551.81215454,0.01851134
2553.74096191,0.01859743
2555.66976929,0.01855146
2557.59857666,0.01859028
2559.52738403,0.01839508
2561.45619141,0.01842240
2563.38499878,0.01847081
2565.31380615,0.01830535
2567.24261353,0.01832926
2569.17142090,0.01824187
2571.10022827,0.01823021
2573.02903564,0.01817435
2574.95784302,0.01816405
2576.88665039,0.01812696
2578.81545776,0.01804085
2580.74426514,0.01801837
2582.67307251,0.01798598
2584.60187988,0.01800311
2586.53068726,0.01788112
2588.45949463,0.01788390
2590.38830200,0.01770619
2592.31710937,0.01765711
2594.24591675,0.01786644
2596.17472412,0.01778083
2598.10353149,0.01775240
2600.03233887,0.01767596
2601.96114624,0.01771288
2603.88995361,0.01774523
2605.81876099,0.01757562
2607.74756836,0.01749653
2609.67637573,0.01757136
2611.60518311,0.01750610
2613.53399048,0.01726333
2615.46279785,0.01745334
2617.39160522,0.01746046
2619.32041260,0.01728792
2621.24921997,0.01736448
2623.17802734,0.01729619
2625.10683472,0.01725943
2627.03564209,0.01718036
2628.96444946,0.01715939
2630.89325684,0.01715795
2632.82206421,0.01712087
2634.75087158,0.01720101
2636.67967895,0.01709615
2638.60848633,0.01693762
2640.53729370,0.01695120
2642.46610107,0.01692035
2644.39490845,0.01690908
2646.32371582,0.01699527
2648.25252319,0.01687596
2650.18133057,0.01683753
2652.11013794,0.01686931
2654.03894531,0.01673523
2655.96775269,0.01674488
2657.89656006,0.01679045
2659.82536743,0.01667239
2661.75417480,0.01644190
2663.68298218,0.01647430
2665.61178955,0.01656445
2667.54059692,0.01645868
2669.46940430,0.01652214
2671.39821167,0.01655432
2673.32701904,0.01641321
2675.25582642,0.01631000
2677.18463379,0.01636642
2679.11344116,0.01636143
2681.04224854,0.01629880
2682.97105591,0.01629315
2684.89986328,0.01625637
2686.82867065,0.01625879
2688.75747803,0.01603313
2690.68628540,0.01591839
2692.61509277,0.01615027
2694.54390015,0.01614117
2696.47270752,0.01601500
2698.40151489,0.01601228
2700.33032227,0.01600327
2702.25912964,0.01593662
2704.18793701,0.01583688
2706.11674438,0.01592279
2708.04555176,0.01596340
2709.97435913,0.01576652
2711.90316650,0.01576633
2713.83197388,0.01574484
2715.76078125,0.01565291
2717.68958862,0.01563831
2719.61839600,0.01555430
2721.54720337,0.01557152
2723.47601074,0.01549788
2725.40481812,0.01547723
2727.33362549,0.01545469
2729.26243286,0.01535461
2731.19124023,0.01542114
2733.12004761,0.01535393
2735.04885498,0.01533198
2736.97766235,0.01537240
2738.90646973,0.01532102
2740.83527710,0.01520786
2742.76408447,0.01512221
2744.69289185,0.01517569
2746.62169922,0.01519258
2748.55050659,0.01510606
2750.47931396,0.01500359
2752.40812134,0.01513715
2754.33692871,0.01509575
2756.26573608,0.01490367
2758.19454346,0.01492266
2760.12335083,0.01487376
2762.05215820,0.01488131
2763.98096558,0.01486328
2765.90977295,0.01487856
2767.83858032,0.01482759
2769.76738770,0.01468028
2771.69619507,0.01472866
2773.62500244,0.01462409
2775.55380981,0.01449418
2777.48261719,0.01458154
2779.41142456,0.01463798
2781.34023193,0.01464072
2783.26903931,0.01461187
2785.19784668,0.01444109
2787.12665405,0.01439083
2789.05546143,0.01433166
2790.98426880,0.01427155
2792.91307617,0.01441773
2794.84188354,0.01427285
2796.77069092,0.01423732
2798.69949829,0.01424132
2800.62830566,0.01411189
2802.55711304,0.01416411
2804.48592041,0.01407577
2806.41472778,0.01403816
2808.34353516,0.01398195
2810.27234253,0.01394543
2812.20114990,0.01392683
2814.12995728,0.01394604
2816.05876465,0.01398533
2817.98757202,0.01385899
2819.91637939,0.01389760
2821.84518677,0.01383140
2823.77399414,0.01384516
2825.70280151,0.01382319
2827.63160889,0.01365992
2829.56041626,0.01356230
2831.48922363,0.01348233
2833.41803101,0.01373143
2835.34683838,0.01361075
2837.27564575,0.01343936
2839.20445312,0.01349949
2841.13326050,0.01341166
2843.06206787,0.01338424
2844.99087524,0.01323231
2846.91968262,0.01327370
2848.84848999,0.01324569
2850.77729736,0.01317795
2852.70610474,0.01319131
2854.63491211,0.01307965
2856.56371948,0.01304729
2858.49252686,0.01294979
2860.42133423,0.01302795
2862.35014160,0.01302992
2864.27894897,0.01296633
2866.20775635,0.01298283
2868.13656372,0.01294175
2870.06537109,0.01294246
2871.99417847,0.01282104
2873.92298584,0.01278607
2875.85179321,0.01272295
2877.78060059,0.01272627
2879.70940796,0.01272149
2881.63821533,0.01263426
2883.56702270,0.01269558
2885.49583008,0.01262689
2887.42463745,0.01266295
2889.35344482,0.01262342
2891.28225220,0.01255848
2893.21105957,0.01260624
2895.13986694,0.01246785
2897.06867432,0.01243185
2898.99748169,0.01242687
2900.92628906,0.01240321
2902.85509644,0.01236243
2904.78390381,0.01230302
2906.71271118,0.01233064
2908.64151855,0.01234935
2910.57032593,0.01228823
2912.49913330,0.01219646
2914.42794067,0.01224613
2916.35674805,0.01226926
2918.28555542,0.01215870
2920.21436279,0.01207013
2922.14317017,0.01204836
2924.07197754,0.01196327
2926.00078491,0.01195108
2927.92959229,0.01198442
2929.85839966,0.01192054
2931.78720703,0.01206056
2933.71601440,0.01201769
2935.64482178,0.01187656
2937.57362915,0.01193867
2939.50243652,0.01191407
2941.43124390,0.01189563
2943.36005127,0.01183145
2945.28885864,0.01193555
2947.21766602,0.01192168
2949.14647339,0.01177226
2951.07528076,0.01186759
2953.00408813,0.01175162
2954.93289551,0.01173852
2956.86170288,0.01169345
2958.79051025,0.01152139
2960.71931763,0.01161169
2962.64812500,0.01150351
2964.57693237,0.01152766
2966.50573975,0.01159993
2968.43454712,0.01142034
2970.36335449,0.01149207
2972.29216187,0.01148937
2974.22096924,0.01141156
2976.14977661,0.01145701
2978.07858398,0.01142414
2980.00739136,0.01143645
2981.93619873,0.01141111
2983.86500610,0.01144969
2985.79381348,0.01143819
2987.72262085,0.01132428
2989.65142822,0.01141711
2991.58023560,0.01132102
2993.50904297,0.01124333
2995.43785034,0.01131741
2997.36665771,0.01119744
2999.29546509,0.01121281
3001.22427246,0.01117039
3003.15307983,0.01111693
3005.08188721,0.01114774
3007.01069458,0.01102214
3008.93950195,0.01106396
3010.86830933,0.01105675
3012.79711670,0.01095525
3014.72592407,0.01097909
3016.65473145,0.01094907
3018.58353882,0.01096421
3020.51234619,0.01096832
3022.44115356,0.01087076
3024.36996094,0.01079460
3026.29876831,0.01079133
3028.22757568,0.01075573
3030.15638306,0.01067519
3032.08519043,0.01065481
3034.01399780,0.01062825
3035.94280518,0.01059395
3037.87161255,0.01055579
3039.80041992,0.01056612
3041.72922729,0.01057744
3043.65803467,0.01054640
3045.58684204,0.01056000
3047.51564941,0.01052420
3049.44445679,0.01051847
3051.37326416,0.01041581
3053.30207153,0.01026647
3055.23087891,0.01035228
3057.15968628,0.01035604
3059.08849365,0.01030858
3061.01730103,0.01037177
3062.94610840,0.01033414
3064.87491577,0.01019575
3066.80372314,0.01017111
3068.73253052,0.01023197
3070.66133789,0.01010807
3072.59014526,0.01005174
3074.51895264,0.01013516
3076.44776001,0.01009033
3078.37656738,0.01002444
3080.30537476,0.00996636
3082.23418213,0.00999986
3084.16298950,0.00998180
3086.09179687,0.00986609
3088.02060425,0.00996616
3089.94941162,0.00995769
3091.87821899,0.00980044
3093.80702637,0.00979550
3095.73583374,0.00981752
3097.66464111,0.00982718
3099.59344849,0.00975727
3101.52225586,0.00972277
3103.45106323,0.00979170
3105.37987061,0.00978426
3107.30867798,0.00974227
3109.23748535,0.00964257
3111.16629272,0.00954762
3113.09510010,0.00958212
3115.02390747,0.00959673
3116.95271484,0.00952896
3118.88152222,0.00950759
3120.81032959,0.00948693
3122.73913696,0.00944976
3124.66794434,0.00944169
3126.59675171,0.00940885
3128.52555908,0.00942326
3130.45436645,0.00930265
3132.38317383,0.00920464
3134.31198120,0.00932116
3136.24078857,0.00925754
3138.16959595,0.00920162
3140.09840332,0.00919870
3142.02721069,0.00920238
3143.95601807,0.00930480
3145.88482544,0.00920353
3147.81363281,0.00910086
3149.74244019,0.00904434
3151.67124756,0.00896361
3153.60005493,0.00902531
3155.52886230,0.00900510
3157.45766968,0.00895699
3159.38647705,0.00901141
3161.31528442,0.00897601
3163.24409180,0.00889393
3165.17289917,0.00882639
3167.10170654,0.00871361
3169.03051392,0.00864874
3170.95932129,0.00872895
3172.88812866,0.00881315
3174.81693604,0.00867440
3176.74574341,0.00860535
3178.67455078,0.00864044
3180.60335815,0.00853668
3182.53216553,0.00854063
3184.46097290,0.00844903
3186.38978027,0.00842792
3188.31858765,0.00856802
3190.24739502,0.00842411
3192.17620239,0.00839287
3194.10500977,0.00851536
3196.03381714,0.00849335
3197.96262451,0.00837563
3199.89143188,0.00837282
3201.82023926,0.00834447
3203.74904663,0.00824762
3205.67785400,0.00843387
3207.60666138,0.00834719
3209.53546875,0.00819225
3211.46427612,0.00828741
3213.39308350,0.00819957
3215.32189087,0.00812701
3217.25069824,0.00801937
3219.17950562,0.00808771
3221.10831299,0.00814815
3223.03712036,0.00804223
3224.96592773,0.00814209
3226.89473511,0.00805100
3228.82354248,0.00798838
3230.75234985,0.00801266
3232.68115723,0.00795307
3234.60996460,0.00804198
3236.53877197,0.00794465
3238.46757935,0.00786637
3240.39638672,0.00792202
3242.32519409,0.00788763
3244.25400146,0.00791497
3246.18280884,0.00785683
3248.11161621,0.00784931
3250.04042358,0.00785783
3251.96923096,0.00771063
3253.89803833,0.00776720
3255.82684570,0.00780509
3257.75565308,0.00774825
3259.68446045,0.00783988
3261.61326782,0.00782219
3263.54207520,0.00778181
3265.47088257,0.00780078
3267.39968994,0.00770148
3269.32849731,0.00766595
3271.25730469,0.00772139
3273.18611206,0.00767509
3275.11491943,0.00768851
3277.04372681,0.00770033
3278.97253418,0.00762044
3280.90134155,0.00760440
3282.83014893,0.00753474
3284.75895630,0.00762759
3286.68776367,0.00766012
3288.61657104,0.00748851
3290.54537842,0.00760902
3292.47418579,0.00762150
3294.40299316,0.00753620
3296.33180054,0.00751962
3298.26060791,0.00740878
3300.18941528,0.00745347
3302.11822266,0.00744465
3304.04703003,0.00743924
3305.97583740,0.00745196
3307.90464478,0.00734324
3309.83345215,0.00737104
3311.76225952,0.00737922
3313.69106689,0.00740842
3315.61987427,0.00744251
3317.54868164,0.00725218
3319.47748901,0.00722210
3321.40629639,0.00737176
3323.33510376,0.00734876
3325.26391113,0.00724845
3327.19271851,0.00721465
3329.12152588,0.00724894
3331.05033325,0.00725565
3332.97914062,0.00723582
3334.90794800,0.00720412
3336.83675537,0.00718838
3338.76556274,0.00726457
3340.69437012,0.00723093
3342.62317749,0.00717457
3344.55198486,0.00714956
3346.48079224,0.00707874
3348.40959961,0.00708698
3350.33840698,0.00709112
3352.26721436,0.00717378
3354.19602173,0.00713642
3356.12482910,0.00696570
3358.05363647,0.00695849
3359.98244385,0.00696809
3361.91125122,0.00699796
3363.84005859,0.00693434
3365.76886597,0.00690829
3367.69767334,0.00696243
3369.62648071,0.00688816
3371.55528809,0.00688683
3373.48409546,0.00688912
3375.41290283,0.00690990
3377.34171020,0.00691494
3379.27051758,0.00687554
3381.19932495,0.00686617
3383.12813232,0.00682568
3385.05693970,0.00686703
3386.98574707,0.00680578
3388.91455444,0.00673467
3390.84336182,0.00671477
3392.77216919,0.00661805
3394.70097656,0.00664501
3396.62978394,0.00667429
3398.55859131,0.00669566
3400.48739868,0.00670737
3402.41620605,0.00665125
3404.34501343,0.00662005
3406.27382080,0.00658004
3408.20262817,0.00658070
3410.13143555,0.00662501
3412.06024292,0.00659580
3413.98905029,0.00654811
3415.91785767,0.00662575
3417.84666504,0.00649728
3419.77547241,0.00632961
3421.70427979,0.00647753
3423.63308716,0.00644608
3425.56189453,0.00640042
3427.49070190,0.00645415
3429.41950928,0.00634694
3431.34831665,0.00634331
3433.27712402,0.00635531
3435.20593140,0.00625376
3437.13473877,0.00628964
3439.06354614,0.00640313
3440.99235352,0.00629094
3442.92116089,0.00628180
3444.84996826,0.00635597
3446.77877563,0.00619017
3448.70758301,0.00620008
3450.63639038,0.00627993
3452.56519775,0.00629726
3454.49400513,0.00627788
3456.42281250,0.00617141
3458.35161987,0.00620903
3460.28042725,0.00613229
3462.20923462,0.00607634
3464.13804199,0.00622443
3466.06684937,0.00621994
3467.99565674,0.00614889
3469.92446411,0.00614573
3471.85327148,0.00618346
3473.78207886,0.00619799
3475.71088623,0.00611791
3477.63969360,0.00607832
3479.56850098,0.00610775
3481.49730835,0.00601055
3483.42611572,0.00594019
3485.35492310,0.00602112
3487.28373047,0.00604776
3489.21253784,0.00607889
3491.14134521,0.00604863
3493.07015259,0.00605629
3494.99895996,0.00613191
3496.92776733,0.00596980
3498.85657471,0.00593868
3500.78538208,0.00596869
3502.71418945,0.00585829
3504.64299683,0.00597535
3506.57180420,0.00598664
3508.50061157,0.00583653
3510.42941895,0.00584917
3512.35822632,0.00589768
3514.28703369,0.00589262
3516.21584106,0.00585267
3518.14464844,0.00588307
3520.07345581,0.00592819
3522.00226318,0.00589197
3523.93107056,0.00579654
3525.85987793,0.00577742
3527.78868530,0.00580590
3529.71749268,0.00570241
3531.64630005,0.00578304
3533.57510742,0.00591853
3535.50391479,0.00580154
3537.43272217,0.00580456
3539.36152954,0.00587621
3541.29033691,0.00582142
3543.21914429,0.00580851
3545.14795166,0.00566133
3547.07675903,0.00556097
3549.00556641,0.00580865
3550.93437378,0.00571234
3552.86318115,0.00559471
3554.79198853,0.00586788
3556.72079590,0.00576913
3558.64960327,0.00567026
3560.57841064,0.00570850
3562.50721802,0.00569708
3564.43602539,0.00566382
3566.36483276,0.00521440
3568.29364014,0.00516835
3570.22244751,0.00573568
3572.15125488,0.00575516
3574.08006226,0.00560816
3576.00886963,0.00581139
3577.93767700,0.00571244
3579.86648437,0.00564371
3581.79529175,0.00570911
3583.72409912,0.00566997
3585.65290649,0.00551637
3587.58171387,0.00497885
3589.51052124,0.00516371
3591.43932861,0.00570566
3593.36813599,0.00554463
3595.29694336,0.00547481
3597.22575073,0.00552247
3599.15455811,0.00548776
3601.08336548,0.00542913
3603.01217285,0.00552407
3604.94098022,0.00570560
3606.86978760,0.00540478
3608.79859497,0.00498858
3610.72740234,0.00528670
3612.65620972,0.00528091
3614.58501709,0.00506898
3616.51382446,0.00559987
3618.44263184,0.00494669
3620.37143921,0.00480739
3622.30024658,0.00559850
3624.22905395,0.00546782
3626.15786133,0.00571799
3628.08666870,0.00463973
3630.01547607,0.00428433
3631.94428345,0.00548118
3633.87309082,0.00528152
3635.80189819,0.00545225
3637.73070557,0.00556969
3639.65951294,0.00543393
3641.58832031,0.00539135
3643.51712769,0.00539517
3645.44593506,0.00542951
3647.37474243,0.00473000
3649.30354980,0.00429334
3651.23235718,0.00436560
3653.16116455,0.00545498
3655.08997192,0.00530963
3657.01877930,0.00460107
3658.94758667,0.00546540
3660.87639404,0.00532044
3662.80520142,0.00542706
3664.73400879,0.00542089
3666.66281616,0.00532761
3668.59162354,0.00513100
3670.52043091,0.00418094
3672.44923828,0.00515076
3674.37804565,0.00469971
3676.30685303,0.00387090
3678.23566040,0.00509224
3680.16446777,0.00519561
3682.09327515,0.00520928
3684.02208252,0.00536572
3685.95088989,0.00530342
3687.87969727,0.00465577
3689.80850464,0.00419348
3691.73731201,0.00489938
3693.66611938,0.00507164
3695.59492676,0.00517162
3697.52373413,0.00513134
3699.45254150,0.00509480
3701.38134888,0.00490576
3703.31015625,0.00479235
3705.23896362,0.00536517
3707.16777100,0.00500223
3709.09657837,0.00481005
3711.02538574,0.00437530
3712.95419312,0.00423355
3714.88300049,0.00512962
3716.81180786,0.00489694
3718.74061523,0.00500739
3720.66942261,0.00484111
3722.59822998,0.00457942
3724.52703735,0.00483706
3726.45584473,0.00444660
3728.38465210,0.00483311
3730.31345947,0.00477398
3732.24226685,0.00435996
3734.17107422,0.00427165
3736.09988159,0.00405722
3738.02868896,0.00422036
3739.95749634,0.00464962
3741.88630371,0.00500383
3743.81511108,0.00370527
3745.74391846,0.00351509
3747.67272583,0.00462290
3749.60153320,0.00379868
3751.53034058,0.00364399
3753.45914795,0.00426345
3755.38795532,0.00463775
3757.31676270,0.00483583
3759.24557007,0.00436721
3761.17437744,0.00464817
3763.10318481,0.00490465
3765.03199219,0.00449152
3766.96079956,0.00458991
3768.88960693,0.00449151
3770.81841431,0.00433762
3772.74722168,0.00479936
3774.67602905,0.00481224
3776.60483643,0.00466038
3778.53364380,0.00447846
3780.46245117,0.00436475
3782.39125854,0.00467837
3784.32006592,0.00456730
3786.24887329,0.00448295
3788.17768066,0.00458760
3790.10648804,0.00461544
3792.03529541,0.00463644
3793.96410278,0.00471673
3795.89291016,0.00431331
3797.82171753,0.00426690
3799.75052490,0.00454891
3801.67933228,0.00347436
3803.60813965,0.00411765
3805.53694702,0.00452542
3807.46575439,0.00364116
3809.39456177,0.00448564
3811.32336914,0.00443577
3813.25217651,0.00459560
3815.18098389,0.00401874
3817.10979126,0.00356149
3819.03859863,0.00454665
3820.96740601,0.00350400
3822.89621338,0.00387913
3824.82502075,0.00452805
3826.75382812,0.00400932
3828.68263550,0.00441433
3830.61144287,0.00419474
3832.54025024,0.00408365
3834.46905762,0.00413386
3836.39786499,0.00390322
3838.32667236,0.00350542
3840.25547974,0.00377802
3842.18428711,0.00413973
3844.11309448,0.00398528
3846.04190186,0.00431857
3847.97070923,0.00420873
3849.89951660,0.00428155
3851.82832397,0.00370381
3853.75713135,0.00262058
3855.68593872,0.00333038
3857.61474609,0.00421597
3859.54355347,0.00412582
3861.47236084,0.00400244
3863.40116821,0.00383687
3865.32997559,0.00368894
3867.25878296,0.00412985
3869.18759033,0.00368833
3871.11639770,0.00345074
3873.04520508,0.00407575
3874.97401245,0.00360973
3876.90281982,0.00403635
3878.83162720,0.00412822
3880.76043457,0.00339743
3882.68924194,0.00405204
3884.61804932,0.00373460
3886.54685669,0.00334594
3888.47566406,0.00414714
3890.40447144,0.00389539
3892.33327881,0.00356111
3894.26208618,0.00405524
3896.19089355,0.00406620
3898.11970093,0.00374304
3900.04850830,0.00356838
3901.97731567,0.00355518
3903.90612305,0.00349138
3905.83493042,0.00354238
3907.76373779,0.00397111
3909.69254517,0.00395953
3911.62135254,0.00392325
3913.55015991,0.00398524
3915.47896728,0.00379035
3917.40777466,0.00374881
3919.33658203,0.00370370
3921.26538940,0.00381422
3923.19419678,0.00381155
3925.12300415,0.00371869
3927.05181152,0.00376659
3928.98061890,0.00381648
3930.90942627,0.00375602
3932.83823364,0.00362161
3934.76704102,0.00384524
3936.69584839,0.00378672
3938.62465576,0.00367691
3940.55346313,0.00381549
3942.48227051,0.00364066
3944.41107788,0.00370023
3946.33988525,0.00377100
3948.26869263,0.00358762
3950.19750000,0.00366863
3952.12630737,0.00376786
3954.05511475,0.00362077
3955.98392212,0.00358757
3957.91272949,0.00365278
3959.84153687,0.00366314
3961.77034424,0.00363842
3963.69915161,0.00358622
3965.62795898,0.00363551
3967.55676636,0.00357440
3969.48557373,0.00352792
3971.41438110,0.00359976
3973.34318848,0.00357641
3975.27199585,0.00354955
3977.20080322,0.00358443
3979.12961060,0.00357752
3981.05841797,0.00353724
3982.98722534,0.00362022
3984.91603271,0.00356400
3986.84484009,0.00351551
3988.77364746,0.00359338
3990.70245483,0.00353072
3992.63126221,0.00348758
3994.56006958,0.00350855
3996.48887695,0.00354517
3998.41768433,0.00348211
4000.34649170,0.00348741
4002.27529907,0.00351633
4004.20410645,0.00344906
4006.13291382,0.00345595
4008.06172119,0.00343878
4009.99052856,0.00348859
4011.91933594,0.00356268
4013.84814331,0.00349784
4015.77695068,0.00335352
4017.70575806,0.00338055
4019.63456543,0.00343088
4021.56337280,0.00343228
4023.49218018,0.00340312
4025.42098755,0.00328466
4027.34979492,0.00339943
4029.27860229,0.00333791
4031.20740967,0.00332183
4033.13621704,0.00332845
4035.06502441,0.00316868
4036.99383179,0.00339253
4038.92263916,0.00335134
4040.85144653,0.00328015
4042.78025391,0.00330482
4044.70906128,0.00317125
4046.63786865,0.00326543
4048.56667603,0.00325128
4050.49548340,0.00327545
4052.42429077,0.00330472
4054.35309814,0.00319790
4056.28190552,0.00324000
4058.21071289,0.00329022
4060.13952026,0.00322921
4062.06832764,0.00316703
4063.99713501,0.00314599
4065.92594238,0.00319228
4067.85474976,0.00315711
4069.78355713,0.00311449
4071.71236450,0.00323824
4073.64117187,0.00313568
4075.56997925,0.00317518
4077.49878662,0.00322656
4079.42759399,0.00307824
4081.35640137,0.00316988
4083.28520874,0.00310160
4085.21401611,0.00311360
4087.14282349,0.00306701
4089.07163086,0.00303018
4091.00043823,0.00315781
4092.92924561,0.00303955
4094.85805298,0.00304636
4096.78686035,0.00299002
4098.71566772,0.00298390
4100.64447510,0.00306273
4102.57328247,0.00307004
4104.50208984,0.00300230
4106.43089722,0.00292262
4108.35970459,0.00300277
4110.28851196,0.00289292
4112.21731934,0.00301099
4114.14612671,0.00303950
4116.07493408,0.00288603
4118.00374145,0.00297572
4119.93254883,0.00290031
4121.86135620,0.00288774
4123.79016357,0.00289700
4125.71897095,0.00297034
4127.64777832,0.00298916
4129.57658569,0.00289742
4131.50539307,0.00291075
4133.43420044,0.00286543
4135.36300781,0.00291520
4137.29181519,0.00286075
4139.22062256,0.00279858
4141.14942993,0.00283202
4143.07823730,0.00277882
4145.00704468,0.00279211
4146.93585205,0.00284272
4148.86465942,0.00283360
4150.79346680,0.00286500
4152.72227417,0.00285587
4154.65108154,0.00272581
4156.57988892,0.00278871
4158.50869629,0.00276449
4160.43750366,0.00273395
4162.36631103,0.00280291
4164.29511841,0.00272847
4166.22392578,0.00282870
4168.15273315,0.00282173
4170.08154053,0.00275821
4172.01034790,0.00270392
4173.93915527,0.00268120
4175.86796265,0.00279579
4177.79677002,0.00272303
4179.72557739,0.00273947
4181.65438477,0.00269781
4183.58319214,0.00261813
4185.51199951,0.00274795
4187.44080688,0.00276798
4189.36961426,0.00268069
4191.29842163,0.00267953
4193.22722900,0.00269296
4195.15603638,0.00262376
4197.08484375,0.00267206
4199.01365112,0.00265535
4200.94245850,0.00258744
4202.87126587,0.00256332
4204.80007324,0.00253703
4206.72888062,0.00265979
4208.65768799,0.00262029
4210.58649536,0.00254524
4212.51530273,0.00254170
4214.44411011,0.00250401
4216.37291748,0.00254139
4218.30172485,0.00254408
4220.23053223,0.00260512
4222.15933960,0.00257586
4224.08814697,0.00250222
4226.01695435,0.00257371
4227.94576172,0.00246619
4229.87456909,0.00239284
4231.80337646,0.00249399
4233.73218384,0.00246156
4235.66099121,0.00249356
4237.58979858,0.00249902
4239.51860596,0.00240865
4241.44741333,0.00249536
4243.37622070,0.00255287
4245.30502808,0.00248592
4247.23383545,0.00241392
4249.16264282,0.00242643
4251.09145020,0.00244636
4253.02025757,0.00244334
4254.94906494,0.00240329
4256.87787231,0.00233099
4258.80667969,0.00240365
4260.73548706,0.00237577
4262.66429443,0.00233735
4264.59310181,0.00236903
4266.52190918,0.00234339
4268.45071655,0.00241134
4270.37952393,0.00241170
4272.30833130,0.00230971
4274.23713867,0.00227529
4276.16594604,0.00230372
4278.09475342,0.00225154
4280.02356079,0.00234783
4281.95236816,0.00239121
4283.88117554,0.00225582
4285.80998291,0.00232874
4287.73879028,0.00227363
4289.66759766,0.00231070
4291.59640503,0.00238404
4293.52521240,0.00228904
4295.45401978,0.00230375
4297.38282715,0.00224582
4299.31163452,0.00225877
4301.24044189,0.00226972
4303.16924927,0.00226107
4305.09805664,0.00218621
4307.02686401,0.00214004
4308.95567139,0.00226840
4310.88447876,0.00225043
4312.81328613,0.00220596
4314.74209351,0.00217326
4316.67090088,0.00226129
4318.59970825,0.00225838
4320.52851562,0.00217379
4322.45732300,0.00224261
4324.38613037,0.00214597
4326.31493774,0.00213002
4328.24374512,0.00217471
4330.17255249,0.00211352
4332.10135986,0.00212484
4334.03016724,0.00224616
4335.95897461,0.00218561
4337.88778198,0.00205688
4339.81658936,0.00214290
4341.74539673,0.00210357
4343.67420410,0.00216325
4345.60301147,0.00216292
4347.53181885,0.00206733
4349.46062622,0.00208518
4351.38943359,0.00201928
4353.31824097,0.00213389
4355.24704834,0.00207673
4357.17585571,0.00203700
4359.10466309,0.00214865
4361.03347046,0.00200441
4362.96227783,0.00200856
4364.89108520,0.00205963
4366.81989258,0.00206194
4368.74869995,0.00205874
4370.67750732,0.00196619
4372.60631470,0.00200772
4374.53512207,0.00208551
4376.46392944,0.00204257
4378.39273682,0.00201980
4380.32154419,0.00201314
4382.25035156,0.00195139
4384.17915894,0.00198335
4386.10796631,0.00203136
4388.03677368,0.00203633
4389.96558105,0.00201447
4391.89438843,0.00192756
4393.82319580,0.00196018
4395.75200317,0.00199082
4397.68081055,0.00194613
4399.60961792,0.00202146
4401.53842529,0.00198965
4403.46723267,0.00186121
4405.39604004,0.00194717
4407.32484741,0.00199290
4409.25365478,0.00191083
4411.18246216,0.00195435
4413.11126953,0.00199581
4415.04007690,0.00191111
4416.96888428,0.00189867
4418.89769165,0.00195142
4420.82649902,0.00190036
4422.75530640,0.00187913
4424.68411377,0.00189665
4426.61292114,0.00189426
4428.54172852,0.00186187
4430.47053589,0.00187604
4432.39934326,0.00187140
4434.32815063,0.00175401
4436.25695801,0.00189751
4438.18576538,0.00195737
4440.11457275,0.00184017
4442.04338013,0.00186569
4443.97218750,0.00180702
4445.90099487,0.00184790
4447.82980225,0.00189199
4449.75860962,0.00185119
4451.68741699,0.00180626
4453.61622437,0.00178443
4455.54503174,0.00182985
4457.47383911,0.00181012
4459.40264648,0.00187644
4461.33145386,0.00182923
4463.26026123,0.00169225
4465.18906860,0.00178088
4467.11787598,0.00187079
4469.04668335,0.00174650
4470.97549072,0.00169285
4472.90429810,0.00179057
4474.83310547,0.00173606
4476.76191284,0.00170047
4478.69072021,0.00167074
4480.61952759,0.00171020
4482.54833496,0.00177066
4484.47714233,0.00173968
4486.40594971,0.00179356
4488.33475708,0.00173736
4490.26356445,0.00176258
4492.19237183,0.00168245
4494.12117920,0.00159009
4496.04998657,0.00171035
4497.97879395,0.00169507
4499.90760132,0.00174437
4501.83640869,0.00168421
4503.76521606,0.00163533
4505.69402344,0.00170423
4507.62283081,0.00170897
4509.55163818,0.00166356
4511.48044556,0.00157681
4513.40925293,0.00167878
4515.33806030,0.00162700
4517.26686768,0.00157939
4519.19567505,0.00163095
4521.12448242,0.00156199
4523.05328979,0.00160394
4524.98209717,0.00158526
4526.91090454,0.00157548
4528.83971191,0.00157885
4530.76851929,0.00158516
4532.69732666,0.00161583
4534.62613403,0.00162487
4536.55494141,0.00162793
4538.48374878,0.00156061
4540.41255615,0.00162888
4542.34136353,0.00160385
4544.27017090,0.00157804
4546.19897827,0.00160610
4548.12778564,0.00143391
4550.05659302,0.00150707
4551.98540039,0.00158978
4553.91420776,0.00145511
4555.84301514,0.00151064
4557.77182251,0.00162057
4559.70062988,0.00157008
4561.62943726,0.00149707
4563.55824463,0.00151622
4565.48705200,0.00154763
4567.41585937,0.00157239
4569.34466675,0.00155600
4571.27347412,0.00145976
4573.20228149,0.00148506
4575.13108887,0.00154661
4577.05989624,0.00148683
4578.98870361,0.00146213
4580.91751099,0.00140143
4582.84631836,0.00147948
4584.77512573,0.00156915
4586.70393311,0.00141645
4588.63274048,0.00153946
4590.56154785,0.00158165
4592.49035522,0.00143347
4594.41916260,0.00150094
4596.34796997,0.00145086
4598.27677734,0.00146072
4600.20558472,0.00151083
4602.13439209,0.00149136
4604.06319946,0.00147997
4605.99200684,0.00140295
4607.92081421,0.00143678
4609.84962158,0.00145237
4611.77842895,0.00146627
4613.70723633,0.00144592
4615.63604370,0.00138129
4617.56485107,0.00138588
4619.49365845,0.00133250
4621.42246582,0.00135926
4623.35127319,0.00136377
4625.28008057,0.00136860
4627.20888794,0.00135748
4629.13769531,0.00130464
4631.06650269,0.00143459
4632.99531006,0.00138989
4634.92411743,0.00133119
4636.85292480,0.00140385
4638.78173218,0.00139472
4640.71053955,0.00144010
4642.63934692,0.00139898
4644.56815430,0.00139292
4646.49696167,0.00137710
4648.42576904,0.00133143
4650.35457642,0.00139556
4652.28338379,0.00130657
4654.21219116,0.00127340
4656.14099853,0.00132831
4658.06980591,0.00130368
4659.99861328,0.00129511
4661.92742065,0.00128611
4663.85622803,0.00128374
4665.78503540,0.00129457
4667.71384277,0.00136345
4669.64265015,0.00131893
4671.57145752,0.00127576
4673.50026489,0.00137828
4675.42907227,0.00127245
4677.35787964,0.00120018
4679.28668701,0.00128518
4681.21549438,0.00125044
4683.14430176,0.00127499
4685.07310913,0.00128328
4687.00191650,0.00125332
4688.93072388,0.00134693
4690.85953125,0.00134876
4692.78833862,0.00128169
4694.71714600,0.00121121
4696.64595337,0.00116849
4698.57476074,0.00122307
4700.50356812,0.00123170
4702.43237549,0.00126952
4704.36118286,0.00127944
4706.28999023,0.00124619
4708.21879761,0.00122299
4710.14760498,0.00115414
4712.07641235,0.00122994
4714.00521973,0.00124217
4715.93402710,0.00119584
4717.86283447,0.00125462
4719.79164185,0.00120506
4721.72044922,0.00118523
4723.64925659,0.00118469
4725.57806396,0.00118396
4727.50687134,0.00122245
4729.43567871,0.00116145
4731.36448608,0.00117467
4733.29329346,0.00121841
4735.22210083,0.00115537
4737.15090820,0.00115042
4739.07971558,0.00114299
4741.00852295,0.00109119
4742.93733032,0.00111309
4744.86613770,0.00114490
4746.79494507,0.00114363
4748.72375244,0.00114607
4750.65255981,0.00117429
4752.58136719,0.00115845
4754.51017456,0.00111887
4756.43898193,0.00113495
4758.36778931,0.00111327
4760.29659668,0.00110536
4762.22540405,0.00108411
4764.15421143,0.00106059
4766.08301880,0.00111174
4768.01182617,0.00111539
4769.94063354,0.00112670
4771.86944092,0.00112740
4773.79824829,0.00107028
4775.72705566,0.00103096
4777.65586304,0.00108038
4779.58467041,0.00112198
4781.51347778,0.00103204
4783.44228516,0.00101202
4785.37109253,0.00107873
4787.29989990,0.00112024
4789.22870728,0.00110283
4791.15751465,0.00104555
4793.08632202,0.00100319
4795.01512939,0.00100826
4796.94393677,0.00104586
4798.87274414,0.00101295
4800.80155151,0.00106277
4802.73035889,0.00109928
4804.65916626,0.00105440
4806.58797363,0.00104846
4808.51678101,0.00100550
4810.44558838,0.00105966
4812.37439575,0.00103985
4814.30320312,0.00099183
4816.23201050,0.00105150
4818.16081787,0.00100802
4820.08962524,0.00101909
4822.01843262,0.00104573
4823.94723999,0.00101859
4825.87604736,0.00099659
4827.80485474,0.00098112
4829.73366211,0.00101713
4831.66246948,0.00101856
4833.59127686,0.00099356
4835.52008423,0.00099826
4837.44889160,0.00100789
4839.37769897,0.00096198
4841.30650635,0.00098275
4843.23531372,0.00101867
4845.16412109,0.00094459
4847.09292847,0.00093831
4849.02173584,0.00095794
4850.95054321,0.00101393
4852.87935059,0.00099705
4854.80815796,0.00089550
4856.73696533,0.00098983
4858.66577270,0.00101434
4860.59458008,0.00091966
4862.52338745,0.00092641
4864.45219482,0.00096673
4866.38100220,0.00098860
4868.30980957,0.00096163
4870.23861694,0.00095203
4872.16742432,0.00095649
4874.09623169,0.00094563
4876.02503906,0.00095548
4877.95384644,0.00095928
4879.88265381,0.00089990
4881.81146118,0.00087106
4883.74026855,0.00091718
4885.66907593,0.00089415
4887.59788330,0.00096060
4889.52669067,0.00097999
4891.45549805,0.00087317
4893.38430542,0.00094014
4895.31311279,0.00090839
4897.24192017,0.00085988
4899.17072754,0.00092205
4901.09953491,0.00084992
4903.02834228,0.00085664
4904.95714966,0.00090309
4906.88595703,0.00084568
4908.81476440,0.00085843
4910.74357178,0.00087473
4912.67237915,0.00083851
4914.60118652,0.00089769
4916.52999390,0.00087306
4918.45880127,0.00085633
4920.38760864,0.00095355
4922.31641602,0.00083542
4924.24522339,0.00082159
4926.17403076,0.00091670
4928.10283813,0.00085649
4930.03164551,0.00085656
4931.96045288,0.00088173
4933.88926025,0.00086097
4935.81806763,0.00082057
4937.74687500,0.00088540
4939.67568237,0.00085652
4941.60448975,0.00076883
4943.53329712,0.00081560
4945.46210449,0.00081114
4947.39091187,0.00085033
4949.31971924,0.00081811
4951.24852661,0.00086160
4953.17733398,0.00089905
4955.10614136,0.00078426
4957.03494873,0.00086644
4958.96375610,0.00082323
4960.89256348,0.00078207
4962.82137085,0.00083461
4964.75017822,0.00079347
4966.67898560,0.00083603
4968.60779297,0.00078412
4970.53660034,0.00074510
4972.46540771,0.00077001
4974.39421509,0.00075789
4976.32302246,0.00079170
4978.25182983,0.00075931
4980.18063721,0.00072015
4982.10944458,0.00084194
4984.03825195,0.00086390
4985.96705933,0.00077631
4987.89586670,0.00081487
4989.82467407,0.00075798
4991.75348145,0.00074271
4993.68228882,0.00074924
4995.61109619,0.00073219
4997.53990356,0.00085737
4999.46871094,0.00082258
5001.39751831,0.00077318
5003.32632568,0.00076391
5005.25513306,0.00077574
5007.18394043,0.00079929
5009.11274780,0.00074379
5011.04155518,0.00076139
5012.97036255,0.00070632
5014.89916992,0.00076096
5016.82797729,0.00075201
5018.75678467,0.00062860
5020.68559204,0.00074610
5022.61439941,0.00079245
5024.54320679,0.00078505
5026.47201416,0.00070762
5028.40082153,0.00067314
5030.32962891,0.00077264
5032.25843628,0.00072661
5034.18724365,0.00072910
5036.11605103,0.00068756
5038.04485840,0.00061536
5039.97366577,0.00070000
5041.90247314,0.00071088
5043.83128052,0.00070753
5045.76008789,0.00076990
5047.68889526,0.00070792
5049.61770264,0.00066730
5051.54651001,0.00071415
5053.47531738,0.00065506
5055.40412476,0.00070668
5057.33293213,0.00074684
5059.26173950,0.00063402
5061.19054687,0.00065025
5063.11935425,0.00069532
5065.04816162,0.00067163
5066.97696899,0.00060397
5068.90577637,0.00064585
5070.83458374,0.00071596
5072.76339111,0.00067688
5074.69219849,0.00068836
5076.62100586,0.00066799
5078.54981323,0.00067730
5080.47862061,0.00067174
5082.40742798,0.00064924
5084.33623535,0.00064859
5086.26504272,0.00063423
5088.19385010,0.00072285
5090.12265747,0.00066037
5092.05146484,0.00066561
5093.98027222,0.00077827
5095.90907959,0.00069286
5097.83788696,0.00064356
5099.76669434,0.00062143
5101.69550171,0.00063930
5103.62430908,0.00065290
5105.55311645,0.00067922
5107.48192383,0.00071193
5109.41073120,0.00064473
5111.33953857,0.00063461
5113.26834595,0.00061896
5115.19715332,0.00063125
5117.12596069,0.00056815
5119.05476807,0.00051918
5120.98357544,0.00061831
5122.91238281,0.00060276
5124.84119019,0.00058934
5126.76999756,0.00057572
5128.69880493,0.00058404
5130.62761230,0.00066178
5132.55641968,0.00067884
5134.48522705,0.00064324
5136.41403442,0.00063757
5138.34284180,0.00068843
5140.27164917,0.00061673
5142.20045654,0.00057247
5144.12926392,0.00057764
5146.05807129,0.00052740
5147.98687866,0.00054216
5149.91568603,0.00058125
5151.84449341,0.00063953
5153.77330078,0.00059931
5155.70210815,0.00053087
5157.63091553,0.00055856
5159.55972290,0.00059138
5161.48853027,0.00062091
5163.41733765,0.00059846
5165.34614502,0.00054734
5167.27495239,0.00055793
5169.20375977,0.00058821
5171.13256714,0.00059402
5173.06137451,0.00064220
5174.99018188,0.00060668
5176.91898926,0.00056933
5178.84779663,0.00062136
5180.77660400,0.00061032
5182.70541138,0.00062186
5184.63421875,0.00056190
5186.56302612,0.00055596
5188.49183350,0.00053946
5190.42064087,0.00040064
5192.34944824,0.00050314
5194.27825562,0.00058376
5196.20706299,0.00052908
5198.13587036,0.00049349
5200.06467773,0.00052141
5201.99348511,0.00058934
5203.92229248,0.00052242
5205.85109985,0.00050598
5207.77990723,0.00050525
5209.70871460,0.00050768
5211.63752197,0.00052573
5213.56632935,0.00049656
5215.49513672,0.00057699
5217.42394409,0.00055675
5219.35275146,0.00052218
5221.28155884,0.00055018
5223.21036621,0.00047257
5225.13917358,0.00051660
5227.06798096,0.00050359
5228.99678833,0.00044581
5230.92559570,0.00059689
5232.85440308,0.00058504
5234.78321045,0.00048733
5236.71201782,0.00052758
5238.64082520,0.00052312
5240.56963257,0.00053633
5242.49843994,0.00053950
5244.42724731,0.00048141
5246.35605469,0.00045141
5248.28486206,0.00047431
5250.21366943,0.00052737
5252.14247681,0.00052680
5254.07128418,0.00048254
5256.00009155,0.00047911
5257.92889893,0.00049837
5259.85770630,0.00047029
5261.78651367,0.00048660
5263.71532104,0.00049326
5265.64412842,0.00044280
5267.57293579,0.00045615
5269.50174316,0.00044682
5271.43055054,0.00047044
5273.35935791,0.00051099
5275.28816528,0.00044560
5277.21697266,0.00041093
5279.14578003,0.00047308
5281.07458740,0.00051938
5283.00339478,0.00048886
5284.93220215,0.00046895
5286.86100952,0.00045971
5288.78981689,0.00045090
5290.71862427,0.00043187
5292.64743164,0.00041884
5294.57623901,0.00045739
5296.50504639,0.00044003
5298.43385376,0.00044264
5300.36266113,0.00049416
5302.29146851,0.00048313
5304.22027588,0.00049482
5306.14908325,0.00049597
5308.07789062,0.00044369
5310.00669800,0.00045436
5311.93550537,0.00047342
5313.86431274,0.00047485
5315.79312012,0.00042286
5317.72192749,0.00037903
5319.65073486,0.00048428
5321.57954224,0.00044273
5323.50834961,0.00038664
5325.43715698,0.00041923
5327.36596436,0.00036425
5329.29477173,0.00044038
5331.22357910,0.00042835
5333.15238647,0.00036715
5335.08119385,0.00043677
5337.01000122,0.00046416
5338.93880859,0.00042205
5340.86761597,0.00039842
5342.79642334,0.00047670
5344.72523071,0.00042317
5346.65403809,0.00042293
5348.58284546,0.00045879
5350.51165283,0.00040039
5352.44046020,0.00048491
5354.36926758,0.00044566
5356.29807495,0.00038022
5358.22688232,0.00037020
5360.15568970,0.00036660
5362.08449707,0.00040470
5364.01330444,0.00038850
5365.94211182,0.00046396
5367.87091919,0.00042834
5369.79972656,0.00033460
5371.72853394,0.00039509
5373.65734131,0.00044769
5375.58614868,0.00041720
5377.51495605,0.00038219
5379.44376343,0.00044525
5381.37257080,0.00041294
5383.30137817,0.00035554
5385.23018555,0.00036125
5387.15899292,0.00031644
5389.08780029,0.00040358
5391.01660767,0.00043112
5392.94541504,0.00032780
5394.87422241,0.00037173
5396.80302978,0.00037000
5398.73183716,0.00037204
5400.66064453,0.00047154
5402.58945190,0.00041638
5404.51825928,0.00037623
5406.44706665,0.00043524
5408.37587402,0.00040800
5410.30468140,0.00029337
5412.23348877,0.00026421
5414.16229614,0.00030966
5416.09110352,0.00034439
5418.01991089,0.00042315
5419.94871826,0.00034299
5421.87752563,0.00030894
5423.80633301,0.00041869
5425.73514038,0.00041642
5427.66394775,0.00038249
5429.59275513,0.00032212
5431.52156250,0.00037539
5433.45036987,0.00036468
5435.37917725,0.00029971
5437.30798462,0.00038449
5439.23679199,0.00035242
5441.16559936,0.00032363
5443.09440674,0.00036195
5445.02321411,0.00037101
5446.95202148,0.00034390
5448.88082886,0.00037011
5450.80963623,0.00037807
5452.73844360,0.00028077
5454.66725098,0.00034125
5456.59605835,0.00035880
5458.52486572,0.00030262
5460.45367310,0.00035118
5462.38248047,0.00035972
5464.31128784,0.00033243
5466.24009521,0.00033172
5468.16890259,0.00031012
5470.09770996,0.00025012
5472.02651733,0.00029015
5473.95532471,0.00034047
5475.88413208,0.00031379
5477.81293945,0.00026696
5479.74174683,0.00029052
5481.67055420,0.00033668
5483.59936157,0.00034018
5485.52816895,0.00038830
5487.45697632,0.00031406
5489.38578369,0.00036072
5491.31459106,0.00037820
5493.24339844,0.00025540
5495.17220581,0.00041127
5497.10101318,0.00035285
5499.02982056,0.00024466
5500.95862793,0.00034153
5502.88743530,0.00034778
5504.81624268,0.00035238
5506.74505005,0.00028349
5508.67385742,0.00034152
5510.60266479,0.00037258
5512.53147217,0.00029046
5514.46027954,0.00032681
5516.38908691,0.00031289
5518.31789429,0.00033347
5520.24670166,0.00031612
5522.17550903,0.00032028
5524.10431641,0.00037475
5526.03312378,0.00029030
5527.96193115,0.00029322
5529.89073853,0.00028936
5531.81954590,0.00031787
5533.74835327,0.00038042
5535.67716064,0.00030713
5537.60596802,0.00037729
5539.53477539,0.00032963
5541.46358276,0.00024059
5543.39239014,0.00035177
5545.32119751,0.00028178
5547.25000488,0.00025745
5549.17881226,0.00028708
5551.10761963,0.00025038
5553.03642700,0.00029345
5554.96523437,0.00028470
5556.89404175,0.00028937
5558.82284912,0.00028763
5560.75165649,0.00029017
5562.68046387,0.00030480
5564.60927124,0.00026500
5566.53807861,0.00026444
5568.46688599,0.00026124
5570.39569336,0.00029483
5572.32450073,0.00031054
5574.25330811,0.00027008
5576.18211548,0.00030241
5578.11092285,0.00030113
5580.03973022,0.00031434
5581.96853760,0.00035463
5583.89734497,0.00031604
5585.82615234,0.00034600
5587.75495972,0.00030710
5589.68376709,0.00023429
5591.61257446,0.00026654
5593.54138184,0.00026165
5595.47018921,0.00029295
5597.39899658,0.00024698
5599.32780395,0.00025107
5601.25661133,0.00028151
5603.18541870,0.00020495
5605.11422607,0.00025610
5607.04303345,0.00025865
5608.97184082,0.00032127
5610.90064819,0.00031545
5612.82945557,0.00027241
5614.75826294,0.00034513
5616.68707031,0.00019101
5618.61587769,0.00022412
5620.54468506,0.00030210
5622.47349243,0.00021233
5624.40229980,0.00024361
5626.33110718,0.00025796
5628.25991455,0.00024123
5630.18872192,0.00021940
5632.11752930,0.00024578
5634.04633667,0.00023089
5635.97514404,0.00028506
5637.90395142,0.00027549
5639.83275879,0.00019555
5641.76156616,0.00030848
5643.69037353,0.00026855
5645.61918091,0.00027043
5647.54798828,0.00026968
5649.47679565,0.00019371
5651.40560303,0.00025452
5653.33441040,0.00019597
5655.26321777,0.00020328
5657.19202515,0.00026551
5659.12083252,0.00028778
5661.04963989,0.00031057
5662.97844727,0.00025692
5664.90725464,0.00022572
5666.83606201,0.00022750
5668.76486938,0.00027938
5670.69367676,0.00030565
5672.62248413,0.00026564
5674.55129150,0.00019333
5676.48009888,0.00013295
5678.40890625,0.00018484
5680.33771362,0.00023148
5682.26652100,0.00022594
5684.19532837,0.00029337
5686.12413574,0.00026352
5688.05294311,0.00016162
5689.98175049,0.00023174
5691.91055786,0.00025861
5693.83936523,0.00026047
5695.76817261,0.00027794
5697.69697998,0.00020405
5699.62578735,0.00019773
5701.55459473,0.00019306
5703.48340210,0.00020248
5705.41220947,0.00023681
5707.34101685,0.00019401
5709.26982422,0.00018348
5711.19863159,0.00023807
5713.12743896,0.00022576
5715.05624634,0.00018966
5716.98505371,0.00019383
5718.91386108,0.00020095
5720.84266846,0.00023474
5722.77147583,0.00017423
5724.70028320,0.00021520
5726.62909058,0.00026238
5728.55789795,0.00015196
5730.48670532,0.00021310
5732.41551270,0.00018519
5734.34432007,0.00015898
5736.27312744,0.00023064
5738.20193481,0.00019512
5740.13074219,0.00019390
5742.05954956,0.00015846
5743.98835693,0.00016090
5745.91716431,0.00016851
5747.84597168,0.00024684
5749.77477905,0.00027764
5751.70358643,0.00017104
5753.63239380,0.00024632
5755.56120117,0.00022921
5757.49000854,0.00021249
5759.41881592,0.00027275
5761.34762329,0.00020631
5763.27643066,0.00021939
5765.20523804,0.00024146
5767.13404541,0.00021549
5769.06285278,0.00018075
5770.99166016,0.00017513
5772.92046753,0.00018431
5774.84927490,0.00023660
5776.77808228,0.00031486
5778.70688965,0.00025155
5780.63569702,0.00022169
5782.56450439,0.00024990
5784.49331177,0.00021789
5786.42211914,0.00019188
5788.35092651,0.00021373
5790.27973389,0.00020202
5792.20854126,0.00016162
5794.13734863,0.00021797
5796.06615601,0.00018708
5797.99496338,0.00015704
5799.92377075,0.00019446
5801.85257812,0.00013598
5803.78138550,0.00017000
5805.71019287,0.00019000
5807.63900024,0.00017651
5809.56780762,0.00018445
5811.49661499,0.00020041
5813.42542236,0.00024869
5815.35422974,0.00017873
5817.28303711,0.00020775
5819.21184448,0.00017258
5821.14065186,0.00014766
5823.06945923,0.00027579
5824.99826660,0.00018447
5826.92707397,0.00020371
5828.85588135,0.00017258
5830.78468872,0.00009287
5832.71349609,0.00020137
5834.64230347,0.00013646
5836.57111084,0.00014511
5838.49991821,0.00019912
5840.42872559,0.00014923
5842.35753296,0.00013667
5844.28634033,0.00018556
5846.21514770,0.00020808
5848.14395508,0.00014608
5850.07276245,0.00017072
5852.00156982,0.00017304
5853.93037720,0.00017860
5855.85918457,0.00018347
5857.78799194,0.00015070
5859.71679932,0.00016913
5861.64560669,0.00014595
5863.57441406,0.00017703
5865.50322144,0.00018210
5867.43202881,0.00013855
5869.36083618,0.00014976
5871.28964355,0.00016008
5873.21845093,0.00015319
5875.14725830,0.00016087
5877.07606567,0.00015692
5879.00487305,0.00009430
5880.93368042,0.00013172
5882.86248779,0.00014751
5884.79129517,0.00014941
5886.72010254,0.00019987
5888.64890991,0.00013543
5890.57771728,0.00016553
5892.50652466,0.00024180
5894.43533203,0.00018593
5896.36413940,0.00007340
5898.29294678,0.00007663
5900.22175415,0.00016326
5902.15056152,0.00019718
5904.07936890,0.00018655
5906.00817627,0.00013590
5907.93698364,0.00020648
5909.86579102,0.00021811
5911.79459839,0.00018538
5913.72340576,0.00023243
5915.65221313,0.00019132
5917.58102051,0.00016955
5919.50982788,0.00012114
5921.43863525,0.00015885
5923.36744263,0.00018815
5925.29625000,0.00010632
5927.22505737,0.00013978
5929.15386475,0.00011722
5931.08267212,0.00010784
5933.01147949,0.00015410
5934.94028686,0.00015135
5936.86909424,0.00012756
5938.79790161,0.00009257
5940.72670898,0.00014459
5942.65551636,0.00014522
5944.58432373,0.00011305
5946.51313110,0.00018423
5948.44193848,0.00016365
5950.37074585,0.00011115
5952.29955322,0.00013774
5954.22836060,0.00011732
5956.15716797,0.00016331
5958.08597534,0.00017173
5960.01478271,0.00014893
5961.94359009,0.00020567
5963.87239746,0.00010212
5965.80120483,0.00009061
5967.73001221,0.00015369
5969.65881958,0.00013814
5971.58762695,0.00016541
5973.51643433,0.00013104
5975.44524170,0.00015843
5977.37404907,0.00013690
5979.30285645,0.00012136
5981.23166382,0.00019778
5983.16047119,0.00014140
5985.08927856,0.00008713
5987.01808594,0.00008560
5988.94689331,0.00013584
5990.87570068,0.00017227
5992.80450806,0.00015374
5994.73331543,0.00014670
5996.66212280,0.00011136
5998.59093018,0.00008728
6000.51973755,0.00008769
