399.26312622,0.00034284
401.19193359,0.00102991
403.12074097,0.00068663
405.04954834,0.00065775
406.97835571,0.00080937
408.90716309,0.00036829
410.83597046,0.00063272
412.76477783,0.00084438
414.69358521,0.00102063
416.62239258,0.00088233
418.55119995,0.00065828
420.48000732,0.00087518
422.40881470,0.00108750
424.33762207,0.00089541
426.26642944,0.00069152
428.19523682,0.00119173
430.12404419,0.00097048
432.05285156,0.00063591
433.98165894,0.00096496
435.91046631,0.00079171
437.83927368,0.00113745
439.76808105,0.00125169
441.69688843,0.00071802
443.62569580,0.00087737
445.55450317,0.00057813
447.48331055,0.00058703
449.41211792,0.00085509
451.34092529,0.00029672
453.26973267,0.00057987
455.19854004,0.00095176
457.12734741,0.00053166
459.05615479,0.00039209
460.98496216,0.00060686
462.91376953,0.00041619
464.84257690,0.00066051
466.77138428,0.00091516
468.70019165,0.00028998
470.62899902,0.00050448
472.55780640,0.00048792
474.48661377,0.00044408
476.41542114,0.00060862
478.34422852,0.00028893
480.27303589,0.00063936
482.20184326,0.00028783
484.13065063,0.00014297
486.05945801,0.00015616
487.98826538,0.00007569
489.91707275,0.00046853
491.84588013,0.00002291
493.77468750,0.00023099
495.70349487,0.00054569
497.63230225,0.00055971
499.56110962,0.00004288
501.48991699,-0.00013898
503.41872437,0.00023370
505.34753174,-0.00000045
507.27633911,0.00038853
509.20514648,0.00029844
511.13395386,0.00002839
513.06276123,-0.00007291
514.99156860,0.00025282
516.92037598,0.00027115
518.84918335,0.00006521
520.77799072,0.00025021
522.70679810,-0.00003415
524.63560547,0.00019803
526.56441284,0.00062172
528.49322021,0.00032338
530.42202759,0.00070557
532.35083496,0.00041917
534.27964233,-0.00003528
536.20844971,0.00035204
538.13725708,0.00003275
540.06606445,0.00022990
541.99487183,0.00030096
543.92367920,0.00015725
545.85248657,0.00018648
547.78129395,0.00013278
549.71010132,0.00048493
551.63890869,-0.00014617
553.56771606,0.00002833
555.49652344,0.00027900
557.42533081,-0.00023369
559.35413818,0.00029688
561.28294556,0.00012355
563.21175293,0.00002080
565.14056030,0.00022805
567.06936768,0.00016686
568.99817505,0.00035251
570.92698242,0.00025358
572.85578979,0.00030909
574.78459717,0.00023042
576.71340454,0.00005247
578.64221191,-0.00008466
580.57101929,0.00012662
582.49982666,0.00018755
584.42863403,-0.00012028
586.35744141,0.00023091
588.28624878,0.00041644
590.21505615,0.00037831
592.14386353,0.00003058
594.07267090,0.00011882
596.00147827,0.00066554
597.93028564,0.00044351
599.85909302,0.00024744
601.78790039,0.00017906
603.71670776,0.00029327
605.64551514,0.00018070
607.57432251,-0.00016363
609.50312988,-0.00001780
611.43193726,0.00013184
613.36074463,0.00025702
615.28955200,0.00046031
617.21835938,-0.00005356
619.14716675,-0.00015820
621.07597412,0.00012971
623.00478149,0.00028289
624.93358887,0.00022848
626.86239624,0.00025201
628.79120361,0.00036288
630.72001099,0.00029489
632.64881836,0.00053798
634.57762573,0.00063969
636.50643311,0.00088799
638.43524048,0.00090722
640.36404785,0.00076779
642.29285522,0.00095646
644.22166260,0.00105174
646.15046997,0.00114387
648.07927734,0.00141537
650.00808472,0.00114743
651.93689209,0.00078793
653.86569946,0.00116985
655.79450684,0.00122339
657.72331421,0.00120942
659.65212158,0.00148170
661.58092896,0.00167440
663.50973633,0.00169399
665.43854370,0.00142498
667.36735107,0.00137645
669.29615845,0.00158333
671.22496582,0.00182326
673.15377319,0.00179481
675.08258057,0.00192407
677.01138794,0.00207846
678.94019531,0.00189588
680.86900269,0.00173143
682.79781006,0.00181281
684.72661743,0.00210976
686.65542480,0.00186199
688.58423218,0.00192018
690.51303955,0.00198321
692.44184692,0.00190561
694.37065430,0.00242585
696.29946167,0.00249703
698.22826904,0.00284559
700.15707642,0.00311020
702.08588379,0.00303319
704.01469116,0.00320260
705.94349854,0.00272970
707.87230591,0.00193409
709.80111328,0.00169692
711.72992065,0.00160731
713.65872803,0.00089133
715.58753540,0.00051840
717.51634277,0.00011152
719.44515015,-0.00007507
721.37395752,0.00051795
723.30276489,0.00020339
725.23157227,0.00001970
727.16037964,0.00008099
729.08918701,-0.00003175
731.01799438,0.00043352
732.94680176,0.00024499
734.87560913,-0.00020048
736.80441650,0.00010620
738.73322388,0.00000277
740.66203125,-0.00014534
742.59083862,0.00008597
744.51964600,0.00011654
746.44845337,0.00031367
748.37726074,0.00014551
750.30606812,0.00009293
752.23487549,0.00019453
754.16368286,0.00018318
756.09249023,0.00014151
758.02129761,0.00018538
759.95010498,0.00034734
761.87891235,0.00017331
763.80771973,0.00004942
765.73652710,0.00031006
767.66533447,0.00028977
769.59414185,0.00021535
771.52294922,0.00014319
773.45175659,0.00023435
775.38056396,0.00042592
777.30937134,0.00014323
779.23817871,0.00020327
781.16698608,0.00015483
783.09579346,0.00000012
785.02460083,0.00021218
786.95340820,0.00030003
788.88221558,-0.00000255
790.81102295,0.00003317
792.73983032,0.00032522
794.66863770,0.00032769
796.59744507,0.00052033
798.52625244,0.00061646
800.45505981,0.00065557
802.38386719,0.00034703
804.31267456,0.00026104
806.24148193,0.00046174
808.17028931,0.00018852
810.09909668,0.00021884
812.02790405,-0.00000609
813.95671143,-0.00004389
815.88551880,0.00017265
817.81432617,0.00018718
819.74313354,0.00045781
821.67194092,0.00019069
823.60074829,0.00017942
825.52955566,0.00055135
827.45836304,0.00022597
829.38717041,0.00038474
831.31597778,0.00079071
833.24478516,0.00050623
835.17359253,0.00062747
837.10239990,0.00073069
839.03120728,0.00052508
840.96001465,0.00062286
842.88882202,0.00081014
844.81762939,0.00090979
846.74643677,0.00061972
848.67524414,0.00057532
850.60405151,0.00043501
852.53285889,0.00015749
854.46166626,0.00029561
856.39047363,0.00027141
858.31928101,0.00043206
860.24808838,0.00057534
862.17689575,0.00052725
864.10570313,0.00039784
866.03451050,0.00023269
867.96331787,0.00030009
869.89212524,0.00047224
871.82093262,0.00040639
873.74973999,0.00014093
875.67854736,0.00030087
877.60735474,0.00033588
879.53616211,0.00034335
881.46496948,0.00038678
883.39377686,0.00033260
885.32258423,0.00040181
887.25139160,0.00021112
889.18019897,0.00054283
891.10900635,0.00049244
893.03781372,0.00016284
894.96662109,0.00037117
896.89542847,0.00015158
898.82423584,0.00019002
900.75304321,0.00041428
902.68185059,0.00054438
904.61065796,0.00046713
906.53946533,0.00028741
908.46827271,0.00048994
910.39708008,0.00053091
912.32588745,0.00044958
914.25469482,0.00042672
916.18350220,0.00058431
918.11230957,0.00041188
920.04111694,0.00036176
921.96992432,0.00085097
923.89873169,0.00077064
925.82753906,0.00059815
927.75634644,0.00080388
929.68515381,0.00073712
931.61396118,0.00079890
933.54276855,0.00111108
935.47157593,0.00092106
937.40038330,0.00100792
939.32919067,0.00109788
941.25799805,0.00105845
943.18680542,0.00135921
945.11561279,0.00115905
947.04442017,0.00132451
948.97322754,0.00134606
950.90203491,0.00118848
952.83084229,0.00123969
954.75964966,0.00094403
956.68845703,0.00127926
958.61726440,0.00128269
960.54607178,0.00108542
962.47487915,0.00105071
964.40368652,0.00102027
966.33249390,0.00141335
968.26130127,0.00140353
970.19010864,0.00141006
972.11891602,0.00112974
974.04772339,0.00126211
975.97653076,0.00190934
977.90533813,0.00183427
979.83414551,0.00214377
981.76295288,0.00208401
983.69176025,0.00200305
985.62056763,0.00254256
987.54937500,0.00245118
989.47818237,0.00277819
991.40698975,0.00322834
993.33579712,0.00336335
995.26460449,0.00393802
997.19341187,0.00423239
999.12221924,0.00435282
1001.05102661,0.00475437
1002.97983398,0.00529730
1004.90864136,0.00565640
1006.83744873,0.00603436
1008.76625610,0.00642020
1010.69506348,0.00637812
1012.62387085,0.00678217
1014.55267822,0.00725396
1016.48148560,0.00780223
1018.41029297,0.00843278
1020.33910034,0.00831383
1022.26790771,0.00889011
1024.19671509,0.00929249
1026.12552246,0.00922036
1028.05432983,0.00980147
1029.98313721,0.00994333
1031.91194458,0.01023336
1033.84075195,0.01053976
1035.76955933,0.01064292
1037.69836670,0.01103032
1039.62717407,0.01092908
1041.55598145,0.01072215
1043.48478882,0.01065957
1045.41359619,0.01070995
1047.34240356,0.01057463
1049.27121094,0.01008582
1051.20001831,0.01009215
1053.12882568,0.01000842
1055.05763306,0.00979084
1056.98644043,0.00977948
1058.91524780,0.00928579
1060.84405518,0.00910547
1062.77286255,0.00905966
1064.70166992,0.00863549
1066.63047729,0.00827979
1068.55928467,0.00785074
1070.48809204,0.00768045
1072.41689941,0.00719818
1074.34570679,0.00673402
1076.27451416,0.00662437
1078.20332153,0.00628625
1080.13212891,0.00624137
1082.06093628,0.00584642
1083.98974365,0.00545403
1085.91855103,0.00534411
1087.84735840,0.00504421
1089.77616577,0.00505299
1091.70497314,0.00485092
1093.63378052,0.00442363
1095.56258789,0.00430192
1097.49139526,0.00434412
1099.42020264,0.00399789
1101.34901001,0.00380013
1103.27781738,0.00398085
1105.20662476,0.00386382
1107.13543213,0.00383650
1109.06423950,0.00376616
1110.99304687,0.00370746
1112.92185425,0.00369083
1114.85066162,0.00369821
1116.77946899,0.00367921
1118.70827637,0.00352472
1120.63708374,0.00389311
1122.56589111,0.00404966
1124.49469849,0.00377190
1126.42350586,0.00374884
1128.35231323,0.00383525
1130.28112061,0.00397950
1132.20992798,0.00412995
1134.13873535,0.00404287
1136.06754272,0.00428121
1137.99635010,0.00493392
1139.92515747,0.00479037
1141.85396484,0.00483919
1143.78277222,0.00546202
1145.71157959,0.00571644
1147.64038696,0.00594867
1149.56919434,0.00611121
1151.49800171,0.00674037
1153.42680908,0.00730036
1155.35561646,0.00734634
1157.28442383,0.00772895
1159.21323120,0.00802398
1161.14203857,0.00823755
1163.07084595,0.00862549
1164.99965332,0.00889161
1166.92846069,0.00914107
1168.85726807,0.00949984
1170.78607544,0.00976100
1172.71488281,0.01009595
1174.64369019,0.01058006
1176.57249756,0.01102910
1178.50130493,0.01143918
1180.43011230,0.01177605
1182.35891968,0.01234287
1184.28772705,0.01301926
1186.21653442,0.01353925
1188.14534180,0.01404750
1190.07414917,0.01478724
1192.00295654,0.01545451
1193.93176392,0.01612106
1195.86057129,0.01719823
1197.78937866,0.01784373
1199.71818604,0.01844927
1201.64699341,0.01938087
1203.57580078,0.02010860
1205.50460815,0.02074627
1207.43341553,0.02133115
1209.36222290,0.02227078
1211.29103027,0.02302499
1213.21983765,0.02343041
1215.14864502,0.02400351
1217.07745239,0.02455980
1219.00625977,0.02510933
1220.93506714,0.02535566
1222.86387451,0.02552401
1224.79268188,0.02590085
1226.72148926,0.02617093
1228.65029663,0.02636106
1230.57910400,0.02640073
1232.50791138,0.02649964
1234.43671875,0.02679765
1236.36552612,0.02662208
1238.29433350,0.02655137
1240.22314087,0.02676108
1242.15194824,0.02650342
1244.08075562,0.02650830
1246.00956299,0.02636960
1247.93837036,0.02604947
1249.86717773,0.02596330
1251.79598511,0.02581838
1253.72479248,0.02567294
1255.65359985,0.02516540
1257.58240723,0.02514593
1259.51121460,0.02484502
1261.44002197,0.02417377
1263.36882935,0.02417165
1265.29763672,0.02370529
1267.22644409,0.02336387
1269.15525146,0.02311215
1271.08405884,0.02278119
1273.01286621,0.02245176
1274.94167358,0.02201381
1276.87048096,0.02191893
1278.79928833,0.02121514
1280.72809570,0.02069945
1282.65690308,0.02044644
1284.58571045,0.02002119
1286.51451782,0.01989244
1288.44332520,0.01940779
1290.37213257,0.01909611
1292.30093994,0.01904775
1294.22974731,0.01888297
1296.15855469,0.01869972
1298.08736206,0.01885622
1300.01616943,0.01891403
1301.94497681,0.01867772
1303.87378418,0.01912925
1305.80259155,0.01915203
1307.73139893,0.01927544
1309.66020630,0.02006392
1311.58901367,0.02006155
1313.51782104,0.02035807
1315.44662842,0.02095206
1317.37543579,0.02128069
1319.30424316,0.02195353
1321.23305054,0.02262516
1323.16185791,0.02332705
1325.09066528,0.02401651
1327.01947266,0.02483463
1328.94828003,0.02547489
1330.87708740,0.02581439
1332.80589478,0.02672437
1334.73470215,0.02719468
1336.66350952,0.02711550
1338.59231689,0.02688175
1340.52112427,0.02715840
1342.44993164,0.02878656
1344.37873901,0.02905163
1346.30754639,0.02867968
1348.23635376,0.02880711
1350.16516113,0.02842135
1352.09396851,0.02861444
1354.02277588,0.02817443
1355.95158325,0.02786384
1357.88039062,0.02794752
1359.80919800,0.02728807
1361.73800537,0.02616974
1363.66681274,0.02556648
1365.59562012,0.02698087
1367.52442749,0.02655164
1369.45323486,0.02604362
1371.38204224,0.02675554
1373.31084961,0.02501921
1375.23965698,0.02518898
1377.16846436,0.02625874
1379.09727173,0.02594303
1381.02607910,0.02599292
1382.95488647,0.02607806
1384.88369385,0.02590858
1386.81250122,0.02459139
1388.74130859,0.02510287
1390.67011597,0.02749144
1392.59892334,0.02660552
1394.52773071,0.02436196
1396.45653809,0.02574622
1398.38534546,0.02579836
1400.31415283,0.02572839
1402.24296021,0.02827578
1404.17176758,0.02624541
1406.10057495,0.02639467
1408.02938232,0.02782353
1409.95818970,0.02664827
1411.88699707,0.02738007
1413.81580444,0.02619729
1415.74461182,0.02674884
1417.67341919,0.02384241
1419.60222656,0.02072015
1421.53103394,0.02479021
1423.45984131,0.02416230
1425.38864868,0.02319113
1427.31745605,0.02384688
1429.24626343,0.02203951
1431.17507080,0.02130733
1433.10387817,0.02179144
1435.03268555,0.01976987
1436.96149292,0.01625015
1438.89030029,0.01899765
1440.81910767,0.01971208
1442.74791504,0.01798762
1444.67672241,0.01938736
1446.60552979,0.01753720
1448.53433716,0.01746888
1450.46314453,0.01856233
1452.39195190,0.01894846
1454.32075928,0.01944235
1456.24956665,0.01560931
1458.17837402,0.01606238
1460.10718140,0.02206915
1462.03598877,0.02398003
1463.96479614,0.02354525
1465.89360352,0.02410522
1467.82241089,0.02812173
1469.75121826,0.03021709
1471.68002563,0.02603040
1473.60883301,0.02746812
1475.53764038,0.03148913
1477.46644775,0.03439113
1479.39525513,0.03829369
1481.32406250,0.03853973
1483.25286987,0.04141830
1485.18167725,0.04243542
1487.11048462,0.04108907
1489.03929199,0.04064256
1490.96809937,0.04054131
1492.89690674,0.04854293
1494.82571411,0.04731642
1496.75452148,0.04134039
1498.68332886,0.04753244
1500.61213623,0.04923874
1502.54094360,0.05336916
1504.46975098,0.04996076
1506.39855835,0.03378629
1508.32736572,0.04261468
1510.25617310,0.05178437
1512.18498047,0.05001956
1514.11378784,0.05485718
1516.04259521,0.04836528
1517.97140259,0.05055322
1519.90020996,0.04904275
1521.82901733,0.04101563
1523.75782471,0.05171591
1525.68663208,0.05090106
1527.61543945,0.05062970
1529.54424683,0.05736415
1531.47305420,0.05478915
1533.40186157,0.04908816
1535.33066895,0.05265081
1537.25947632,0.05728944
1539.18828369,0.03853843
1541.11709106,0.04028230
1543.04589844,0.05006133
1544.97470581,0.04750875
1546.90351318,0.05854065
1548.83232056,0.05398344
1550.76112793,0.05550415
1552.68993530,0.05595936
1554.61874268,0.04979059
1556.54755005,0.05390572
1558.47635742,0.03528892
1560.40516479,0.03848606
1562.33397217,0.05954380
1564.26277954,0.05553478
1566.19158691,0.05736693
1568.12039429,0.05679719
1570.04920166,0.04892476
1571.97800903,0.05813062
1573.90681641,0.05912457
1575.83562378,0.04512924
1577.76443115,0.05188044
1579.69323853,0.06019381
1581.62204590,0.05749592
1583.55085327,0.05891052
1585.47966064,0.05825599
1587.40846802,0.05871199
1589.33727539,0.05816223
1591.26608276,0.05827054
1593.19489014,0.05823536
1595.12369751,0.05743376
1597.05250488,0.05845584
1598.98131226,0.05802164
1600.91011963,0.05826853
1602.83892700,0.05714570
1604.76773437,0.05837788
1606.69654175,0.05746812
1608.62534912,0.05714953
1610.55415649,0.05707186
1612.48296387,0.05771022
1614.41177124,0.05873819
1616.34057861,0.04636143
1618.26938599,0.05083612
1620.19819336,0.06095217
1622.12700073,0.05273370
1624.05580811,0.05283835
1625.98461548,0.05632059
1627.91342285,0.05583898
1629.84223022,0.05562656
1631.77103760,0.06020165
1633.69984497,0.05478343
1635.62865234,0.04327714
1637.55745972,0.05184095
1639.48626709,0.05833418
1641.41507446,0.05650212
1643.34388184,0.05853512
1645.27268921,0.05185035
1647.20149658,0.04396017
1649.13030396,0.05713182
1651.05911133,0.05428016
1652.98791870,0.03161268
1654.91672607,0.04555407
1656.84553345,0.06017491
1658.77434082,0.05729247
1660.70314819,0.05899467
1662.63195557,0.05276094
1664.56076294,0.05599371
1666.48957031,0.06128290
1668.41837769,0.05207598
1670.34718506,0.05001524
1672.27599243,0.05838112
1674.20479980,0.05317128
1676.13360718,0.05037308
1678.06241455,0.05974881
1679.99122192,0.05738721
1681.92002930,0.05647185
1683.84883667,0.04443730
1685.77764404,0.04381147
1687.70645142,0.06349766
1689.63525879,0.05391106
1691.56406616,0.06023217
1693.49287354,0.06208874
1695.42168091,0.04247265
1697.35048828,0.05447177
1699.27929565,0.04702489
1701.20810303,0.04095961
1703.13691040,0.05953357
1705.06571777,0.05393343
1706.99452515,0.05450480
1708.92333252,0.06024305
1710.85213989,0.05755888
1712.78094727,0.05879091
1714.70975464,0.05358671
1716.63856201,0.04732582
1718.56736938,0.04630089
1720.49617676,0.05666228
1722.42498413,0.05974628
1724.35379150,0.05448913
1726.28259888,0.06044979
1728.21140625,0.05522794
1730.14021362,0.05538071
1732.06902100,0.05424914
1733.99782837,0.03888310
1735.92663574,0.05066063
1737.85544312,0.05740691
1739.78425049,0.04966618
1741.71305786,0.05486171
1743.64186523,0.05574990
1745.57067261,0.05578502
1747.49947998,0.05618056
1749.42828735,0.05314980
1751.35709473,0.05048509
1753.28590210,0.05724423
1755.21470947,0.06038505
1757.14351685,0.05399029
1759.07232422,0.06064902
1761.00113159,0.05626855
1762.92993896,0.05366118
1764.85874634,0.06325724
1766.78755371,0.05595464
1768.71636108,0.05629688
1770.64516846,0.05583164
1772.57397583,0.04931463
1774.50278320,0.05617527
1776.43159058,0.06004393
1778.36039795,0.05923690
1780.28920532,0.05809028
1782.21801270,0.05881632
1784.14682007,0.05875483
1786.07562744,0.05718339
1788.00443481,0.06089878
1789.93324219,0.05893687
1791.86204956,0.05214511
1793.79085693,0.05503345
1795.71966431,0.05985923
1797.64847168,0.05894754
1799.57727905,0.05799304
1801.50608643,0.05669166
1803.43489380,0.05887910
1805.36370117,0.06062961
1807.29250854,0.05961554
1809.22131592,0.05976084
1811.15012329,0.05777171
1813.07893066,0.05994757
1815.00773804,0.06043950
1816.93654541,0.05960029
1818.86535278,0.06025571
1820.79416016,0.06001320
1822.72296753,0.06106354
1824.65177490,0.05612789
1826.58058228,0.05855086
1828.50938965,0.05891278
1830.43819702,0.05433573
1832.36700439,0.06032222
1834.29581177,0.05993584
1836.22461914,0.05969035
1838.15342651,0.05960048
1840.08223389,0.05986429
1842.01104126,0.06003911
1843.93984863,0.05200450
1845.86865601,0.05615345
1847.79746338,0.06002635
1849.72627075,0.05848892
1851.65507812,0.06070220
1853.58388550,0.05920240
1855.51269287,0.06005404
1857.44150024,0.05958242
1859.37030762,0.05910948
1861.29911499,0.05980259
1863.22792236,0.05880463
1865.15672974,0.05968352
1867.08553711,0.05727089
1869.01434448,0.05423912
1870.94315186,0.05692562
1872.87195923,0.05978024
1874.80076660,0.05881058
1876.72957397,0.05901659
1878.65838135,0.05894856
1880.58718872,0.05848143
1882.51599609,0.05892021
1884.44480347,0.05791677
1886.37361084,0.05893136
1888.30241821,0.05738845
1890.23122559,0.05600493
1892.16003296,0.05862790
1894.08884033,0.05774404
1896.01764771,0.05739423
1897.94645508,0.05817959
1899.87526245,0.05791956
1901.80406982,0.05808301
1903.73287720,0.05762826
1905.66168457,0.05801863
1907.59049194,0.05737387
1909.51929932,0.05709077
1911.44810669,0.05741882
1913.37691406,0.05741790
1915.30572144,0.05816605
1917.23452881,0.05490440
1919.16333618,0.05500397
1921.09214355,0.05770984
1923.02095093,0.05535629
1924.94975830,0.05679563
1926.87856567,0.05757687
1928.80737305,0.05670343
1930.73618042,0.05768618
1932.66498779,0.05676781
1934.59379517,0.05750151
1936.52260254,0.05697351
1938.45140991,0.05720565
1940.38021729,0.05717789
1942.30902466,0.05463220
1944.23783203,0.05605318
1946.16663940,0.05686390
1948.09544678,0.05667381
1950.02425415,0.05695761
1951.95306152,0.05667786
1953.88186890,0.05697312
1955.81067627,0.05654630
1957.73948364,0.05679081
1959.66829102,0.05679196
1961.59709839,0.05652773
1963.52590576,0.05680996
1965.45471313,0.05626188
1967.38352051,0.05564384
1969.31232788,0.05626264
1971.24113525,0.05667718
1973.16994263,0.05636093
1975.09875000,0.05667387
1977.02755737,0.05633137
1978.95636475,0.05634499
1980.88517212,0.05630681
1982.81397949,0.05588116
1984.74278687,0.05623505
1986.67159424,0.05581252
1988.60040161,0.05594990
1990.52920898,0.05549671
1992.45801636,0.05453337
1994.38682373,0.05546096
1996.31563110,0.05580568
1998.24443848,0.05534151
2000.17324585,0.05550403
2002.10205322,0.05541848
2004.03086060,0.05520770
2005.95966797,0.05525880
2007.88847534,0.05498770
2009.81728271,0.05491536
2011.74609009,0.05484067
2013.67489746,0.05487495
2015.60370483,0.05459151
2017.53251221,0.05390844
2019.46131958,0.05446426
2021.39012695,0.05445167
2023.31893433,0.05416737
2025.24774170,0.05431824
2027.17654907,0.05395735
2029.10535645,0.05403206
2031.03416382,0.05399126
2032.96297119,0.05382837
2034.89177856,0.05358858
2036.82058594,0.05354905
2038.74939331,0.05356082
2040.67820068,0.05318865
2042.60700806,0.05321405
2044.53581543,0.05317000
2046.46462280,0.05317661
2048.39343018,0.05315556
2050.32223755,0.05295634
2052.25104492,0.05286223
2054.17985229,0.05274820
2056.10865967,0.05273433
2058.03746704,0.05259470
2059.96627441,0.05236928
2061.89508179,0.05228353
2063.82388916,0.05212861
2065.75269653,0.05190331
2067.68150391,0.05207343
2069.61031128,0.05203681
2071.53911865,0.05188008
2073.46792603,0.05192631
2075.39673340,0.05169616
2077.32554077,0.05164271
2079.25434814,0.05158001
2081.18315552,0.05153434
2083.11196289,0.05136775
2085.04077026,0.05126076
2086.96957764,0.05133776
2088.89838501,0.05105383
2090.82719238,0.05100093
2092.75599976,0.05087313
2094.68480713,0.05082794
2096.61361450,0.05093246
2098.54242187,0.05073904
2100.47122925,0.05067410
2102.40003662,0.05059575
2104.32884399,0.05050063
2106.25765137,0.05047382
2108.18645874,0.05040397
2110.11526611,0.05031196
2112.04407349,0.05028796
2113.97288086,0.05006082
2115.90168823,0.05003070
2117.83049561,0.05009753
2119.75930298,0.04988100
2121.68811035,0.04998110
2123.61691772,0.04983236
2125.54572510,0.04972338
2127.47453247,0.04967200
2129.40333984,0.04948050
2131.33214722,0.04957185
2133.26095459,0.04950043
2135.18976196,0.04948245
2137.11856934,0.04926881
2139.04737671,0.04923094
2140.97618408,0.04937290
2142.90499146,0.04923074
2144.83379883,0.04918011
2146.76260620,0.04902364
2148.69141357,0.04905690
2150.62022095,0.04903032
2152.54902832,0.04895295
2154.47783569,0.04902022
2156.40664307,0.04891703
2158.33545044,0.04888450
2160.26425781,0.04880434
2162.19306519,0.04867075
2164.12187256,0.04867617
2166.05067993,0.04868121
2167.97948730,0.04857679
2169.90829468,0.04851893
2171.83710205,0.04841395
2173.76590942,0.04844403
2175.69471680,0.04845405
2177.62352417,0.04827753
2179.55233154,0.04832303
2181.48113892,0.04820950
2183.40994629,0.04811413
2185.33875366,0.04805321
2187.26756104,0.04799842
2189.19636841,0.04800986
2191.12517578,0.04785668
2193.05398315,0.04789164
2194.98279053,0.04790118
2196.91159790,0.04777005
2198.84040527,0.04758090
2200.76921265,0.04778897
2202.69802002,0.04780261
2204.62682739,0.04753353
2206.55563477,0.04790864
2208.48444214,0.04765496
2210.41324951,0.04728702
2212.34205688,0.04746718
2214.27086426,0.04742651
2216.19967163,0.04736706
2218.12847900,0.04726421
2220.05728638,0.04724462
2221.98609375,0.04716229
2223.91490112,0.04717352
2225.84370850,0.04705591
2227.77251587,0.04680361
2229.70132324,0.04693387
2231.63013062,0.04687323
2233.55893799,0.04678055
2235.48774536,0.04676348
2237.41655273,0.04659530
2239.34536011,0.04653097
2241.27416748,0.04647217
2243.20297485,0.04638662
2245.13178223,0.04637872
2247.06058960,0.04630913
2248.98939697,0.04620271
2250.91820435,0.04615303
2252.84701172,0.04600371
2254.77581909,0.04599103
2256.70462646,0.04609494
2258.63343384,0.04599391
2260.56224121,0.04588433
2262.49104858,0.04582846
2264.41985596,0.04567356
2266.34866333,0.04559596
2268.27747070,0.04572444
2270.20627808,0.04575191
2272.13508545,0.04555268
2274.06389282,0.04548020
2275.99270020,0.04561265
2277.92150757,0.04552422
2279.85031494,0.04534412
2281.77912231,0.04530679
2283.70792969,0.04533882
2285.63673706,0.04531283
2287.56554443,0.04520626
2289.49435181,0.04514305
2291.42315918,0.04484934
2293.35196655,0.04482637
2295.28077393,0.04480829
2297.20958130,0.04443644
2299.13838867,0.04447593
2301.06719604,0.04439372
2302.99600342,0.04409227
2304.92481079,0.04383093
2306.85361816,0.04364000
2308.78242554,0.04333916
2310.71123291,0.04294781
2312.64004028,0.04279608
2314.56884766,0.04235930
2316.49765503,0.04188174
2318.42646240,0.04135648
2320.35526978,0.04077797
2322.28407715,0.04019829
2324.21288452,0.03970679
2326.14169189,0.03945871
2328.07049927,0.03891070
2329.99930664,0.03854785
2331.92811401,0.03820042
2333.85692139,0.03804887
2335.78572876,0.03809112
2337.71453613,0.03785474
2339.64334351,0.03780018
2341.57215088,0.03800026
2343.50095825,0.03863018
2345.42976562,0.03918362
2347.35857300,0.04074363
2349.28738037,0.04200693
2351.21618774,0.04050233
2353.14499512,0.03872235
2355.07380249,0.03744345
2357.00260986,0.03631089
2358.93141724,0.03567921
2360.86022461,0.03532058
2362.78903198,0.03520547
2364.71783936,0.03532477
2366.64664673,0.03599906
2368.57545410,0.03669871
2370.50426147,0.03734107
2372.43306885,0.03825537
2374.36187622,0.03930935
2376.29068359,0.04013985
2378.21949097,0.04095651
2380.14829834,0.04172913
2382.07710571,0.04210551
2384.00591309,0.04248349
2385.93472046,0.04254775
2387.86352783,0.04257417
2389.79233521,0.04247512
2391.72114258,0.04241866
2393.64994995,0.04261281
2395.57875732,0.04239672
2397.50756470,0.04233377
2399.43637207,0.04219089
2401.36517944,0.04221115
2403.29398682,0.04228047
2405.22279419,0.04214919
2407.15160156,0.04221078
2409.08040894,0.04198757
2411.00921631,0.04199078
2412.93802368,0.04190531
2414.86683105,0.04181193
2416.79563843,0.04187998
2418.72444580,0.04173405
2420.65325317,0.04176695
2422.58206055,0.04161757
2424.51086792,0.04161251
2426.43967529,0.04162094
2428.36848267,0.04136498
2430.29729004,0.04131908
2432.22609741,0.04134906
2434.15490479,0.04139844
2436.08371216,0.04141508
2438.01251953,0.04126774
2439.94132690,0.04123120
2441.87013428,0.04131358
2443.79894165,0.04109079
2445.72774902,0.04111985
2447.65655640,0.04114404
2449.58536377,0.04095863
2451.51417114,0.04102654
2453.44297852,0.04080518
2455.37178589,0.04081559
2457.30059326,0.04077563
2459.22940063,0.04051488
2461.15820801,0.04068032
2463.08701538,0.04068460
2465.01582275,0.04062802
2466.94463013,0.04052156
2468.87343750,0.04042040
2470.80224487,0.04046913
2472.73105225,0.04043069
2474.65985962,0.04041674
2476.58866699,0.04031023
2478.51747437,0.04031868
2480.44628174,0.04036386
2482.37508911,0.04018176
2484.30389648,0.04011320
2486.23270386,0.04004070
2488.16151123,0.03994958
2490.09031860,0.03994899
2492.01912598,0.03985733
2493.94793335,0.03992070
2495.87674072,0.03986108
2497.80554810,0.03964169
2499.73435547,0.03964796
2501.66316284,0.03961923
2503.59197021,0.03966925
2505.52077759,0.03962314
2507.44958496,0.03940961
2509.37839233,0.03941417
2511.30719971,0.03950468
2513.23600708,0.03945738
2515.16481445,0.03936388
2517.09362183,0.03926202
2519.02242920,0.03912111
2520.95123657,0.03927331
2522.88004395,0.03925870
2524.80885132,0.03905383
2526.73765869,0.03906675
2528.66646606,0.03902751
2530.59527344,0.03901467
2532.52408081,0.03889343
2534.45288818,0.03892952
2536.38169556,0.03886271
2538.31050293,0.03867308
2540.23931030,0.03877603
2542.16811768,0.03862417
2544.09692505,0.03862601
2546.02573242,0.03869573
2547.95453979,0.03856528
2549.88334717,0.03854590
2551.81215454,0.03847912
2553.74096191,0.03837017
2555.66976929,0.03826850
2557.59857666,0.03827137
2559.52738403,0.03817922
2561.45619141,0.03811245
2563.38499878,0.03820188
2565.31380615,0.03814499
2567.24261353,0.03798801
2569.17142090,0.03799801
2571.10022827,0.03805717
2573.02903564,0.03792423
2574.95784302,0.03788137
2576.88665039,0.03785430
2578.81545776,0.03777596
2580.74426514,0.03773805
2582.67307251,0.03776998
2584.60187988,0.03771158
2586.53068726,0.03749950
2588.45949463,0.03753023
2590.38830200,0.03754298
2592.31710937,0.03749396
2594.24591675,0.03739934
2596.17472412,0.03734960
2598.10353149,0.03736316
2600.03233887,0.03727373
2601.96114624,0.03733069
2603.88995361,0.03711495
2605.81876099,0.03696108
2607.74756836,0.03706055
2609.67637573,0.03706947
2611.60518311,0.03703450
2613.53399048,0.03682875
2615.46279785,0.03686853
2617.39160522,0.03691689
2619.32041260,0.03675308
2621.24921997,0.03673439
2623.17802734,0.03675433
2625.10683472,0.03663678
2627.03564209,0.03658340
2628.96444946,0.03654896
2630.89325684,0.03637402
2632.82206421,0.03639745
2634.75087158,0.03636467
2636.67967895,0.03629966
2638.60848633,0.03624273
2640.53729370,0.03624895
2642.46610107,0.03633614
2644.39490845,0.03604026
2646.32371582,0.03598309
2648.25252319,0.03612444
2650.18133057,0.03605611
2652.11013794,0.03594089
2654.03894531,0.03596005
2655.96775269,0.03594371
2657.89656006,0.03571989
2659.82536743,0.03569273
2661.75417480,0.03559785
2663.68298218,0.03575061
2665.61178955,0.03576752
2667.54059692,0.03545545
2669.46940430,0.03563476
2671.39821167,0.03556555
2673.32701904,0.03539256
2675.25582642,0.03541156
2677.18463379,0.03540118
2679.11344116,0.03543510
2681.04224854,0.03532860
2682.97105591,0.03522734
2684.89986328,0.03518544
2686.82867065,0.03517103
2688.75747803,0.03505479
2690.68628540,0.03499547
2692.61509277,0.03498258
2694.54390015,0.03494077
2696.47270752,0.03489810
2698.40151489,0.03478249
2700.33032227,0.03478479
2702.25912964,0.03475484
2704.18793701,0.03472731
2706.11674438,0.03466031
2708.04555176,0.03458714
2709.97435913,0.03456173
2711.90316650,0.03449170
2713.83197388,0.03447329
2715.76078125,0.03441300
2717.68958862,0.03442659
2719.61839600,0.03429757
2721.54720337,0.03426024
2723.47601074,0.03432011
2725.40481812,0.03409748
2727.33362549,0.03415286
2729.26243286,0.03417951
2731.19124023,0.03395579
2733.12004761,0.03394451
2735.04885498,0.03387484
2736.97766235,0.03378575
2738.90646973,0.03389424
2740.83527710,0.03372636
2742.76408447,0.03357609
2744.69289185,0.03366332
2746.62169922,0.03357724
2748.55050659,0.03358038
2750.47931396,0.03345522
2752.40812134,0.03336917
2754.33692871,0.03347530
2756.26573608,0.03343435
2758.19454346,0.03332472
2760.12335083,0.03312544
2762.05215820,0.03321796
2763.98096558,0.03325406
2765.90977295,0.03305873
2767.83858032,0.03302667
2769.76738770,0.03301696
2771.69619507,0.03299387
2773.62500244,0.03291339
2775.55380981,0.03283178
2777.48261719,0.03270124
2779.41142456,0.03264514
2781.34023193,0.03255551
2783.26903931,0.03258654
2785.19784668,0.03266809
2787.12665405,0.03243812
2789.05546143,0.03245756
2790.98426880,0.03236663
2792.91307617,0.03224795
2794.84188354,0.03226434
2796.77069092,0.03211402
2798.69949829,0.03219945
2800.62830566,0.03211042
2802.55711304,0.03189712
2804.48592041,0.03190840
2806.41472778,0.03195225
2808.34353516,0.03187623
2810.27234253,0.03180716
2812.20114990,0.03180492
2814.12995728,0.03167548
2816.05876465,0.03161572
2817.98757202,0.03155408
2819.91637939,0.03141713
2821.84518677,0.03130021
2823.77399414,0.03135977
2825.70280151,0.03131376
2827.63160889,0.03114662
2829.56041626,0.03119643
2831.48922363,0.03101089
2833.41803101,0.03097209
2835.34683838,0.03097437
2837.27564575,0.03073606
2839.20445312,0.03069314
2841.13326050,0.03060505
2843.06206787,0.03047292
2844.99087524,0.03021302
2846.91968262,0.02999460
2848.84848999,0.02983351
2850.77729736,0.02973624
2852.70610474,0.02993856
2854.63491211,0.03002387
2856.56371948,0.03001792
2858.49252686,0.02993233
2860.42133423,0.02989007
2862.35014160,0.02989517
2864.27894897,0.02978507
2866.20775635,0.02978464
2868.13656372,0.02971820
2870.06537109,0.02966635
2871.99417847,0.02963020
2873.92298584,0.02963177
2875.85179321,0.02967754
2877.78060059,0.02952964
2879.70940796,0.02954702
2881.63821533,0.02955298
2883.56702270,0.02938034
2885.49583008,0.02927133
2887.42463745,0.02912180
2889.35344482,0.02909408
2891.28225220,0.02907098
2893.21105957,0.02897929
2895.13986694,0.02890136
2897.06867432,0.02878674
2898.99748169,0.02876861
2900.92628906,0.02866593
2902.85509644,0.02862691
2904.78390381,0.02858102
2906.71271118,0.02843625
2908.64151855,0.02849764
2910.57032593,0.02835921
2912.49913330,0.02812728
2914.42794067,0.02794933
2916.35674805,0.02779750
2918.28555542,0.02782928
2920.21436279,0.02772952
2922.14317017,0.02775483
2924.07197754,0.02795064
2926.00078491,0.02794246
2927.92959229,0.02787751
2929.85839966,0.02788435
2931.78720703,0.02791724
2933.71601440,0.02795678
2935.64482178,0.02795099
2937.57362915,0.02797952
2939.50243652,0.02804182
2941.43124390,0.02799585
2943.36005127,0.02794247
2945.28885864,0.02786786
2947.21766602,0.02794761
2949.14647339,0.02786908
2951.07528076,0.02765423
2953.00408813,0.02774505
2954.93289551,0.02762181
2956.86170288,0.02760111
2958.79051025,0.02753721
2960.71931763,0.02744085
2962.64812500,0.02752205
2964.57693237,0.02732650
2966.50573975,0.02742475
2968.43454712,0.02739593
2970.36335449,0.02741171
2972.29216187,0.02752853
2974.22096924,0.02739028
2976.14977661,0.02754994
2978.07858398,0.02750270
2980.00739136,0.02753048
2981.93619873,0.02749973
2983.86500610,0.02738530
2985.79381348,0.02746670
2987.72262085,0.02731656
2989.65142822,0.02733635
2991.58023560,0.02730592
2993.50904297,0.02724183
2995.43785034,0.02714812
2997.36665771,0.02710775
2999.29546509,0.02715072
3001.22427246,0.02696475
3003.15307983,0.02697242
3005.08188721,0.02693113
3007.01069458,0.02690681
3008.93950195,0.02682195
3010.86830933,0.02670348
3012.79711670,0.02677733
3014.72592407,0.02663408
3016.65473145,0.02663602
3018.58353882,0.02667803
3020.51234619,0.02659013
3022.44115356,0.02653631
3024.36996094,0.02643708
3026.29876831,0.02638270
3028.22757568,0.02635995
3030.15638306,0.02623153
3032.08519043,0.02612176
3034.01399780,0.02621251
3035.94280518,0.02612081
3037.87161255,0.02602782
3039.80041992,0.02599189
3041.72922729,0.02583034
3043.65803467,0.02585164
3045.58684204,0.02577787
3047.51564941,0.02564201
3049.44445679,0.02571724
3051.37326416,0.02569844
3053.30207153,0.02552875
3055.23087891,0.02550496
3057.15968628,0.02543278
3059.08849365,0.02537978
3061.01730103,0.02544509
3062.94610840,0.02531822
3064.87491577,0.02523409
3066.80372314,0.02518176
3068.73253052,0.02519664
3070.66133789,0.02516233
3072.59014526,0.02510088
3074.51895264,0.02517280
3076.44776001,0.02503983
3078.37656738,0.02492968
3080.30537476,0.02487017
3082.23418213,0.02498430
3084.16298950,0.02492173
3086.09179687,0.02466015
3088.02060425,0.02479927
3089.94941162,0.02469016
3091.87821899,0.02461108
3093.80702637,0.02467179
3095.73583374,0.02452139
3097.66464111,0.02453012
3099.59344849,0.02445970
3101.52225586,0.02435349
3103.45106323,0.02432515
3105.37987061,0.02432087
3107.30867798,0.02434698
3109.23748535,0.02424007
3111.16629272,0.02415442
3113.09510010,0.02413403
3115.02390747,0.02401187
3116.95271484,0.02389673
3118.88152222,0.02378531
3120.81032959,0.02375771
3122.73913696,0.02377015
3124.66794434,0.02370511
3126.59675171,0.02375136
3128.52555908,0.02357846
3130.45436645,0.02348729
3132.38317383,0.02351790
3134.31198120,0.02334966
3136.24078857,0.02342240
3138.16959595,0.02335811
3140.09840332,0.02322525
3142.02721069,0.02318843
3143.95601807,0.02316806
3145.88482544,0.02314059
3147.81363281,0.02293582
3149.74244019,0.02288849
3151.67124756,0.02281092
3153.60005493,0.02278495
3155.52886230,0.02280212
3157.45766968,0.02274387
3159.38647705,0.02267235
3161.31528442,0.02259730
3163.24409180,0.02265587
3165.17289917,0.02251780
3167.10170654,0.02246645
3169.03051392,0.02241541
3170.95932129,0.02231823
3172.88812866,0.02229459
3174.81693604,0.02212701
3176.74574341,0.02210140
3178.67455078,0.02199367
3180.60335815,0.02195782
3182.53216553,0.02198565
3184.46097290,0.02188996
3186.38978027,0.02180650
3188.31858765,0.02177018
3190.24739502,0.02172379
3192.17620239,0.02156508
3194.10500977,0.02166105
3196.03381714,0.02160572
3197.96262451,0.02146150
3199.89143188,0.02143023
3201.82023926,0.02133785
3203.74904663,0.02135405
3205.67785400,0.02126127
3207.60666138,0.02126397
3209.53546875,0.02115503
3211.46427612,0.02108106
3213.39308350,0.02103447
3215.32189087,0.02092063
3217.25069824,0.02109854
3219.17950562,0.02104835
3221.10831299,0.02100008
3223.03712036,0.02098318
3224.96592773,0.02095230
3226.89473511,0.02090880
3228.82354248,0.02072185
3230.75234985,0.02073867
3232.68115723,0.02073881
3234.60996460,0.02080189
3236.53877197,0.02069002
3238.46757935,0.02052239
3240.39638672,0.02064772
3242.32519409,0.02062174
3244.25400146,0.02045270
3246.18280884,0.02041513
3248.11161621,0.02051550
3250.04042358,0.02043745
3251.96923096,0.02043404
3253.89803833,0.02044171
3255.82684570,0.02029059
3257.75565308,0.02034836
3259.68446045,0.02034043
3261.61326782,0.02027423
3263.54207520,0.02032274
3265.47088257,0.02029875
3267.39968994,0.02026926
3269.32849731,0.02028580
3271.25730469,0.02018083
3273.18611206,0.02013821
3275.11491943,0.02010057
3277.04372681,0.02010859
3278.97253418,0.02019844
3280.90134155,0.01997717
3282.83014893,0.01997584
3284.75895630,0.02004379
3286.68776367,0.01996454
3288.61657104,0.02003296
3290.54537842,0.02001071
3292.47418579,0.01992943
3294.40299316,0.01982935
3296.33180054,0.01996019
3298.26060791,0.01996231
3300.18941528,0.01984045
3302.11822266,0.01979927
3304.04703003,0.01968100
3305.97583740,0.01976449
3307.90464478,0.01972137
3309.83345215,0.01974334
3311.76225952,0.01976858
3313.69106689,0.01963802
3315.61987427,0.01961238
3317.54868164,0.01954185
3319.47748901,0.01956300
3321.40629639,0.01954551
3323.33510376,0.01947052
3325.26391113,0.01945417
3327.19271851,0.01952640
3329.12152588,0.01947603
3331.05033325,0.01943978
3332.97914062,0.01953905
3334.90794800,0.01936217
3336.83675537,0.01923216
3338.76556274,0.01923153
3340.69437012,0.01927746
3342.62317749,0.01930952
3344.55198486,0.01927060
3346.48079224,0.01921840
3348.40959961,0.01915912
3350.33840698,0.01913414
3352.26721436,0.01909489
3354.19602173,0.01911670
3356.12482910,0.01896741
3358.05363647,0.01898601
3359.98244385,0.01897201
3361.91125122,0.01881087
3363.84005859,0.01889503
3365.76886597,0.01882599
3367.69767334,0.01885232
3369.62648071,0.01876001
3371.55528809,0.01870107
3373.48409546,0.01877152
3375.41290283,0.01872523
3377.34171020,0.01878895
3379.27051758,0.01869526
3381.19932495,0.01871010
3383.12813232,0.01863736
3385.05693970,0.01847888
3386.98574707,0.01849152
3388.91455444,0.01859340
3390.84336182,0.01848372
3392.77216919,0.01826767
3394.70097656,0.01836004
3396.62978394,0.01821727
3398.55859131,0.01823124
3400.48739868,0.01817998
3402.41620605,0.01814102
3404.34501343,0.01828544
3406.27382080,0.01811880
3408.20262817,0.01820199
3410.13143555,0.01808188
3412.06024292,0.01806290
3413.98905029,0.01806073
3415.91785767,0.01796524
3417.84666504,0.01803348
3419.77547241,0.01782579
3421.70427979,0.01791373
3423.63308716,0.01790594
3425.56189453,0.01789069
3427.49070190,0.01793651
3429.41950928,0.01781579
3431.34831665,0.01772509
3433.27712402,0.01772991
3435.20593140,0.01778417
3437.13473877,0.01753001
3439.06354614,0.01765355
3440.99235352,0.01757721
3442.92116089,0.01747532
3444.84996826,0.01759091
3446.77877563,0.01725324
3448.70758301,0.01736943
3450.63639038,0.01748128
3452.56519775,0.01740830
3454.49400513,0.01738981
3456.42281250,0.01738782
3458.35161987,0.01738186
3460.28042725,0.01724765
3462.20923462,0.01722414
3464.13804199,0.01719109
3466.06684937,0.01729827
3467.99565674,0.01719043
3469.92446411,0.01719184
3471.85327148,0.01731829
3473.78207886,0.01722644
3475.71088623,0.01721177
3477.63969360,0.01717000
3479.56850098,0.01716622
3481.49730835,0.01695167
3483.42611572,0.01703703
3485.35492310,0.01712679
3487.28373047,0.01689704
3489.21253784,0.01694291
3491.14134521,0.01701412
3493.07015259,0.01700955
3494.99895996,0.01691365
3496.92776733,0.01697219
3498.85657471,0.01700612
3500.78538208,0.01696203
3502.71418945,0.01663907
3504.64299683,0.01663453
3506.57180420,0.01707207
3508.50061157,0.01670877
3510.42941895,0.01665473
3512.35822632,0.01689723
3514.28703369,0.01693369
3516.21584106,0.01694887
3518.14464844,0.01687706
3520.07345581,0.01699147
3522.00226318,0.01671305
3523.93107056,0.01649892
3525.85987793,0.01646711
3527.78868530,0.01650190
3529.71749268,0.01656209
3531.64630005,0.01665772
3533.57510742,0.01694561
3535.50391479,0.01669186
3537.43272217,0.01652525
3539.36152954,0.01679784
3541.29033691,0.01685529
3543.21914429,0.01667580
3545.14795166,0.01624728
3547.07675903,0.01589678
3549.00556641,0.01650099
3550.93437378,0.01668335
3552.86318115,0.01615679
3554.79198853,0.01663114
3556.72079590,0.01676814
3558.64960327,0.01665407
3560.57841064,0.01652880
3562.50721802,0.01645336
3564.43602539,0.01655850
3566.36483276,0.01516903
3568.29364014,0.01472877
3570.22244751,0.01619194
3572.15125488,0.01681396
3574.08006226,0.01656793
3576.00886963,0.01654726
3577.93767700,0.01642844
3579.86648437,0.01639758
3581.79529175,0.01649128
3583.72409912,0.01650096
3585.65290649,0.01612419
3587.58171387,0.01451280
3589.51052124,0.01506359
3591.43932861,0.01666280
3593.36813599,0.01601470
3595.29694336,0.01580613
3597.22575073,0.01611092
3599.15455811,0.01624788
3601.08336548,0.01603172
3603.01217285,0.01621970
3604.94098022,0.01666480
3606.86978760,0.01582266
3608.79859497,0.01470239
3610.72740234,0.01515543
3612.65620972,0.01559714
3614.58501709,0.01511494
3616.51382446,0.01640434
3618.44263184,0.01497999
3620.37143921,0.01434163
3622.30024658,0.01649756
3624.22905395,0.01593283
3626.15786133,0.01680081
3628.08666870,0.01386412
3630.01547607,0.01236850
3631.94428345,0.01624021
3633.87309082,0.01579619
3635.80189819,0.01603483
3637.73070557,0.01640753
3639.65951294,0.01624969
3641.58832031,0.01627556
3643.51712769,0.01598538
3645.44593506,0.01621120
3647.37474243,0.01423941
3649.30354980,0.01291024
3651.23235718,0.01302991
3653.16116455,0.01600327
3655.08997192,0.01578094
3657.01877930,0.01386184
3658.94758667,0.01646448
3660.87639404,0.01598140
3662.80520142,0.01623050
3664.73400879,0.01623335
3666.66281616,0.01597379
3668.59162354,0.01542475
3670.52043091,0.01222993
3672.44923828,0.01521368
3674.37804565,0.01432055
3676.30685303,0.01155600
3678.23566040,0.01508193
3680.16446777,0.01547734
3682.09327515,0.01568302
3684.02208252,0.01627343
3685.95088989,0.01577542
3687.87969727,0.01402656
3689.80850464,0.01273387
3691.73731201,0.01465349
3693.66611938,0.01525473
3695.59492676,0.01565177
3697.52373413,0.01572683
3699.45254150,0.01560377
3701.38134888,0.01502213
3703.31015625,0.01449781
3705.23896362,0.01607762
3707.16777100,0.01519376
3709.09657837,0.01482967
3711.02538574,0.01369205
3712.95419312,0.01272734
3714.88300049,0.01537576
3716.81180786,0.01510679
3718.74061523,0.01526847
3720.66942261,0.01494751
3722.59822998,0.01427369
3724.52703735,0.01484835
3726.45584473,0.01362073
3728.38465210,0.01500102
3730.31345947,0.01487262
3732.24226685,0.01348242
3734.17107422,0.01308301
3736.09988159,0.01213778
3738.02868896,0.01310004
3739.95749634,0.01449966
3741.88630371,0.01517517
3743.81511108,0.01135963
3745.74391846,0.01055727
3747.67272583,0.01438219
3749.60153320,0.01209349
3751.53034058,0.01099854
3753.45914795,0.01300621
3755.38795532,0.01410714
3757.31676270,0.01475805
3759.24557007,0.01335378
3761.17437744,0.01399587
3763.10318481,0.01515704
3765.03199219,0.01395308
3766.96079956,0.01428585
3768.88960693,0.01402471
3770.81841431,0.01327792
3772.74722168,0.01453409
3774.67602905,0.01460745
3776.60483643,0.01472012
3778.53364380,0.01415825
3780.46245117,0.01351502
3782.39125854,0.01459218
3784.32006592,0.01414854
3786.24887329,0.01413510
3788.17768066,0.01448637
3790.10648804,0.01435612
3792.03529541,0.01426049
3793.96410278,0.01451212
3795.89291016,0.01355633
3797.82171753,0.01320900
3799.75052490,0.01416825
3801.67933228,0.01092496
3803.60813965,0.01293131
3805.53694702,0.01431369
3807.46575439,0.01123847
3809.39456177,0.01414578
3811.32336914,0.01390065
3813.25217651,0.01434308
3815.18098389,0.01285950
3817.10979126,0.01089141
3819.03859863,0.01433632
3820.96740601,0.01121756
3822.89621338,0.01187699
3824.82502075,0.01429471
3826.75382812,0.01267221
3828.68263550,0.01387279
3830.61144287,0.01315592
3832.54025024,0.01268861
3834.46905762,0.01306313
3836.39786499,0.01229604
3838.32667236,0.01099797
3840.25547974,0.01185314
3842.18428711,0.01296797
3844.11309448,0.01242082
3846.04190186,0.01360602
3847.97070923,0.01336245
3849.89951660,0.01330262
3851.82832397,0.01177013
3853.75713135,0.00834507
3855.68593872,0.01028367
3857.61474609,0.01342725
3859.54355347,0.01298712
3861.47236084,0.01269366
3863.40116821,0.01242227
3865.32997559,0.01149123
3867.25878296,0.01310846
3869.18759033,0.01173987
3871.11639770,0.01064760
3873.04520508,0.01311943
3874.97401245,0.01172814
3876.90281982,0.01298614
3878.83162720,0.01341566
3880.76043457,0.01105538
3882.68924194,0.01313757
3884.61804932,0.01203152
3886.54685669,0.01092618
3888.47566406,0.01323102
3890.40447144,0.01225815
3892.33327881,0.01143477
3894.26208618,0.01274107
3896.19089355,0.01301664
3898.11970093,0.01223636
3900.04850830,0.01140576
3901.97731567,0.01131469
3903.90612305,0.01120286
3905.83493042,0.01144355
3907.76373779,0.01277309
3909.69254517,0.01279709
3911.62135254,0.01253180
3913.55015991,0.01283899
3915.47896728,0.01231287
3917.40777466,0.01185369
3919.33658203,0.01194989
3921.26538940,0.01241589
3923.19419678,0.01231367
3925.12300415,0.01208913
3927.05181152,0.01226651
3928.98061890,0.01236044
3930.90942627,0.01203914
3932.83823364,0.01162167
3934.76704102,0.01221683
3936.69584839,0.01231535
3938.62465576,0.01216922
3940.55346313,0.01234211
3942.48227051,0.01183444
3944.41107788,0.01188856
3946.33988525,0.01211658
3948.26869263,0.01181799
3950.19750000,0.01184113
3952.12630737,0.01204410
3954.05511475,0.01204163
3955.98392212,0.01210060
3957.91272949,0.01204991
3959.84153687,0.01193238
3961.77034424,0.01190294
3963.69915161,0.01189464
3965.62795898,0.01200056
3967.55676636,0.01192198
3969.48557373,0.01189893
3971.41438110,0.01184371
3973.34318848,0.01180886
3975.27199585,0.01171632
3977.20080322,0.01171215
3979.12961060,0.01194814
3981.05841797,0.01169914
3982.98722534,0.01171840
3984.91603271,0.01173552
3986.84484009,0.01165498
3988.77364746,0.01168928
3990.70245483,0.01158330
3992.63126221,0.01176535
3994.56006958,0.01159851
3996.48887695,0.01153307
3998.41768433,0.01157766
4000.34649170,0.01156173
4002.27529907,0.01161441
4004.20410645,0.01152847
4006.13291382,0.01153671
4008.06172119,0.01131773
4009.99052856,0.01136969
4011.91933594,0.01141926
4013.84814331,0.01134542
4015.77695068,0.01133342
4017.70575806,0.01128682
4019.63456543,0.01135241
4021.56337280,0.01123508
4023.49218018,0.01133636
4025.42098755,0.01126233
4027.34979492,0.01121779
4029.27860229,0.01123263
4031.20740967,0.01101966
4033.13621704,0.01110277
4035.06502441,0.01109605
4036.99383179,0.01111185
4038.92263916,0.01113124
4040.85144653,0.01116951
4042.78025391,0.01109615
4044.70906128,0.01096779
4046.63786865,0.01095681
4048.56667603,0.01085669
4050.49548340,0.01100664
4052.42429077,0.01096786
4054.35309814,0.01084277
4056.28190552,0.01086363
4058.21071289,0.01086963
4060.13952026,0.01082520
4062.06832764,0.01082187
4063.99713501,0.01083510
4065.92594238,0.01062539
4067.85474976,0.01074343
4069.78355713,0.01076008
4071.71236450,0.01064948
4073.64117187,0.01065460
4075.56997925,0.01059449
4077.49878662,0.01066593
4079.42759399,0.01058581
4081.35640137,0.01054481
4083.28520874,0.01045747
4085.21401611,0.01048601
4087.14282349,0.01050746
4089.07163086,0.01042671
4091.00043823,0.01047631
4092.92924561,0.01029076
4094.85805298,0.01035868
4096.78686035,0.01045633
4098.71566772,0.01031829
4100.64447510,0.01031109
4102.57328247,0.01031147
4104.50208984,0.01017898
4106.43089722,0.01018928
4108.35970459,0.01032121
4110.28851196,0.01023657
4112.21731934,0.01028471
4114.14612671,0.01019192
4116.07493408,0.01012301
4118.00374145,0.01016760
4119.93254883,0.01004616
4121.86135620,0.01004286
4123.79016357,0.01001332
4125.71897095,0.01009446
4127.64777832,0.01004101
4129.57658569,0.01000129
4131.50539307,0.00997532
4133.43420044,0.00983562
4135.36300781,0.00993470
4137.29181519,0.00996898
4139.22062256,0.00996133
4141.14942993,0.00981710
4143.07823730,0.00979541
4145.00704468,0.00984309
4146.93585205,0.00978501
4148.86465942,0.00984359
4150.79346680,0.00977035
4152.72227417,0.00970943
4154.65108154,0.00967788
4156.57988892,0.00970984
4158.50869629,0.00963173
4160.43750366,0.00959851
4162.36631103,0.00966313
4164.29511841,0.00957675
4166.22392578,0.00958485
4168.15273315,0.00953163
4170.08154053,0.00956864
4172.01034790,0.00955572
4173.93915527,0.00950790
4175.86796265,0.00947871
4177.79677002,0.00939471
4179.72557739,0.00945896
4181.65438477,0.00939970
4183.58319214,0.00940497
4185.51199951,0.00936109
4187.44080688,0.00932382
4189.36961426,0.00937418
4191.29842163,0.00929158
4193.22722900,0.00930160
4195.15603638,0.00932437
4197.08484375,0.00923136
4199.01365112,0.00918949
4200.94245850,0.00931454
4202.87126587,0.00919658
4204.80007324,0.00917226
4206.72888062,0.00916647
4208.65768799,0.00899304
4210.58649536,0.00908805
4212.51530273,0.00901269
4214.44411011,0.00905209
4216.37291748,0.00904565
4218.30172485,0.00898644
4220.23053223,0.00904082
4222.15933960,0.00892727
4224.08814697,0.00897307
4226.01695435,0.00889974
4227.94576172,0.00892975
4229.87456909,0.00892805
4231.80337646,0.00887400
4233.73218384,0.00891387
4235.66099121,0.00875692
4237.58979858,0.00880705
4239.51860596,0.00881789
4241.44741333,0.00878236
4243.37622070,0.00878085
4245.30502808,0.00874637
4247.23383545,0.00874974
4249.16264282,0.00873378
4251.09145020,0.00871117
4253.02025757,0.00867740
4254.94906494,0.00872847
4256.87787231,0.00863011
4258.80667969,0.00863127
4260.73548706,0.00863597
4262.66429443,0.00856595
4264.59310181,0.00855371
4266.52190918,0.00848278
4268.45071655,0.00857387
4270.37952393,0.00851510
4272.30833130,0.00852513
4274.23713867,0.00849600
4276.16594604,0.00836671
4278.09475342,0.00837419
4280.02356079,0.00828183
4281.95236816,0.00838580
4283.88117554,0.00839876
4285.80998291,0.00830665
4287.73879028,0.00828363
4289.66759766,0.00833774
4291.59640503,0.00834280
4293.52521240,0.00825996
4295.45401978,0.00834164
4297.38282715,0.00819055
4299.31163452,0.00817637
4301.24044189,0.00821893
4303.16924927,0.00811476
4305.09805664,0.00819870
4307.02686401,0.00814247
4308.95567139,0.00809246
4310.88447876,0.00812585
4312.81328613,0.00811346
4314.74209351,0.00806346
4316.67090088,0.00806818
4318.59970825,0.00804039
4320.52851562,0.00798432
4322.45732300,0.00798822
4324.38613037,0.00799972
4326.31493774,0.00807995
4328.24374512,0.00794949
4330.17255249,0.00790148
4332.10135986,0.00791267
4334.03016724,0.00784493
4335.95897461,0.00792953
4337.88778198,0.00788435
4339.81658936,0.00780545
4341.74539673,0.00778406
4343.67420410,0.00788574
4345.60301147,0.00779449
4347.53181885,0.00767396
4349.46062622,0.00781046
4351.38943359,0.00770137
4353.31824097,0.00766535
4355.24704834,0.00762818
4357.17585571,0.00757324
4359.10466309,0.00766664
4361.03347046,0.00761066
4362.96227783,0.00760234
4364.89108520,0.00759555
4366.81989258,0.00756883
4368.74869995,0.00756814
4370.67750732,0.00755391
4372.60631470,0.00755394
4374.53512207,0.00754946
4376.46392944,0.00752938
4378.39273682,0.00747237
4380.32154419,0.00743862
4382.25035156,0.00736738
4384.17915894,0.00741490
4386.10796631,0.00748279
4388.03677368,0.00736182
4389.96558105,0.00735003
4391.89438843,0.00734299
4393.82319580,0.00731248
4395.75200317,0.00741936
4397.68081055,0.00738450
4399.60961792,0.00729139
4401.53842529,0.00730378
4403.46723267,0.00730236
4405.39604004,0.00727455
4407.32484741,0.00722278
4409.25365478,0.00724931
4411.18246216,0.00725493
4413.11126953,0.00721064
4415.04007690,0.00723791
4416.96888428,0.00716001
4418.89769165,0.00702607
4420.82649902,0.00707211
4422.75530640,0.00713255
4424.68411377,0.00703800
4426.61292114,0.00702600
4428.54172852,0.00701697
4430.47053589,0.00700834
4432.39934326,0.00702525
4434.32815063,0.00699622
4436.25695801,0.00706866
4438.18576538,0.00692981
4440.11457275,0.00688338
4442.04338013,0.00692915
4443.97218750,0.00686935
4445.90099487,0.00699628
4447.82980225,0.00689188
4449.75860962,0.00685026
4451.68741699,0.00686291
4453.61622437,0.00677834
4455.54503174,0.00681767
4457.47383911,0.00674510
4459.40264648,0.00679051
4461.33145386,0.00678901
4463.26026123,0.00672823
4465.18906860,0.00673275
4467.11787598,0.00670674
4469.04668335,0.00670694
4470.97549072,0.00668180
4472.90429810,0.00666684
4474.83310547,0.00658384
4476.76191284,0.00661263
4478.69072021,0.00663222
4480.61952759,0.00659761
4482.54833496,0.00663153
4484.47714233,0.00657851
4486.40594971,0.00653373
4488.33475708,0.00649523
4490.26356445,0.00650890
4492.19237183,0.00644982
4494.12117920,0.00642383
4496.04998657,0.00647811
4497.97879395,0.00645937
4499.90760132,0.00648711
4501.83640869,0.00645476
4503.76521606,0.00644951
4505.69402344,0.00642843
4507.62283081,0.00638867
4509.55163818,0.00639611
4511.48044556,0.00639448
4513.40925293,0.00635895
4515.33806030,0.00631129
4517.26686768,0.00634923
4519.19567505,0.00627117
4521.12448242,0.00625472
4523.05328979,0.00625175
4524.98209717,0.00623257
4526.91090454,0.00630693
4528.83971191,0.00620978
4530.76851929,0.00616194
4532.69732666,0.00615151
4534.62613403,0.00618690
4536.55494141,0.00618166
4538.48374878,0.00612211
4540.41255615,0.00619438
4542.34136353,0.00610891
4544.27017090,0.00607921
4546.19897827,0.00611473
4548.12778564,0.00606921
4550.05659302,0.00606099
4551.98540039,0.00603395
4553.91420776,0.00604202
4555.84301514,0.00599462
4557.77182251,0.00591331
4559.70062988,0.00592788
4561.62943726,0.00593334
4563.55824463,0.00591362
4565.48705200,0.00597319
4567.41585937,0.00596526
4569.34466675,0.00592058
4571.27347412,0.00588716
4573.20228149,0.00580235
4575.13108887,0.00583621
4577.05989624,0.00585262
4578.98870361,0.00584054
4580.91751099,0.00582486
4582.84631836,0.00580245
4584.77512573,0.00582396
4586.70393311,0.00576139
4588.63274048,0.00579995
4590.56154785,0.00579135
4592.49035522,0.00566961
4594.41916260,0.00572630
4596.34796997,0.00575895
4598.27677734,0.00571307
4600.20558472,0.00571032
4602.13439209,0.00567238
4604.06319946,0.00568172
4605.99200684,0.00570180
4607.92081421,0.00564634
4609.84962158,0.00562927
4611.77842895,0.00560331
4613.70723633,0.00561704
4615.63604370,0.00561785
4617.56485107,0.00556652
4619.49365845,0.00560299
4621.42246582,0.00560979
4623.35127319,0.00553982
4625.28008057,0.00548956
4627.20888794,0.00559038
4629.13769531,0.00554683
4631.06650269,0.00537181
4632.99531006,0.00541675
4634.92411743,0.00543658
4636.85292480,0.00543906
4638.78173218,0.00542368
4640.71053955,0.00542374
4642.63934692,0.00541130
4644.56815430,0.00528175
4646.49696167,0.00531397
4648.42576904,0.00536842
4650.35457642,0.00535554
4652.28338379,0.00533282
4654.21219116,0.00530465
4656.14099853,0.00528249
4658.06980591,0.00522684
4659.99861328,0.00527526
4661.92742065,0.00530407
4663.85622803,0.00517515
4665.78503540,0.00516438
4667.71384277,0.00528335
4669.64265015,0.00520351
4671.57145752,0.00513251
4673.50026489,0.00514922
4675.42907227,0.00516255
4677.35787964,0.00520387
4679.28668701,0.00511644
4681.21549438,0.00513844
4683.14430176,0.00515312
4685.07310913,0.00513140
4687.00191650,0.00518807
4688.93072388,0.00504862
4690.85953125,0.00499591
4692.78833862,0.00508164
4694.71714600,0.00504919
4696.64595337,0.00500685
4698.57476074,0.00506439
4700.50356812,0.00503629
4702.43237549,0.00498744
4704.36118286,0.00503559
4706.28999023,0.00497499
4708.21879761,0.00492473
4710.14760498,0.00492875
4712.07641235,0.00497582
4714.00521973,0.00495113
4715.93402710,0.00490009
4717.86283447,0.00497091
4719.79164185,0.00493270
4721.72044922,0.00492171
4723.64925659,0.00491195
4725.57806396,0.00488184
4727.50687134,0.00489591
4729.43567871,0.00478571
4731.36448608,0.00474524
4733.29329346,0.00482816
4735.22210083,0.00482129
4737.15090820,0.00479983
4739.07971558,0.00485109
4741.00852295,0.00478141
4742.93733032,0.00475563
4744.86613770,0.00477362
4746.79494507,0.00474106
4748.72375244,0.00477454
4750.65255981,0.00467152
4752.58136719,0.00465016
4754.51017456,0.00467719
4756.43898193,0.00464183
4758.36778931,0.00471748
4760.29659668,0.00473725
4762.22540405,0.00470654
4764.15421143,0.00463948
4766.08301880,0.00460941
4768.01182617,0.00457425
4769.94063354,0.00453807
4771.86944092,0.00456872
4773.79824829,0.00458214
4775.72705566,0.00460373
4777.65586304,0.00454311
4779.58467041,0.00453948
4781.51347778,0.00455919
4783.44228516,0.00453306
4785.37109253,0.00453853
4787.29989990,0.00444556
4789.22870728,0.00443901
4791.15751465,0.00451183
4793.08632202,0.00448263
4795.01512939,0.00443106
4796.94393677,0.00443358
4798.87274414,0.00447253
4800.80155151,0.00440462
4802.73035889,0.00430640
4804.65916626,0.00436763
4806.58797363,0.00437847
4808.51678101,0.00426661
4810.44558838,0.00427589
4812.37439575,0.00434271
4814.30320312,0.00433739
4816.23201050,0.00433161
4818.16081787,0.00436624
4820.08962524,0.00427407
4822.01843262,0.00424604
4823.94723999,0.00436095
4825.87604736,0.00426120
4827.80485474,0.00423976
4829.73366211,0.00422922
4831.66246948,0.00414275
4833.59127686,0.00427064
4835.52008423,0.00425631
4837.44889160,0.00418008
4839.37769897,0.00424220
4841.30650635,0.00423196
4843.23531372,0.00415172
4845.16412109,0.00415085
4847.09292847,0.00417573
4849.02173584,0.00415070
4850.95054321,0.00414687
4852.87935059,0.00406032
4854.80815796,0.00403379
4856.73696533,0.00409371
4858.66577270,0.00406686
4860.59458008,0.00404132
4862.52338745,0.00408154
4864.45219482,0.00415069
4866.38100220,0.00411744
4868.30980957,0.00408700
4870.23861694,0.00409762
4872.16742432,0.00405532
4874.09623169,0.00402392
4876.02503906,0.00397963
4877.95384644,0.00396664
4879.88265381,0.00400502
4881.81146118,0.00398537
4883.74026855,0.00397254
4885.66907593,0.00399101
4887.59788330,0.00392836
4889.52669067,0.00394059
4891.45549805,0.00393334
4893.38430542,0.00384989
4895.31311279,0.00389464
4897.24192017,0.00388455
4899.17072754,0.00387548
4901.09953491,0.00390372
4903.02834228,0.00389566
4904.95714966,0.00387261
4906.88595703,0.00383134
4908.81476440,0.00385103
4910.74357178,0.00381541
4912.67237915,0.00384478
4914.60118652,0.00385112
4916.52999390,0.00376835
4918.45880127,0.00383757
4920.38760864,0.00382586
4922.31641602,0.00374190
4924.24522339,0.00374790
4926.17403076,0.00375155
4928.10283813,0.00373034
4930.03164551,0.00370120
4931.96045288,0.00366788
4933.88926025,0.00366295
4935.81806763,0.00369340
4937.74687500,0.00370097
4939.67568237,0.00371770
4941.60448975,0.00371386
4943.53329712,0.00369613
4945.46210449,0.00364459
4947.39091187,0.00359567
4949.31971924,0.00366329
4951.24852661,0.00359937
4953.17733398,0.00351546
4955.10614136,0.00359810
4957.03494873,0.00355343
4958.96375610,0.00353007
4960.89256348,0.00358028
4962.82137085,0.00353227
4964.75017822,0.00353447
4966.67898560,0.00347141
4968.60779297,0.00349797
4970.53660034,0.00359704
4972.46540771,0.00346470
4974.39421509,0.00347910
4976.32302246,0.00352719
4978.25182983,0.00345994
4980.18063721,0.00349188
4982.10944458,0.00348982
4984.03825195,0.00347985
4985.96705933,0.00345296
4987.89586670,0.00342943
4989.82467407,0.00345712
4991.75348145,0.00348629
4993.68228882,0.00344235
4995.61109619,0.00341170
4997.53990356,0.00342458
4999.46871094,0.00334232
5001.39751831,0.00339779
5003.32632568,0.00341987
5005.25513306,0.00330257
5007.18394043,0.00335308
5009.11274780,0.00340229
5011.04155518,0.00333033
5012.97036255,0.00333621
5014.89916992,0.00336418
5016.82797729,0.00327468
5018.75678467,0.00336422
5020.68559204,0.00341182
5022.61439941,0.00332972
5024.54320679,0.00337031
5026.47201416,0.00328652
5028.40082153,0.00326044
5030.32962891,0.00324224
5032.25843628,0.00323268
5034.18724365,0.00324026
5036.11605103,0.00315967
5038.04485840,0.00326213
5039.97366577,0.00326026
5041.90247314,0.00320893
5043.83128052,0.00318364
5045.76008789,0.00317140
5047.68889526,0.00321504
5049.61770264,0.00311161
5051.54651001,0.00315910
5053.47531738,0.00316241
5055.40412476,0.00309856
5057.33293213,0.00316103
5059.26173950,0.00313042
5061.19054687,0.00315721
5063.11935425,0.00315955
5065.04816162,0.00309064
5066.97696899,0.00309208
5068.90577637,0.00311689
5070.83458374,0.00311189
5072.76339111,0.00306098
5074.69219849,0.00300925
5076.62100586,0.00306766
5078.54981323,0.00311738
5080.47862061,0.00299848
5082.40742798,0.00301323
5084.33623535,0.00304910
5086.26504272,0.00296578
5088.19385010,0.00299066
5090.12265747,0.00300718
5092.05146484,0.00300371
5093.98027222,0.00300594
5095.90907959,0.00300725
5097.83788696,0.00295488
5099.76669434,0.00293973
5101.69550171,0.00301698
5103.62430908,0.00292153
5105.55311645,0.00287340
5107.48192383,0.00295066
5109.41073120,0.00297095
5111.33953857,0.00291455
5113.26834595,0.00283109
5115.19715332,0.00293560
5117.12596069,0.00294128
5119.05476807,0.00283938
5120.98357544,0.00288877
5122.91238281,0.00283871
5124.84119019,0.00283350
5126.76999756,0.00288770
5128.69880493,0.00282791
5130.62761230,0.00287731
5132.55641968,0.00290108
5134.48522705,0.00278996
5136.41403442,0.00280167
5138.34284180,0.00281941
5140.27164917,0.00273650
5142.20045654,0.00280539
5144.12926392,0.00287930
5146.05807129,0.00281277
5147.98687866,0.00280334
5149.91568603,0.00279779
5151.84449341,0.00277169
5153.77330078,0.00273749
5155.70210815,0.00268670
5157.63091553,0.00271973
5159.55972290,0.00278127
5161.48853027,0.00278465
5163.41733765,0.00270577
5165.34614502,0.00267633
5167.27495239,0.00276624
5169.20375977,0.00272526
5171.13256714,0.00266099
5173.06137451,0.00273604
5174.99018188,0.00268268
5176.91898926,0.00266889
5178.84779663,0.00271551
5180.77660400,0.00262804
5182.70541138,0.00263297
5184.63421875,0.00261154
5186.56302612,0.00265081
5188.49183350,0.00271751
5190.42064087,0.00262183
5192.34944824,0.00264239
5194.27825562,0.00258444
5196.20706299,0.00254857
5198.13587036,0.00260766
5200.06467773,0.00253888
5201.99348511,0.00255068
5203.92229248,0.00252271
5205.85109985,0.00248765
5207.77990723,0.00251787
5209.70871460,0.00251971
5211.63752197,0.00256387
5213.56632935,0.00253078
5215.49513672,0.00251061
5217.42394409,0.00258495
5219.35275146,0.00253201
5221.28155884,0.00247718
5223.21036621,0.00253500
5225.13917358,0.00245316
5227.06798096,0.00239154
5228.99678833,0.00247004
5230.92559570,0.00248657
5232.85440308,0.00245206
5234.78321045,0.00247197
5236.71201782,0.00250898
5238.64082520,0.00243471
5240.56963257,0.00247671
5242.49843994,0.00244998
5244.42724731,0.00234126
5246.35605469,0.00242245
5248.28486206,0.00233080
5250.21366943,0.00239385
5252.14247681,0.00250049
5254.07128418,0.00234372
5256.00009155,0.00232874
5257.92889893,0.00234196
5259.85770630,0.00240529
5261.78651367,0.00238712
5263.71532104,0.00231630
5265.64412842,0.00236340
5267.57293579,0.00233324
5269.50174316,0.00234941
5271.43055054,0.00235646
5273.35935791,0.00232578
5275.28816528,0.00234260
5277.21697266,0.00235911
5279.14578003,0.00235514
5281.07458740,0.00235050
5283.00339478,0.00233459
5284.93220215,0.00232675
5286.86100952,0.00238355
5288.78981689,0.00230231
5290.71862427,0.00221743
5292.64743164,0.00224057
5294.57623901,0.00223433
5296.50504639,0.00225022
5298.43385376,0.00229849
5300.36266113,0.00238753
5302.29146851,0.00229934
5304.22027588,0.00221266
5306.14908325,0.00226827
5308.07789062,0.00221454
5310.00669800,0.00225819
5311.93550537,0.00227216
5313.86431274,0.00218690
5315.79312012,0.00221112
5317.72192749,0.00219618
5319.65073486,0.00220212
5321.57954224,0.00225385
5323.50834961,0.00222955
5325.43715698,0.00217028
5327.36596436,0.00211776
5329.29477173,0.00212269
5331.22357910,0.00215464
5333.15238647,0.00213442
5335.08119385,0.00216007
5337.01000122,0.00216068
5338.93880859,0.00200022
5340.86761597,0.00203324
5342.79642334,0.00217512
5344.72523071,0.00205042
5346.65403809,0.00205093
5348.58284546,0.00217221
5350.51165283,0.00212241
5352.44046020,0.00206303
5354.36926758,0.00200928
5356.29807495,0.00205549
5358.22688232,0.00215631
5360.15568970,0.00212760
5362.08449707,0.00202752
5364.01330444,0.00199225
5365.94211182,0.00208825
5367.87091919,0.00214102
5369.79972656,0.00211399
5371.72853394,0.00205162
5373.65734131,0.00202615
5375.58614868,0.00206242
5377.51495605,0.00206276
5379.44376343,0.00204621
5381.37257080,0.00196943
5383.30137817,0.00200575
5385.23018555,0.00202606
5387.15899292,0.00191167
5389.08780029,0.00203214
5391.01660767,0.00210298
5392.94541504,0.00193757
5394.87422241,0.00190053
5396.80302978,0.00196541
5398.73183716,0.00196431
5400.66064453,0.00199109
5402.58945190,0.00196593
5404.51825928,0.00190473
5406.44706665,0.00199038
5408.37587402,0.00193243
5410.30468140,0.00184096
5412.23348877,0.00188604
5414.16229614,0.00183658
5416.09110352,0.00188603
5418.01991089,0.00197265
5419.94871826,0.00190465
5421.87752563,0.00186952
5423.80633301,0.00190005
5425.73514038,0.00190220
5427.66394775,0.00184630
5429.59275513,0.00177935
5431.52156250,0.00187603
5433.45036987,0.00192717
5435.37917725,0.00180563
5437.30798462,0.00187968
5439.23679199,0.00189644
5441.16559936,0.00181783
5443.09440674,0.00188775
5445.02321411,0.00186540
5446.95202148,0.00183136
5448.88082886,0.00180753
5450.80963623,0.00181459
5452.73844360,0.00183557
5454.66725098,0.00178966
5456.59605835,0.00180477
5458.52486572,0.00178048
5460.45367310,0.00175879
5462.38248047,0.00177303
5464.31128784,0.00181279
5466.24009521,0.00183651
5468.16890259,0.00173919
5470.09770996,0.00171075
5472.02651733,0.00177200
5473.95532471,0.00177324
5475.88413208,0.00169315
5477.81293945,0.00171800
5479.74174683,0.00180915
5481.67055420,0.00175337
5483.59936157,0.00174776
5485.52816895,0.00176397
5487.45697632,0.00170206
5489.38578369,0.00171226
5491.31459106,0.00171564
5493.24339844,0.00167746
5495.17220581,0.00163846
5497.10101318,0.00168590
5499.02982056,0.00178213
5500.95862793,0.00166833
5502.88743530,0.00163431
5504.81624268,0.00173621
5506.74505005,0.00165264
5508.67385742,0.00164181
5510.60266479,0.00166920
5512.53147217,0.00167175
5514.46027954,0.00168803
5516.38908691,0.00163850
5518.31789429,0.00169140
5520.24670166,0.00164767
5522.17550903,0.00161286
5524.10431641,0.00169805
5526.03312378,0.00165964
5527.96193115,0.00164150
5529.89073853,0.00161255
5531.81954590,0.00163021
5533.74835327,0.00168609
5535.67716064,0.00160462
5537.60596802,0.00157006
5539.53477539,0.00163500
5541.46358276,0.00162990
5543.39239014,0.00153612
5545.32119751,0.00157549
5547.25000488,0.00162396
5549.17881226,0.00153823
5551.10761963,0.00157275
5553.03642700,0.00162018
5554.96523437,0.00155051
5556.89404175,0.00151757
5558.82284912,0.00154728
5560.75165649,0.00155709
5562.68046387,0.00154640
5564.60927124,0.00153011
5566.53807861,0.00148270
5568.46688599,0.00151021
5570.39569336,0.00156214
5572.32450073,0.00155664
5574.25330811,0.00160061
5576.18211548,0.00160640
5578.11092285,0.00152911
5580.03973022,0.00150470
5581.96853760,0.00156053
5583.89734497,0.00158614
5585.82615234,0.00150865
5587.75495972,0.00148400
5589.68376709,0.00151076
5591.61257446,0.00146043
5593.54138184,0.00149594
5595.47018921,0.00153948
5597.39899658,0.00148942
5599.32780395,0.00148976
5601.25661133,0.00147809
5603.18541870,0.00152530
5605.11422607,0.00153266
5607.04303345,0.00146054
5608.97184082,0.00154014
5610.90064819,0.00151656
5612.82945557,0.00144417
5614.75826294,0.00151732
5616.68707031,0.00151646
5618.61587769,0.00147179
5620.54468506,0.00148334
5622.47349243,0.00147252
5624.40229980,0.00142083
5626.33110718,0.00142677
5628.25991455,0.00140822
5630.18872192,0.00143431
5632.11752930,0.00146352
5634.04633667,0.00137810
5635.97514404,0.00140738
5637.90395142,0.00139049
5639.83275879,0.00143542
5641.76156616,0.00148028
5643.69037353,0.00136664
5645.61918091,0.00140704
5647.54798828,0.00138165
5649.47679565,0.00142220
5651.40560303,0.00142796
5653.33441040,0.00131741
5655.26321777,0.00140134
5657.19202515,0.00139334
5659.12083252,0.00136702
5661.04963989,0.00131937
5662.97844727,0.00134984
5664.90725464,0.00138982
5666.83606201,0.00126657
5668.76486938,0.00135466
5670.69367676,0.00139268
5672.62248413,0.00133232
5674.55129150,0.00127418
5676.48009888,0.00124893
5678.40890625,0.00136997
5680.33771362,0.00134843
5682.26652100,0.00128095
5684.19532837,0.00132983
5686.12413574,0.00135447
5688.05294311,0.00127345
5689.98175049,0.00128754
5691.91055786,0.00131572
5693.83936523,0.00130127
5695.76817261,0.00139407
5697.69697998,0.00133966
5699.62578735,0.00130599
5701.55459473,0.00129674
5703.48340210,0.00127270
5705.41220947,0.00133077
5707.34101685,0.00125134
5709.26982422,0.00127396
5711.19863159,0.00134366
5713.12743896,0.00130336
5715.05624634,0.00126424
5716.98505371,0.00124172
5718.91386108,0.00129501
5720.84266846,0.00126794
5722.77147583,0.00119245
5724.70028320,0.00123657
5726.62909058,0.00127689
5728.55789795,0.00122247
5730.48670532,0.00122240
5732.41551270,0.00130784
5734.34432007,0.00130764
5736.27312744,0.00125650
5738.20193481,0.00128523
5740.13074219,0.00124026
5742.05954956,0.00115879
5743.98835693,0.00121027
5745.91716431,0.00122096
5747.84597168,0.00122696
5749.77477905,0.00119811
5751.70358643,0.00116425
5753.63239380,0.00120800
5755.56120117,0.00118216
5757.49000854,0.00118569
5759.41881592,0.00116548
5761.34762329,0.00119056
5763.27643066,0.00116987
5765.20523804,0.00112752
5767.13404541,0.00122833
5769.06285278,0.00116094
5770.99166016,0.00115660
5772.92046753,0.00118468
5774.84927490,0.00112707
5776.77808228,0.00115501
5778.70688965,0.00118050
5780.63569702,0.00121441
5782.56450439,0.00116218
5784.49331177,0.00116130
5786.42211914,0.00114833
5788.35092651,0.00111903
5790.27973389,0.00119067
5792.20854126,0.00119051
5794.13734863,0.00114214
5796.06615601,0.00108350
5797.99496338,0.00114868
5799.92377075,0.00113188
5801.85257812,0.00110617
5803.78138550,0.00117695
5805.71019287,0.00104430
5807.63900024,0.00103004
5809.56780762,0.00109445
5811.49661499,0.00107521
5813.42542236,0.00106097
5815.35422974,0.00102751
5817.28303711,0.00109979
5819.21184448,0.00116734
5821.14065186,0.00112016
5823.06945923,0.00105170
5824.99826660,0.00107202
5826.92707397,0.00109171
5828.85588135,0.00104944
5830.78468872,0.00105507
5832.71349609,0.00105028
5834.64230347,0.00102425
5836.57111084,0.00106631
5838.49991821,0.00106349
5840.42872559,0.00102822
5842.35753296,0.00108025
5844.28634033,0.00106870
5846.21514770,0.00105413
5848.14395508,0.00105421
5850.07276245,0.00102766
5852.00156982,0.00103578
5853.93037720,0.00100880
5855.85918457,0.00103399
5857.78799194,0.00106467
5859.71679932,0.00108616
5861.64560669,0.00105237
5863.57441406,0.00101310
5865.50322144,0.00104125
5867.43202881,0.00096459
5869.36083618,0.00092609
5871.28964355,0.00095030
5873.21845093,0.00104718
5875.14725830,0.00107175
5877.07606567,0.00099024
5879.00487305,0.00100267
5880.93368042,0.00096404
5882.86248779,0.00098686
5884.79129517,0.00100120
5886.72010254,0.00096918
5888.64890991,0.00096889
5890.57771728,0.00094932
5892.50652466,0.00098339
5894.43533203,0.00099801
5896.36413940,0.00099849
5898.29294678,0.00095582
5900.22175415,0.00097390
5902.15056152,0.00097924
5904.07936890,0.00094907
5906.00817627,0.00096741
5907.93698364,0.00090268
5909.86579102,0.00095063
5911.79459839,0.00093920
5913.72340576,0.00091005
5915.65221313,0.00097636
5917.58102051,0.00090382
5919.50982788,0.00091505
5921.43863525,0.00096822
5923.36744263,0.00092119
5925.29625000,0.00089862
5927.22505737,0.00095532
5929.15386475,0.00091146
5931.08267212,0.00086822
5933.01147949,0.00094457
5934.94028686,0.00090793
5936.86909424,0.00088050
5938.79790161,0.00086635
5940.72670898,0.00093352
5942.65551636,0.00100534
5944.58432373,0.00091197
5946.51313110,0.00092656
5948.44193848,0.00090664
5950.37074585,0.00086535
5952.29955322,0.00094852
5954.22836060,0.00093017
5956.15716797,0.00089526
5958.08597534,0.00091483
5960.01478271,0.00086329
5961.94359009,0.00085504
5963.87239746,0.00082853
5965.80120483,0.00080634
5967.73001221,0.00090256
5969.65881958,0.00085255
5971.58762695,0.00084448
5973.51643433,0.00086659
5975.44524170,0.00081014
5977.37404907,0.00087846
5979.30285645,0.00085987
5981.23166382,0.00084457
5983.16047119,0.00083600
5985.08927856,0.00082684
5987.01808594,0.00084399
5988.94689331,0.00076893
5990.87570068,0.00077331
5992.80450806,0.00075360
5994.73331543,0.00079905
5996.66212280,0.00085366
5998.59093018,0.00079091
6000.51973755,0.00081897
