399.26312622,0.00068833
401.19193359,0.00107257
403.12074097,0.00109847
405.04954834,0.00080496
406.97835571,0.00067160
408.90716309,0.00026294
410.83597046,0.00086447
412.76477783,0.00141113
414.69358521,0.00055443
416.62239258,0.00091246
418.55119995,0.00115810
420.48000732,0.00098043
422.40881470,0.00115164
424.33762207,0.00080657
426.26642944,0.00125940
428.19523682,0.00086328
430.12404419,0.00061862
432.05285156,0.00124805
433.98165894,0.00063388
435.91046631,0.00090081
437.83927368,0.00067068
439.76808105,0.00028342
441.69688843,0.00123674
443.62569580,0.00113129
445.55450317,0.00101734
447.48331055,0.00087836
449.41211792,0.00070931
451.34092529,0.00107705
453.26973267,0.00087334
455.19854004,0.00064154
457.12734741,0.00046068
459.05615479,0.00047033
460.98496216,0.00078113
462.91376953,0.00066350
464.84257690,0.00051970
466.77138428,0.00061179
468.70019165,0.00036312
470.62899902,0.00044463
472.55780640,0.00069083
474.48661377,0.00037234
476.41542114,0.00050443
478.34422852,0.00057991
480.27303589,0.00015899
482.20184326,0.00026221
484.13065063,0.00074187
486.05945801,0.00028695
487.98826538,-0.00017685
489.91707275,0.00035954
491.84588013,0.00014322
493.77468750,0.00027635
495.70349487,0.00052241
497.63230225,-0.00006642
499.56110962,0.00036696
501.48991699,0.00052489
503.41872437,0.00011399
505.34753174,0.00034560
507.27633911,0.00015459
509.20514648,0.00026267
511.13395386,0.00053253
513.06276123,0.00020002
514.99156860,0.00040834
516.92037598,0.00025544
518.84918335,0.00012072
520.77799072,0.00010125
522.70679810,0.00000647
524.63560547,0.00043259
526.56441284,0.00033204
528.49322021,0.00026686
530.42202759,0.00023147
532.35083496,0.00022095
534.27964233,0.00010038
536.20844971,0.00015528
538.13725708,0.00033402
540.06606445,0.00029398
541.99487183,0.00038267
543.92367920,0.00010901
545.85248657,0.00046828
547.78129395,0.00046587
549.71010132,0.00028383
551.63890869,0.00062927
553.56771606,0.00036021
555.49652344,0.00025164
557.42533081,-0.00002246
559.35413818,0.00036168
561.28294556,0.00050751
563.21175293,-0.00000991
565.14056030,0.00032520
567.06936768,0.00036623
568.99817505,0.00020166
570.92698242,0.00000431
572.85578979,0.00031866
574.78459717,0.00049325
576.71340454,0.00027864
578.64221191,0.00047552
580.57101929,0.00017737
582.49982666,0.00017692
584.42863403,0.00017733
586.35744141,0.00010145
588.28624878,0.00016221
590.21505615,0.00035995
592.14386353,0.00040858
594.07267090,-0.00006721
596.00147827,0.00031341
597.93028564,0.00023945
599.85909302,0.00013226
601.78790039,0.00061491
603.71670776,0.00049356
605.64551514,0.00057262
607.57432251,0.00025597
609.50312988,0.00018726
611.43193726,0.00036656
613.36074463,0.00026619
615.28955200,0.00063285
617.21835938,0.00045259
619.14716675,0.00010083
621.07597412,0.00018314
623.00478149,-0.00004528
624.93358887,0.00028452
626.86239624,0.00007991
628.79120361,-0.00010890
630.72001099,0.00005380
632.64881836,0.00016447
634.57762573,0.00087692
636.50643311,0.00067441
638.43524048,0.00064259
640.36404785,0.00080595
642.29285522,0.00085134
644.22166260,0.00080194
646.15046997,0.00061238
648.07927734,0.00127928
650.00808472,0.00134605
651.93689209,0.00111855
653.86569946,0.00119853
655.79450684,0.00125135
657.72331421,0.00150852
659.65212158,0.00163783
661.58092896,0.00145479
663.50973633,0.00148207
665.43854370,0.00190694
667.36735107,0.00158692
669.29615845,0.00176550
671.22496582,0.00208186
673.15377319,0.00173120
675.08258057,0.00212860
677.01138794,0.00223106
678.94019531,0.00226774
680.86900269,0.00224709
682.79781006,0.00197333
684.72661743,0.00218396
686.65542480,0.00221483
688.58423218,0.00216248
690.51303955,0.00232204
692.44184692,0.00229428
694.37065430,0.00220528
696.29946167,0.00289158
698.22826904,0.00319718
700.15707642,0.00299724
702.08588379,0.00315941
704.01469116,0.00289520
705.94349854,0.00261215
707.87230591,0.00223882
709.80111328,0.00177709
711.72992065,0.00100891
713.65872803,0.00058670
715.58753540,0.00076745
717.51634277,0.00023100
719.44515015,0.00024891
721.37395752,0.00010603
723.30276489,-0.00012367
725.23157227,0.00040908
727.16037964,0.00024865
729.08918701,0.00038507
731.01799438,0.00019354
732.94680176,-0.00016410
734.87560913,0.00030682
736.80441650,0.00007289
738.73322388,-0.00003879
740.66203125,0.00005707
742.59083862,0.00002441
744.51964600,0.00016728
746.44845337,0.00037650
748.37726074,0.00043494
750.30606812,0.00025807
752.23487549,0.00010307
754.16368286,-0.00005204
756.09249023,0.00004132
758.02129761,0.00000574
759.95010498,0.00008012
761.87891235,0.00019396
763.80771973,0.00026933
765.73652710,0.00025351
767.66533447,0.00025208
769.59414185,0.00015858
771.52294922,0.00020051
773.45175659,0.00044611
775.38056396,0.00039736
777.30937134,0.00027224
779.23817871,0.00012399
781.16698608,0.00018476
783.09579346,0.00040437
785.02460083,0.00055869
786.95340820,0.00017825
788.88221558,-0.00001328
790.81102295,0.00051288
792.73983032,0.00058000
794.66863770,0.00053359
796.59744507,0.00044536
798.52625244,0.00048432
800.45505981,0.00044064
802.38386719,0.00030434
804.31267456,0.00053669
806.24148193,0.00035381
808.17028931,0.00035817
810.09909668,0.00031907
812.02790405,0.00050269
813.95671143,0.00036480
815.88551880,-0.00013627
817.81432617,0.00035747
819.74313354,0.00018512
821.67194092,0.00012668
823.60074829,0.00037332
825.52955566,0.00010965
827.45836304,0.00034642
829.38717041,0.00053334
831.31597778,0.00045927
833.24478516,0.00037984
835.17359253,0.00081056
837.10239990,0.00089849
839.03120728,0.00088717
840.96001465,0.00107646
842.88882202,0.00051838
844.81762939,0.00052038
846.74643677,0.00061777
848.67524414,0.00044302
850.60405151,0.00064791
852.53285889,0.00061288
854.46166626,0.00042654
856.39047363,0.00039765
858.31928101,0.00037763
860.24808838,0.00044866
862.17689575,0.00043408
864.10570313,0.00017204
866.03451050,0.00046416
867.96331787,0.00050200
869.89212524,0.00018300
871.82093262,0.00029335
873.74973999,0.00034376
875.67854736,0.00042187
877.60735474,0.00025178
879.53616211,0.00030571
881.46496948,0.00054860
883.39377686,0.00023854
885.32258423,0.00001989
887.25139160,0.00024988
889.18019897,0.00058864
891.10900635,0.00042100
893.03781372,0.00020430
894.96662109,0.00043105
896.89542847,0.00042915
898.82423584,0.00021895
900.75304321,0.00042150
902.68185059,0.00057889
904.61065796,0.00034132
906.53946533,0.00042148
908.46827271,0.00042123
910.39708008,0.00041504
912.32588745,0.00051515
914.25469482,0.00035551
916.18350220,0.00048128
918.11230957,0.00060329
920.04111694,0.00073533
921.96992432,0.00064898
923.89873169,0.00057928
925.82753906,0.00071832
927.75634644,0.00082026
929.68515381,0.00107707
931.61396118,0.00096909
933.54276855,0.00107748
935.47157593,0.00138297
937.40038330,0.00118519
939.32919067,0.00089029
941.25799805,0.00112389
943.18680542,0.00130325
945.11561279,0.00126601
947.04442017,0.00153409
948.97322754,0.00128398
950.90203491,0.00132457
952.83084229,0.00138063
954.75964966,0.00107196
956.68845703,0.00129182
958.61726440,0.00121036
960.54607178,0.00129332
962.47487915,0.00140190
964.40368652,0.00137822
966.33249390,0.00143153
968.26130127,0.00116237
970.19010864,0.00132199
972.11891602,0.00150506
974.04772339,0.00145746
975.97653076,0.00174548
977.90533813,0.00188769
979.83414551,0.00183607
981.76295288,0.00217056
983.69176025,0.00237351
985.62056763,0.00257110
987.54937500,0.00284880
989.47818237,0.00301716
991.40698975,0.00351275
993.33579712,0.00367968
995.26460449,0.00402243
997.19341187,0.00447762
999.12221924,0.00478122
1001.05102661,0.00504300
1002.97983398,0.00501822
1004.90864136,0.00570037
1006.83744873,0.00617992
1008.76625610,0.00647402
1010.69506348,0.00682974
1012.62387085,0.00691326
1014.55267822,0.00754209
1016.48148560,0.00795143
1018.41029297,0.00823584
1020.33910034,0.00858898
1022.26790771,0.00885791
1024.19671509,0.00931869
1026.12552246,0.00973530
1028.05432983,0.00990357
1029.98313721,0.01018755
1031.91194458,0.01067036
1033.84075195,0.01064393
1035.76955933,0.01085106
1037.69836670,0.01106371
1039.62717407,0.01099772
1041.55598145,0.01116892
1043.48478882,0.01098764
1045.41359619,0.01072543
1047.34240356,0.01063111
1049.27121094,0.01063540
1051.20001831,0.01027697
1053.12882568,0.01014636
1055.05763306,0.01022474
1056.98644043,0.00968342
1058.91524780,0.00965798
1060.84405518,0.00952669
1062.77286255,0.00901076
1064.70166992,0.00872313
1066.63047729,0.00834789
1068.55928467,0.00801590
1070.48809204,0.00759153
1072.41689941,0.00751276
1074.34570679,0.00737476
1076.27451416,0.00678002
1078.20332153,0.00647233
1080.13212891,0.00622121
1082.06093628,0.00577228
1083.98974365,0.00551600
1085.91855103,0.00545923
1087.84735840,0.00510915
1089.77616577,0.00478391
1091.70497314,0.00481307
1093.63378052,0.00457247
1095.56258789,0.00429374
1097.49139526,0.00427101
1099.42020264,0.00411857
1101.34901001,0.00418599
1103.27781738,0.00422627
1105.20662476,0.00374697
1107.13543213,0.00369335
1109.06423950,0.00395540
1110.99304687,0.00373202
1112.92185425,0.00374814
1114.85066162,0.00380282
1116.77946899,0.00351538
1118.70827637,0.00368193
1120.63708374,0.00378325
1122.56589111,0.00383346
1124.49469849,0.00402908
1126.42350586,0.00388169
1128.35231323,0.00407609
1130.28112061,0.00406658
1132.20992798,0.00395078
1134.13873535,0.00442731
1136.06754272,0.00456537
1137.99635010,0.00460960
1139.92515747,0.00485217
1141.85396484,0.00522103
1143.78277222,0.00551667
1145.71157959,0.00561653
1147.64038696,0.00605325
1149.56919434,0.00653489
1151.49800171,0.00695640
1153.42680908,0.00716387
1155.35561646,0.00735710
1157.28442383,0.00787226
1159.21323120,0.00813973
1161.14203857,0.00819602
1163.07084595,0.00853423
1164.99965332,0.00924210
1166.92846069,0.00944076
1168.85726807,0.00951697
1170.78607544,0.00996231
1172.71488281,0.01020977
1174.64369019,0.01077214
1176.57249756,0.01112241
1178.50130493,0.01160587
1180.43011230,0.01234881
1182.35891968,0.01251260
1184.28772705,0.01313939
1186.21653442,0.01370724
1188.14534180,0.01413460
1190.07414917,0.01494821
1192.00295654,0.01569925
1193.93176392,0.01659148
1195.86057129,0.01723930
1197.78937866,0.01803398
1199.71818604,0.01885603
1201.64699341,0.01946794
1203.57580078,0.02047207
1205.50460815,0.02123800
1207.43341553,0.02183513
1209.36222290,0.02260966
1211.29103027,0.02335190
1213.21983765,0.02391334
1215.14864502,0.02441837
1217.07745239,0.02503684
1219.00625977,0.02552205
1220.93506714,0.02601935
1222.86387451,0.02632069
1224.79268188,0.02648577
1226.72148926,0.02674818
1228.65029663,0.02677596
1230.57910400,0.02689132
1232.50791138,0.02699468
1234.43671875,0.02689154
1236.36552612,0.02703154
1238.29433350,0.02706143
1240.22314087,0.02686333
1242.15194824,0.02680446
1244.08075562,0.02671922
1246.00956299,0.02655609
1247.93837036,0.02618200
1249.86717773,0.02612266
1251.79598511,0.02621531
1253.72479248,0.02576192
1255.65359985,0.02562543
1257.58240723,0.02522957
1259.51121460,0.02463464
1261.44002197,0.02448806
1263.36882935,0.02396677
1265.29763672,0.02369077
1267.22644409,0.02360930
1269.15525146,0.02323518
1271.08405884,0.02274701
1273.01286621,0.02242233
1274.94167358,0.02215902
1276.87048096,0.02163799
1278.79928833,0.02137527
1280.72809570,0.02090343
1282.65690308,0.02058462
1284.58571045,0.02046352
1286.51451782,0.01979222
1288.44332520,0.01932253
1290.37213257,0.01919888
1292.30093994,0.01919789
1294.22974731,0.01890218
1296.15855469,0.01870651
1298.08736206,0.01880289
1300.01616943,0.01879967
1301.94497681,0.01906280
1303.87378418,0.01912832
1305.80259155,0.01920795
1307.73139893,0.01968370
1309.66020630,0.02010131
1311.58901367,0.02009780
1313.51782104,0.02033627
1315.44662842,0.02103630
1317.37543579,0.02127859
1319.30424316,0.02195902
1321.23305054,0.02295006
1323.16185791,0.02353757
1325.09066528,0.02420483
1327.01947266,0.02474320
1328.94828003,0.02527374
1330.87708740,0.02587513
1332.80589478,0.02659110
1334.73470215,0.02712677
1336.66350952,0.02722691
1338.59231689,0.02694760
1340.52112427,0.02718409
1342.44993164,0.02851093
1344.37873901,0.02890535
1346.30754639,0.02873281
1348.23635376,0.02876779
1350.16516113,0.02849733
1352.09396851,0.02847916
1354.02277588,0.02801416
1355.95158325,0.02784576
1357.88039062,0.02796196
1359.80919800,0.02734877
1361.73800537,0.02591441
1363.66681274,0.02541995
1365.59562012,0.02707715
1367.52442749,0.02651279
1369.45323486,0.02600470
1371.38204224,0.02675757
1373.31084961,0.02496933
1375.23965698,0.02500888
1377.16846436,0.02614516
1379.09727173,0.02591047
1381.02607910,0.02579116
1382.95488647,0.02598367
1384.88369385,0.02601019
1386.81250122,0.02454609
1388.74130859,0.02508717
1390.67011597,0.02745633
1392.59892334,0.02645534
1394.52773071,0.02448945
1396.45653809,0.02592354
1398.38534546,0.02580268
1400.31415283,0.02571067
1402.24296021,0.02825404
1404.17176758,0.02621975
1406.10057495,0.02651060
1408.02938232,0.02798011
1409.95818970,0.02655751
1411.88699707,0.02741887
1413.81580444,0.02644659
1415.74461182,0.02674684
1417.67341919,0.02379054
1419.60222656,0.02106126
1421.53103394,0.02497977
1423.45984131,0.02414077
1425.38864868,0.02346031
1427.31745605,0.02371713
1429.24626343,0.02173517
1431.17507080,0.02135483
1433.10387817,0.02183574
1435.03268555,0.01982903
1436.96149292,0.01642632
1438.89030029,0.01923056
1440.81910767,0.01983026
1442.74791504,0.01812782
1444.67672241,0.01930289
1446.60552979,0.01749933
1448.53433716,0.01768912
1450.46314453,0.01840229
1452.39195190,0.01888185
1454.32075928,0.01941071
1456.24956665,0.01542095
1458.17837402,0.01610468
1460.10718140,0.02213969
1462.03598877,0.02376863
1463.96479614,0.02329694
1465.89360352,0.02422786
1467.82241089,0.02808834
1469.75121826,0.03017876
1471.68002563,0.02598593
1473.60883301,0.02727282
1475.53764038,0.03163062
1477.46644775,0.03415035
1479.39525513,0.03783318
1481.32406250,0.03811888
1483.25286987,0.04069369
1485.18167725,0.04209687
1487.11048462,0.04078546
1489.03929199,0.04006472
1490.96809937,0.04033682
1492.89690674,0.04803409
1494.82571411,0.04643534
1496.75452148,0.04092276
1498.68332886,0.04697184
1500.61213623,0.04851515
1502.54094360,0.05263143
1504.46975098,0.04900919
1506.39855835,0.03341477
1508.32736572,0.04239279
1510.25617310,0.05106228
1512.18498047,0.04931388
1514.11378784,0.05416261
1516.04259521,0.04772424
1517.97140259,0.04985936
1519.90020996,0.04800697
1521.82901733,0.04039555
1523.75782471,0.05142204
1525.68663208,0.05039838
1527.61543945,0.05007083
1529.54424683,0.05650415
1531.47305420,0.05392514
1533.40186157,0.04837989
1535.33066895,0.05195025
1537.25947632,0.05638019
1539.18828369,0.03784700
1541.11709106,0.04019363
1543.04589844,0.04963497
1544.97470581,0.04715568
1546.90351318,0.05795245
1548.83232056,0.05310651
1550.76112793,0.05497794
1552.68993530,0.05499488
1554.61874268,0.04891435
1556.54755005,0.05297696
1558.47635742,0.03490470
1560.40516479,0.03866522
1562.33397217,0.05869253
1564.26277954,0.05471763
1566.19158691,0.05662484
1568.12039429,0.05579242
1570.04920166,0.04823732
1571.97800903,0.05741378
1573.90681641,0.05821139
1575.83562378,0.04432125
1577.76443115,0.05138016
1579.69323853,0.05942454
1581.62204590,0.05645467
1583.55085327,0.05783702
1585.47966064,0.05708562
1587.40846802,0.05753415
1589.33727539,0.05688722
1591.26608276,0.05690965
1593.19489014,0.05698350
1595.12369751,0.05629933
1597.05250488,0.05720295
1598.98131226,0.05673703
1600.91011963,0.05698436
1602.83892700,0.05602912
1604.76773437,0.05709236
1606.69654175,0.05603850
1608.62534912,0.05610120
1610.55415649,0.05597331
1612.48296387,0.05658776
1614.41177124,0.05730785
1616.34057861,0.04523634
1618.26938599,0.05012019
1620.19819336,0.05966623
1622.12700073,0.05168218
1624.05580811,0.05178329
1625.98461548,0.05502804
1627.91342285,0.05452613
1629.84223022,0.05437020
1631.77103760,0.05888344
1633.69984497,0.05311036
1635.62865234,0.04231989
1637.55745972,0.05094258
1639.48626709,0.05698443
1641.41507446,0.05542424
1643.34388184,0.05734030
1645.27268921,0.05050439
1647.20149658,0.04298843
1649.13030396,0.05612134
1651.05911133,0.05268122
1652.98791870,0.03091582
1654.91672607,0.04512816
1656.84553345,0.05871793
1658.77434082,0.05596130
1660.70314819,0.05749552
1662.63195557,0.05126070
1664.56076294,0.05488621
1666.48957031,0.05988042
1668.41837769,0.05060754
1670.34718506,0.04895117
1672.27599243,0.05718880
1674.20479980,0.05173095
1676.13360718,0.04934700
1678.06241455,0.05840669
1679.99122192,0.05585202
1681.92002930,0.05496798
1683.84883667,0.04300902
1685.77764404,0.04287758
1687.70645142,0.06167001
1689.63525879,0.05219464
1691.56406616,0.05868663
1693.49287354,0.05970501
1695.42168091,0.04136415
1697.35048828,0.05318747
1699.27929565,0.04511177
1701.20810303,0.04014314
1703.13691040,0.05804983
1705.06571777,0.05202567
1706.99452515,0.05286923
1708.92333252,0.05834340
1710.85213989,0.05577578
1712.78094727,0.05692398
1714.70975464,0.05184087
1716.63856201,0.04590660
1718.56736938,0.04516383
1720.49617676,0.05514511
1722.42498413,0.05777068
1724.35379150,0.05294761
1726.28259888,0.05861785
1728.21140625,0.05340328
1730.14021362,0.05365691
1732.06902100,0.05215730
1733.99782837,0.03771197
1735.92663574,0.04946182
1737.85544312,0.05537256
1739.78425049,0.04799495
1741.71305786,0.05325449
1743.64186523,0.05392686
1745.57067261,0.05405995
1747.49947998,0.05435828
1749.42828735,0.05129669
1751.35709473,0.04885840
1753.28590210,0.05533479
1755.21470947,0.05814718
1757.14351685,0.05202045
1759.07232422,0.05843323
1761.00113159,0.05405966
1762.92993896,0.05185752
1764.85874634,0.06100514
1766.78755371,0.05368904
1768.71636108,0.05432893
1770.64516846,0.05378016
1772.57397583,0.04746399
1774.50278320,0.05433514
1776.43159058,0.05790681
1778.36039795,0.05701306
1780.28920532,0.05602824
1782.21801270,0.05661239
1784.14682007,0.05652497
1786.07562744,0.05513633
1788.00443481,0.05858393
1789.93324219,0.05684517
1791.86204956,0.05034534
1793.79085693,0.05285196
1795.71966431,0.05757323
1797.64847168,0.05678441
1799.57727905,0.05568337
1801.50608643,0.05450453
1803.43489380,0.05684252
1805.36370117,0.05827254
1807.29250854,0.05728846
1809.22131592,0.05748323
1811.15012329,0.05556891
1813.07893066,0.05792198
1815.00773804,0.05817300
1816.93654541,0.05721049
1818.86535278,0.05788991
1820.79416016,0.05777448
1822.72296753,0.05865822
1824.65177490,0.05387192
1826.58058228,0.05635952
1828.50938965,0.05640146
1830.43819702,0.05219466
1832.36700439,0.05791523
1834.29581177,0.05756062
1836.22461914,0.05746420
1838.15342651,0.05713112
1840.08223389,0.05770500
1842.01104126,0.05775703
1843.93984863,0.05017353
1845.86865601,0.05419403
1847.79746338,0.05754133
1849.72627075,0.05623552
1851.65507812,0.05820516
1853.58388550,0.05687432
1855.51269287,0.05769987
1857.44150024,0.05713595
1859.37030762,0.05665622
1861.29911499,0.05719383
1863.22792236,0.05650240
1865.15672974,0.05728061
1867.08553711,0.05478416
1869.01434448,0.05193258
1870.94315186,0.05477730
1872.87195923,0.05738142
1874.80076660,0.05618165
1876.72957397,0.05660240
1878.65838135,0.05639932
1880.58718872,0.05604750
1882.51599609,0.05656027
1884.44480347,0.05541668
1886.37361084,0.05654650
1888.30241821,0.05497323
1890.23122559,0.05359752
1892.16003296,0.05621329
1894.08884033,0.05516815
1896.01764771,0.05485738
1897.94645508,0.05575550
1899.87526245,0.05537008
1901.80406982,0.05563337
1903.73287720,0.05519071
1905.66168457,0.05542994
1907.59049194,0.05487282
1909.51929932,0.05440093
1911.44810669,0.05477346
1913.37691406,0.05489686
1915.30572144,0.05556444
1917.23452881,0.05260912
1919.16333618,0.05272854
1921.09214355,0.05524641
1923.02095093,0.05291957
1924.94975830,0.05429507
1926.87856567,0.05522107
1928.80737305,0.05433593
1930.73618042,0.05516496
1932.66498779,0.05433404
1934.59379517,0.05479760
1936.52260254,0.05421627
1938.45140991,0.05451404
1940.38021729,0.05454599
1942.30902466,0.05234277
1944.23783203,0.05348403
1946.16663940,0.05422219
1948.09544678,0.05404295
1950.02425415,0.05421441
1951.95306152,0.05417916
1953.88186890,0.05429508
1955.81067627,0.05399026
1957.73948364,0.05433728
1959.66829102,0.05406193
1961.59709839,0.05386370
1963.52590576,0.05431182
1965.45471313,0.05377965
1967.38352051,0.05305088
1969.31232788,0.05380013
1971.24113525,0.05410417
1973.16994263,0.05352373
1975.09875000,0.05386273
1977.02755737,0.05368591
1978.95636475,0.05385250
1980.88517212,0.05367608
1982.81397949,0.05333103
1984.74278687,0.05368548
1986.67159424,0.05319707
1988.60040161,0.05328382
1990.52920898,0.05254324
1992.45801636,0.05195645
1994.38682373,0.05303390
1996.31563110,0.05311416
1998.24443848,0.05281394
2000.17324585,0.05285894
2002.10205322,0.05289661
2004.03086060,0.05281823
2005.95966797,0.05244499
2007.88847534,0.05236674
2009.81728271,0.05245305
2011.74609009,0.05209322
2013.67489746,0.05219184
2015.60370483,0.05185554
2017.53251221,0.05118718
2019.46131958,0.05188465
2021.39012695,0.05181381
2023.31893433,0.05145112
2025.24774170,0.05150098
2027.17654907,0.05127840
2029.10535645,0.05142395
2031.03416382,0.05118426
2032.96297119,0.05105434
2034.89177856,0.05090447
2036.82058594,0.05072863
2038.74939331,0.05070987
2040.67820068,0.05039656
2042.60700806,0.05040753
2044.53581543,0.05037869
2046.46462280,0.05027536
2048.39343018,0.05020446
2050.32223755,0.05008903
2052.25104492,0.05009687
2054.17985229,0.04996316
2056.10865967,0.04980293
2058.03746704,0.04981720
2059.96627441,0.04971536
2061.89508179,0.04957645
2063.82388916,0.04933738
2065.75269653,0.04902719
2067.68150391,0.04926698
2069.61031128,0.04927733
2071.53911865,0.04906179
2073.46792603,0.04898605
2075.39673340,0.04885879
2077.32554077,0.04885495
2079.25434814,0.04872683
2081.18315552,0.04879819
2083.11196289,0.04863178
2085.04077026,0.04851464
2086.96957764,0.04847106
2088.89838501,0.04808220
2090.82719238,0.04806330
2092.75599976,0.04806930
2094.68480713,0.04815832
2096.61361450,0.04799888
2098.54242187,0.04775215
2100.47122925,0.04780327
2102.40003662,0.04777945
2104.32884399,0.04773055
2106.25765137,0.04758695
2108.18645874,0.04766459
2110.11526611,0.04750128
2112.04407349,0.04744702
2113.97288086,0.04747345
2115.90168823,0.04717039
2117.83049561,0.04716147
2119.75930298,0.04708476
2121.68811035,0.04703975
2123.61691772,0.04698873
2125.54572510,0.04698529
2127.47453247,0.04692964
2129.40333984,0.04682430
2131.33214722,0.04684366
2133.26095459,0.04669409
2135.18976196,0.04676549
2137.11856934,0.04660720
2139.04737671,0.04648043
2140.97618408,0.04650351
2142.90499146,0.04636917
2144.83379883,0.04641401
2146.76260620,0.04627311
2148.69141357,0.04620156
2150.62022095,0.04621146
2152.54902832,0.04615835
2154.47783569,0.04604556
2156.40664307,0.04598330
2158.33545044,0.04604182
2160.26425781,0.04600151
2162.19306519,0.04595472
2164.12187256,0.04572498
2166.05067993,0.04568645
2167.97948730,0.04584941
2169.90829468,0.04570983
2171.83710205,0.04549512
2173.76590942,0.04552399
2175.69471680,0.04546436
2177.62352417,0.04536052
2179.55233154,0.04549839
2181.48113892,0.04534812
2183.40994629,0.04524608
2185.33875366,0.04528382
2187.26756104,0.04525287
2189.19636841,0.04517962
2191.12517578,0.04499336
2193.05398315,0.04498758
2194.98279053,0.04493888
2196.91159790,0.04500000
2198.84040527,0.04491792
2200.76921265,0.04476869
2202.69802002,0.04482619
2204.62682739,0.04468981
2206.55563477,0.04468367
2208.48444214,0.04464405
2210.41324951,0.04458203
2212.34205688,0.04446748
2214.27086426,0.04427748
2216.19967163,0.04433001
2218.12847900,0.04439873
2220.05728638,0.04440181
2221.98609375,0.04422891
2223.91490112,0.04414407
2225.84370850,0.04411651
2227.77251587,0.04400615
2229.70132324,0.04402985
2231.63013062,0.04395469
2233.55893799,0.04391678
2235.48774536,0.04392353
2237.41655273,0.04366001
2239.34536011,0.04362674
2241.27416748,0.04370917
2243.20297485,0.04344789
2245.13178223,0.04349970
2247.06058960,0.04353608
2248.98939697,0.04334097
2250.91820435,0.04324915
2252.84701172,0.04318967
2254.77581909,0.04327663
2256.70462646,0.04303665
2258.63343384,0.04295430
2260.56224121,0.04306544
2262.49104858,0.04286604
2264.41985596,0.04276000
2266.34866333,0.04277863
2268.27747070,0.04282177
2270.20627808,0.04268394
2272.13508545,0.04269976
2274.06389282,0.04258817
2275.99270020,0.04244357
2277.92150757,0.04256256
2279.85031494,0.04246539
2281.77912231,0.04250583
2283.70792969,0.04237472
2285.63673706,0.04230861
2287.56554443,0.04228683
2289.49435181,0.04206705
2291.42315918,0.04202354
2293.35196655,0.04186521
2295.28077393,0.04190229
2297.20958130,0.04175065
2299.13838867,0.04159838
2301.06719604,0.04157654
2302.99600342,0.04121317
2304.92481079,0.04113385
2306.85361816,0.04088067
2308.78242554,0.04046573
2310.71123291,0.04026935
2312.64004028,0.03985556
2314.56884766,0.03949303
2316.49765503,0.03915332
2318.42646240,0.03858964
2320.35526978,0.03815755
2322.28407715,0.03767031
2324.21288452,0.03708476
2326.14169189,0.03674309
2328.07049927,0.03633719
2329.99930664,0.03595532
2331.92811401,0.03572031
2333.85692139,0.03548422
2335.78572876,0.03527902
2337.71453613,0.03534183
2339.64334351,0.03532092
2341.57215088,0.03535345
2343.50095825,0.03602704
2345.42976562,0.03655150
2347.35857300,0.03796424
2349.28738037,0.03906274
2351.21618774,0.03771044
2353.14499512,0.03620014
2355.07380249,0.03489289
2357.00260986,0.03373557
2358.93141724,0.03307819
2360.86022461,0.03274485
2362.78903198,0.03280399
2364.71783936,0.03275802
2366.64664673,0.03333547
2368.57545410,0.03396853
2370.50426147,0.03461751
2372.43306885,0.03566974
2374.36187622,0.03648520
2376.29068359,0.03742608
2378.21949097,0.03828956
2380.14829834,0.03886758
2382.07710571,0.03914713
2384.00591309,0.03944603
2385.93472046,0.03950604
2387.86352783,0.03942008
2389.79233521,0.03966254
2391.72114258,0.03948364
2393.64994995,0.03942760
2395.57875732,0.03944911
2397.50756470,0.03924730
2399.43637207,0.03920385
2401.36517944,0.03918832
2403.29398682,0.03927185
2405.22279419,0.03918588
2407.15160156,0.03912940
2409.08040894,0.03911315
2411.00921631,0.03906027
2412.93802368,0.03895617
2414.86683105,0.03886061
2416.79563843,0.03898889
2418.72444580,0.03895530
2420.65325317,0.03891420
2422.58206055,0.03877621
2424.51086792,0.03868478
2426.43967529,0.03864358
2428.36848267,0.03848039
2430.29729004,0.03858922
2432.22609741,0.03849760
2434.15490479,0.03833657
2436.08371216,0.03827651
2438.01251953,0.03827945
2439.94132690,0.03832163
2441.87013428,0.03819494
2443.79894165,0.03825109
2445.72774902,0.03820018
2447.65655640,0.03809568
2449.58536377,0.03799190
2451.51417114,0.03794216
2453.44297852,0.03803890
2455.37178589,0.03783219
2457.30059326,0.03775196
2459.22940063,0.03773214
2461.15820801,0.03762587
2463.08701538,0.03758997
2465.01582275,0.03758583
2466.94463013,0.03760449
2468.87343750,0.03747341
2470.80224487,0.03749081
2472.73105225,0.03737561
2474.65985962,0.03727829
2476.58866699,0.03739756
2478.51747437,0.03733388
2480.44628174,0.03731800
2482.37508911,0.03719413
2484.30389648,0.03712085
2486.23270386,0.03710206
2488.16151123,0.03703137
2490.09031860,0.03705156
2492.01912598,0.03689618
2493.94793335,0.03680713
2495.87674072,0.03685880
2497.80554810,0.03684410
2499.73435547,0.03672982
2501.66316284,0.03670762
2503.59197021,0.03665709
2505.52077759,0.03656345
2507.44958496,0.03662113
2509.37839233,0.03653505
2511.30719971,0.03650213
2513.23600708,0.03645127
2515.16481445,0.03639802
2517.09362183,0.03630096
2519.02242920,0.03620230
2520.95123657,0.03636686
2522.88004395,0.03617380
2524.80885132,0.03608644
2526.73765869,0.03615439
2528.66646606,0.03604148
2530.59527344,0.03597125
2532.52408081,0.03587013
2534.45288818,0.03603236
2536.38169556,0.03591206
2538.31050293,0.03574145
2540.23931030,0.03582751
2542.16811768,0.03571976
2544.09692505,0.03572846
2546.02573242,0.03568669
2547.95453979,0.03559101
2549.88334717,0.03560056
2551.81215454,0.03556570
2553.74096191,0.03541297
2555.66976929,0.03535138
2557.59857666,0.03534207
2559.52738403,0.03530494
2561.45619141,0.03534104
2563.38499878,0.03519260
2565.31380615,0.03519583
2567.24261353,0.03519809
2569.17142090,0.03513393
2571.10022827,0.03504119
2573.02903564,0.03477558
2574.95784302,0.03491060
2576.88665039,0.03497007
2578.81545776,0.03489102
2580.74426514,0.03476560
2582.67307251,0.03462570
2584.60187988,0.03476473
2586.53068726,0.03455129
2588.45949463,0.03446464
2590.38830200,0.03457451
2592.31710937,0.03451725
2594.24591675,0.03454612
2596.17472412,0.03434064
2598.10353149,0.03426691
2600.03233887,0.03434389
2601.96114624,0.03414330
2603.88995361,0.03412272
2605.81876099,0.03427764
2607.74756836,0.03417503
2609.67637573,0.03402382
2611.60518311,0.03401267
2613.53399048,0.03397956
2615.46279785,0.03392286
2617.39160522,0.03391730
2619.32041260,0.03388542
2621.24921997,0.03380539
2623.17802734,0.03373555
2625.10683472,0.03366952
2627.03564209,0.03367824
2628.96444946,0.03361068
2630.89325684,0.03347788
2632.82206421,0.03347549
2634.75087158,0.03346164
2636.67967895,0.03333696
2638.60848633,0.03322374
2640.53729370,0.03329408
2642.46610107,0.03332011
2644.39490845,0.03325965
2646.32371582,0.03315833
2648.25252319,0.03308682
2650.18133057,0.03313782
2652.11013794,0.03300253
2654.03894531,0.03295983
2655.96775269,0.03293337
2657.89656006,0.03283870
2659.82536743,0.03287352
2661.75417480,0.03280489
2663.68298218,0.03275225
2665.61178955,0.03268284
2667.54059692,0.03269677
2669.46940430,0.03266034
2671.39821167,0.03248689
2673.32701904,0.03241163
2675.25582642,0.03243078
2677.18463379,0.03249867
2679.11344116,0.03233415
2681.04224854,0.03226724
2682.97105591,0.03232459
2684.89986328,0.03223374
2686.82867065,0.03210707
2688.75747803,0.03210726
2690.68628540,0.03217257
2692.61509277,0.03199968
2694.54390015,0.03202765
2696.47270752,0.03198048
2698.40151489,0.03184585
2700.33032227,0.03192012
2702.25912964,0.03175738
2704.18793701,0.03173207
2706.11674438,0.03171952
2708.04555176,0.03167427
2709.97435913,0.03165209
2711.90316650,0.03150155
2713.83197388,0.03150397
2715.76078125,0.03144156
2717.68958862,0.03143876
2719.61839600,0.03139790
2721.54720337,0.03118988
2723.47601074,0.03120439
2725.40481812,0.03127657
2727.33362549,0.03121443
2729.26243286,0.03106836
2731.19124023,0.03094565
2733.12004761,0.03096266
2735.04885498,0.03104787
2736.97766235,0.03097005
2738.90646973,0.03069807
2740.83527710,0.03074882
2742.76408447,0.03093975
2744.69289185,0.03069536
2746.62169922,0.03074238
2748.55050659,0.03076189
2750.47931396,0.03044705
2752.40812134,0.03061576
2754.33692871,0.03056139
2756.26573608,0.03046205
2758.19454346,0.03049698
2760.12335083,0.03032865
2762.05215820,0.03039518
2763.98096558,0.03029684
2765.90977295,0.03022145
2767.83858032,0.03013249
2769.76738770,0.02995240
2771.69619507,0.02999319
2773.62500244,0.02998245
2775.55380981,0.02985293
2777.48261719,0.02968767
2779.41142456,0.02974919
2781.34023193,0.02974437
2783.26903931,0.02972789
2785.19784668,0.02963459
2787.12665405,0.02947377
2789.05546143,0.02964798
2790.98426880,0.02946862
2792.91307617,0.02933862
2794.84188354,0.02942691
2796.77069092,0.02932885
2798.69949829,0.02937583
2800.62830566,0.02928092
2802.55711304,0.02908331
2804.48592041,0.02909095
2806.41472778,0.02910184
2808.34353516,0.02893073
2810.27234253,0.02891212
2812.20114990,0.02885128
2814.12995728,0.02873608
2816.05876465,0.02883039
2817.98757202,0.02870929
2819.91637939,0.02872784
2821.84518677,0.02871555
2823.77399414,0.02848221
2825.70280151,0.02846988
2827.63160889,0.02843084
2829.56041626,0.02841701
2831.48922363,0.02839886
2833.41803101,0.02824414
2835.34683838,0.02820730
2837.27564575,0.02822845
2839.20445312,0.02803027
2841.13326050,0.02789505
2843.06206787,0.02788597
2844.99087524,0.02773778
2846.91968262,0.02755286
2848.84848999,0.02740533
2850.77729736,0.02746365
2852.70610474,0.02741807
2854.63491211,0.02736301
2856.56371948,0.02748314
2858.49252686,0.02725035
2860.42133423,0.02719173
2862.35014160,0.02735853
2864.27894897,0.02717659
2866.20775635,0.02713864
2868.13656372,0.02714753
2870.06537109,0.02698233
2871.99417847,0.02709223
2873.92298584,0.02695922
2875.85179321,0.02675802
2877.78060059,0.02696442
2879.70940796,0.02685173
2881.63821533,0.02675189
2883.56702270,0.02678300
2885.49583008,0.02665869
2887.42463745,0.02662410
2889.35344482,0.02656924
2891.28225220,0.02650245
2893.21105957,0.02643452
2895.13986694,0.02639091
2897.06867432,0.02623653
2898.99748169,0.02619452
2900.92628906,0.02620938
2902.85509644,0.02602308
2904.78390381,0.02602094
2906.71271118,0.02603305
2908.64151855,0.02596693
2910.57032593,0.02591439
2912.49913330,0.02590678
2914.42794067,0.02572249
2916.35674805,0.02557134
2918.28555542,0.02567518
2920.21436279,0.02553742
2922.14317017,0.02547614
2924.07197754,0.02536932
2926.00078491,0.02542524
2927.92959229,0.02569122
2929.85839966,0.02560661
2931.78720703,0.02556517
2933.71601440,0.02542736
2935.64482178,0.02540639
2937.57362915,0.02544719
2939.50243652,0.02541501
2941.43124390,0.02550023
2943.36005127,0.02537046
2945.28885864,0.02537691
2947.21766602,0.02534861
2949.14647339,0.02523633
2951.07528076,0.02523758
2953.00408813,0.02507455
2954.93289551,0.02502752
2956.86170288,0.02505866
2958.79051025,0.02495963
2960.71931763,0.02497222
2962.64812500,0.02488049
2964.57693237,0.02469344
2966.50573975,0.02479086
2968.43454712,0.02475004
2970.36335449,0.02473019
2972.29216187,0.02480895
2974.22096924,0.02486154
2976.14977661,0.02490963
2978.07858398,0.02469117
2980.00739136,0.02485349
2981.93619873,0.02482283
2983.86500610,0.02462871
2985.79381348,0.02473382
2987.72262085,0.02458012
2989.65142822,0.02468863
2991.58023560,0.02458871
2993.50904297,0.02447902
2995.43785034,0.02453563
2997.36665771,0.02443874
2999.29546509,0.02454358
3001.22427246,0.02434418
3003.15307983,0.02426620
3005.08188721,0.02422691
3007.01069458,0.02417196
3008.93950195,0.02421045
3010.86830933,0.02402642
3012.79711670,0.02412012
3014.72592407,0.02403098
3016.65473145,0.02385923
3018.58353882,0.02384355
3020.51234619,0.02379655
3022.44115356,0.02383769
3024.36996094,0.02373391
3026.29876831,0.02372469
3028.22757568,0.02370518
3030.15638306,0.02355717
3032.08519043,0.02352996
3034.01399780,0.02352104
3035.94280518,0.02342509
3037.87161255,0.02341404
3039.80041992,0.02340025
3041.72922729,0.02325167
3043.65803467,0.02323009
3045.58684204,0.02318981
3047.51564941,0.02311109
3049.44445679,0.02302146
3051.37326416,0.02297926
3053.30207153,0.02303732
3055.23087891,0.02292855
3057.15968628,0.02282730
3059.08849365,0.02279624
3061.01730103,0.02283110
3062.94610840,0.02282380
3064.87491577,0.02267089
3066.80372314,0.02258490
3068.73253052,0.02256045
3070.66133789,0.02257319
3072.59014526,0.02253405
3074.51895264,0.02244625
3076.44776001,0.02246459
3078.37656738,0.02245624
3080.30537476,0.02224882
3082.23418213,0.02218827
3084.16298950,0.02225895
3086.09179687,0.02220538
3088.02060425,0.02218646
3089.94941162,0.02208639
3091.87821899,0.02209193
3093.80702637,0.02204263
3095.73583374,0.02185893
3097.66464111,0.02193571
3099.59344849,0.02184241
3101.52225586,0.02175625
3103.45106323,0.02182914
3105.37987061,0.02165779
3107.30867798,0.02160432
3109.23748535,0.02170447
3111.16629272,0.02163412
3113.09510010,0.02150740
3115.02390747,0.02141667
3116.95271484,0.02138858
3118.88152222,0.02138829
3120.81032959,0.02128509
3122.73913696,0.02124372
3124.66794434,0.02127152
3126.59675171,0.02119005
3128.52555908,0.02111451
3130.45436645,0.02103746
3132.38317383,0.02090519
3134.31198120,0.02090492
3136.24078857,0.02098537
3138.16959595,0.02092697
3140.09840332,0.02084368
3142.02721069,0.02079260
3143.95601807,0.02066386
3145.88482544,0.02055595
3147.81363281,0.02059156
3149.74244019,0.02054350
3151.67124756,0.02048035
3153.60005493,0.02050853
3155.52886230,0.02037349
3157.45766968,0.02032726
3159.38647705,0.02017446
3161.31528442,0.02003399
3163.24409180,0.02016560
3165.17289917,0.02010667
3167.10170654,0.02001609
3169.03051392,0.01981069
3170.95932129,0.01982404
3172.88812866,0.01995543
3174.81693604,0.01980957
3176.74574341,0.01977703
3178.67455078,0.01959257
3180.60335815,0.01963548
3182.53216553,0.01967517
3184.46097290,0.01951011
3186.38978027,0.01962090
3188.31858765,0.01952543
3190.24739502,0.01936370
3192.17620239,0.01924239
3194.10500977,0.01915692
3196.03381714,0.01917340
3197.96262451,0.01917956
3199.89143188,0.01920074
3201.82023926,0.01915303
3203.74904663,0.01905091
3205.67785400,0.01902287
3207.60666138,0.01911046
3209.53546875,0.01891772
3211.46427612,0.01884298
3213.39308350,0.01890425
3215.32189087,0.01875232
3217.25069824,0.01881912
3219.17950562,0.01873591
3221.10831299,0.01864927
3223.03712036,0.01874553
3224.96592773,0.01865444
3226.89473511,0.01852312
3228.82354248,0.01854645
3230.75234985,0.01860205
3232.68115723,0.01848008
3234.60996460,0.01847837
3236.53877197,0.01846598
3238.46757935,0.01833007
3240.39638672,0.01839423
3242.32519409,0.01849572
3244.25400146,0.01835065
3246.18280884,0.01822235
3248.11161621,0.01822725
3250.04042358,0.01814574
3251.96923096,0.01821352
3253.89803833,0.01815145
3255.82684570,0.01805907
3257.75565308,0.01808931
3259.68446045,0.01800582
3261.61326782,0.01811610
3263.54207520,0.01806252
3265.47088257,0.01800677
3267.39968994,0.01805209
3269.32849731,0.01792008
3271.25730469,0.01797141
3273.18611206,0.01795969
3275.11491943,0.01781610
3277.04372681,0.01789366
3278.97253418,0.01794556
3280.90134155,0.01778519
3282.83014893,0.01776611
3284.75895630,0.01774666
3286.68776367,0.01771678
3288.61657104,0.01778910
3290.54537842,0.01771637
3292.47418579,0.01762953
3294.40299316,0.01753739
3296.33180054,0.01760217
3298.26060791,0.01765010
3300.18941528,0.01756530
3302.11822266,0.01755887
3304.04703003,0.01753400
3305.97583740,0.01748851
3307.90464478,0.01739589
3309.83345215,0.01748033
3311.76225952,0.01747987
3313.69106689,0.01741629
3315.61987427,0.01745519
3317.54868164,0.01740102
3319.47748901,0.01743263
3321.40629639,0.01731571
3323.33510376,0.01723921
3325.26391113,0.01724844
3327.19271851,0.01722975
3329.12152588,0.01726177
3331.05033325,0.01711956
3332.97914062,0.01706391
3334.90794800,0.01712061
3336.83675537,0.01709892
3338.76556274,0.01707860
3340.69437012,0.01709937
3342.62317749,0.01705936
3344.55198486,0.01695651
3346.48079224,0.01688362
3348.40959961,0.01698465
3350.33840698,0.01688508
3352.26721436,0.01668011
3354.19602173,0.01691994
3356.12482910,0.01679523
3358.05363647,0.01671611
3359.98244385,0.01686631
3361.91125122,0.01659981
3363.84005859,0.01653705
3365.76886597,0.01656772
3367.69767334,0.01658979
3369.62648071,0.01655317
3371.55528809,0.01659120
3373.48409546,0.01665424
3375.41290283,0.01651046
3377.34171020,0.01644954
3379.27051758,0.01641627
3381.19932495,0.01650752
3383.12813232,0.01643957
3385.05693970,0.01631490
3386.98574707,0.01622651
3388.91455444,0.01627097
3390.84336182,0.01623936
3392.77216919,0.01599647
3394.70097656,0.01621427
3396.62978394,0.01609617
3398.55859131,0.01599010
3400.48739868,0.01609933
3402.41620605,0.01598850
3404.34501343,0.01604595
3406.27382080,0.01594018
3408.20262817,0.01599861
3410.13143555,0.01598641
3412.06024292,0.01590749
3413.98905029,0.01588819
3415.91785767,0.01585982
3417.84666504,0.01588251
3419.77547241,0.01567887
3421.70427979,0.01566817
3423.63308716,0.01562516
3425.56189453,0.01565972
3427.49070190,0.01567746
3429.41950928,0.01561728
3431.34831665,0.01565779
3433.27712402,0.01549171
3435.20593140,0.01541657
3437.13473877,0.01543998
3439.06354614,0.01553886
3440.99235352,0.01531950
3442.92116089,0.01531203
3444.84996826,0.01543674
3446.77877563,0.01516245
3448.70758301,0.01522089
3450.63639038,0.01521174
3452.56519775,0.01526548
3454.49400513,0.01529819
3456.42281250,0.01526449
3458.35161987,0.01526106
3460.28042725,0.01511998
3462.20923462,0.01517744
3464.13804199,0.01514408
3466.06684937,0.01519696
3467.99565674,0.01511979
3469.92446411,0.01507795
3471.85327148,0.01510881
3473.78207886,0.01505071
3475.71088623,0.01508847
3477.63969360,0.01497828
3479.56850098,0.01503439
3481.49730835,0.01481674
3483.42611572,0.01473686
3485.35492310,0.01489190
3487.28373047,0.01480896
3489.21253784,0.01487024
3491.14134521,0.01491853
3493.07015259,0.01494931
3494.99895996,0.01478267
3496.92776733,0.01476746
3498.85657471,0.01484138
3500.78538208,0.01482472
3502.71418945,0.01454423
3504.64299683,0.01443063
3506.57180420,0.01488969
3508.50061157,0.01457551
3510.42941895,0.01448825
3512.35822632,0.01482174
3514.28703369,0.01477831
3516.21584106,0.01477286
3518.14464844,0.01461070
3520.07345581,0.01475780
3522.00226318,0.01465711
3523.93107056,0.01436086
3525.85987793,0.01446477
3527.78868530,0.01440607
3529.71749268,0.01433925
3531.64630005,0.01459849
3533.57510742,0.01472686
3535.50391479,0.01452094
3537.43272217,0.01453211
3539.36152954,0.01468170
3541.29033691,0.01467395
3543.21914429,0.01446493
3545.14795166,0.01403639
3547.07675903,0.01377957
3549.00556641,0.01439326
3550.93437378,0.01457045
3552.86318115,0.01406186
3554.79198853,0.01449233
3556.72079590,0.01457165
3558.64960327,0.01441405
3560.57841064,0.01433220
3562.50721802,0.01427204
3564.43602539,0.01432110
3566.36483276,0.01309301
3568.29364014,0.01283602
3570.22244751,0.01406649
3572.15125488,0.01449683
3574.08006226,0.01428562
3576.00886963,0.01430493
3577.93767700,0.01434846
3579.86648437,0.01421061
3581.79529175,0.01430623
3583.72409912,0.01440029
3585.65290649,0.01396457
3587.58171387,0.01261368
3589.51052124,0.01295024
3591.43932861,0.01438498
3593.36813599,0.01389969
3595.29694336,0.01359472
3597.22575073,0.01398665
3599.15455811,0.01405005
3601.08336548,0.01381566
3603.01217285,0.01399552
3604.94098022,0.01435141
3606.86978760,0.01378032
3608.79859497,0.01277372
3610.72740234,0.01302484
3612.65620972,0.01338450
3614.58501709,0.01293684
3616.51382446,0.01409587
3618.44263184,0.01284226
3620.37143921,0.01224598
3622.30024658,0.01423594
3624.22905395,0.01375444
3626.15786133,0.01446159
3628.08666870,0.01194630
3630.01547607,0.01066468
3631.94428345,0.01399284
3633.87309082,0.01352929
3635.80189819,0.01381837
3637.73070557,0.01408446
3639.65951294,0.01387028
3641.58832031,0.01410560
3643.51712769,0.01388862
3645.44593506,0.01401059
3647.37474243,0.01229389
3649.30354980,0.01116713
3651.23235718,0.01126654
3653.16116455,0.01378404
3655.08997192,0.01365388
3657.01877930,0.01201502
3658.94758667,0.01416630
3660.87639404,0.01378119
3662.80520142,0.01404607
3664.73400879,0.01397121
3666.66281616,0.01382199
3668.59162354,0.01327925
3670.52043091,0.01045397
3672.44923828,0.01320616
3674.37804565,0.01232133
3676.30685303,0.00986395
3678.23566040,0.01297460
3680.16446777,0.01334166
3682.09327515,0.01343978
3684.02208252,0.01386714
3685.95088989,0.01357845
3687.87969727,0.01199761
3689.80850464,0.01091705
3691.73731201,0.01263693
3693.66611938,0.01307180
3695.59492676,0.01351297
3697.52373413,0.01345098
3699.45254150,0.01332642
3701.38134888,0.01289549
3703.31015625,0.01232074
3705.23896362,0.01376072
3707.16777100,0.01300685
3709.09657837,0.01261175
3711.02538574,0.01171331
3712.95419312,0.01085302
3714.88300049,0.01311484
3716.81180786,0.01299834
3718.74061523,0.01300320
3720.66942261,0.01268404
3722.59822998,0.01224818
3724.52703735,0.01271035
3726.45584473,0.01165730
3728.38465210,0.01278016
3730.31345947,0.01267400
3732.24226685,0.01151203
3734.17107422,0.01109440
3736.09988159,0.01041617
3738.02868896,0.01122819
3739.95749634,0.01232241
3741.88630371,0.01294020
3743.81511108,0.00969916
3745.74391846,0.00902798
3747.67272583,0.01224383
3749.60153320,0.01029396
3751.53034058,0.00933725
3753.45914795,0.01104525
3755.38795532,0.01203031
3757.31676270,0.01251791
3759.24557007,0.01138611
3761.17437744,0.01195386
3763.10318481,0.01285363
3765.03199219,0.01180292
3766.96079956,0.01209766
3768.88960693,0.01193295
3770.81841431,0.01130918
3772.74722168,0.01246526
3774.67602905,0.01246683
3776.60483643,0.01248071
3778.53364380,0.01210301
3780.46245117,0.01146423
3782.39125854,0.01245213
3784.32006592,0.01214459
3786.24887329,0.01198217
3788.17768066,0.01231830
3790.10648804,0.01224426
3792.03529541,0.01219858
3793.96410278,0.01237376
3795.89291016,0.01152183
3797.82171753,0.01132619
3799.75052490,0.01202796
3801.67933228,0.00926048
3803.60813965,0.01104667
3805.53694702,0.01214574
3807.46575439,0.00960490
3809.39456177,0.01203721
3811.32336914,0.01174479
3813.25217651,0.01213827
3815.18098389,0.01083598
3817.10979126,0.00928634
3819.03859863,0.01217665
3820.96740601,0.00942314
3822.89621338,0.01012107
3824.82502075,0.01212322
3826.75382812,0.01067547
3828.68263550,0.01181111
3830.61144287,0.01121507
3832.54025024,0.01073983
3834.46905762,0.01109595
3836.39786499,0.01042943
3838.32667236,0.00929317
3840.25547974,0.01018041
3842.18428711,0.01107612
3844.11309448,0.01048137
3846.04190186,0.01154765
3847.97070923,0.01133014
3849.89951660,0.01129339
3851.82832397,0.01005515
3853.75713135,0.00712474
3855.68593872,0.00871270
3857.61474609,0.01134402
3859.54355347,0.01099163
3861.47236084,0.01084837
3863.40116821,0.01060371
3865.32997559,0.00964885
3867.25878296,0.01099991
3869.18759033,0.00996611
3871.11639770,0.00909817
3873.04520508,0.01121720
3874.97401245,0.01009000
3876.90281982,0.01101517
3878.83162720,0.01126072
3880.76043457,0.00926581
3882.68924194,0.01106844
3884.61804932,0.01026234
3886.54685669,0.00919691
3888.47566406,0.01111688
3890.40447144,0.01040394
3892.33327881,0.00964270
3894.26208618,0.01081002
3896.19089355,0.01102483
3898.11970093,0.01032522
3900.04850830,0.00960623
3901.97731567,0.00943767
3903.90612305,0.00942309
3905.83493042,0.00969241
3907.76373779,0.01070728
3909.69254517,0.01073039
3911.62135254,0.01056492
3913.55015991,0.01076948
3915.47896728,0.01044076
3917.40777466,0.00998871
3919.33658203,0.00991186
3921.26538940,0.01045295
3923.19419678,0.01034314
3925.12300415,0.01006056
3927.05181152,0.01025876
3928.98061890,0.01047591
3930.90942627,0.01016174
3932.83823364,0.00972977
3934.76704102,0.01036321
3936.69584839,0.01039167
3938.62465576,0.01030330
3940.55346313,0.01041567
3942.48227051,0.00986463
3944.41107788,0.01005349
3946.33988525,0.01026990
3948.26869263,0.00994667
3950.19750000,0.00987143
3952.12630737,0.01005979
3954.05511475,0.01017772
3955.98392212,0.01016468
3957.91272949,0.01009494
3959.84153687,0.01014993
3961.77034424,0.01013053
3963.69915161,0.01002805
3965.62795898,0.01011782
3967.55676636,0.00989757
3969.48557373,0.00995117
3971.41438110,0.01002056
3973.34318848,0.00983224
3975.27199585,0.00988493
3977.20080322,0.00987545
3979.12961060,0.00991985
3981.05841797,0.00981660
3982.98722534,0.00986628
3984.91603271,0.00983308
3986.84484009,0.00977127
3988.77364746,0.00978424
3990.70245483,0.00963753
3992.63126221,0.00976072
3994.56006958,0.00960535
3996.48887695,0.00964545
3998.41768433,0.00971179
4000.34649170,0.00961894
4002.27529907,0.00970237
4004.20410645,0.00961541
4006.13291382,0.00961741
4008.06172119,0.00947365
4009.99052856,0.00951302
4011.91933594,0.00948017
4013.84814331,0.00949480
4015.77695068,0.00958883
4017.70575806,0.00929126
4019.63456543,0.00936307
4021.56337280,0.00944950
4023.49218018,0.00944852
4025.42098755,0.00932054
4027.34979492,0.00930689
4029.27860229,0.00944639
4031.20740967,0.00926999
4033.13621704,0.00933169
4035.06502441,0.00929429
4036.99383179,0.00922680
4038.92263916,0.00923089
4040.85144653,0.00914764
4042.78025391,0.00914593
4044.70906128,0.00910941
4046.63786865,0.00915764
4048.56667603,0.00912599
4050.49548340,0.00909333
4052.42429077,0.00908101
4054.35309814,0.00906320
4056.28190552,0.00905359
4058.21071289,0.00895039
4060.13952026,0.00896942
4062.06832764,0.00909295
4063.99713501,0.00900370
4065.92594238,0.00887521
4067.85474976,0.00892301
4069.78355713,0.00885120
4071.71236450,0.00889391
4073.64117187,0.00888085
4075.56997925,0.00877598
4077.49878662,0.00883294
4079.42759399,0.00875186
4081.35640137,0.00874817
4083.28520874,0.00875604
4085.21401611,0.00875973
4087.14282349,0.00873535
4089.07163086,0.00864327
4091.00043823,0.00862107
4092.92924561,0.00862796
4094.85805298,0.00865756
4096.78686035,0.00856841
4098.71566772,0.00859036
4100.64447510,0.00857372
4102.57328247,0.00852047
4104.50208984,0.00852633
4106.43089722,0.00844976
4108.35970459,0.00843083
4110.28851196,0.00847103
4112.21731934,0.00849222
4114.14612671,0.00834379
4116.07493408,0.00844284
4118.00374145,0.00841449
4119.93254883,0.00829466
4121.86135620,0.00845666
4123.79016357,0.00829054
4125.71897095,0.00828165
4127.64777832,0.00827717
4129.57658569,0.00822069
4131.50539307,0.00830754
4133.43420044,0.00823145
4135.36300781,0.00819221
4137.29181519,0.00813127
4139.22062256,0.00820337
4141.14942993,0.00816391
4143.07823730,0.00811773
4145.00704468,0.00814637
4146.93585205,0.00806441
4148.86465942,0.00808699
4150.79346680,0.00803626
4152.72227417,0.00809536
4154.65108154,0.00804801
4156.57988892,0.00794995
4158.50869629,0.00799747
4160.43750366,0.00785887
4162.36631103,0.00784462
4164.29511841,0.00795248
4166.22392578,0.00795435
4168.15273315,0.00793582
4170.08154053,0.00785768
4172.01034790,0.00777761
4173.93915527,0.00787122
4175.86796265,0.00782411
4177.79677002,0.00769589
4179.72557739,0.00774952
4181.65438477,0.00770291
4183.58319214,0.00771672
4185.51199951,0.00776580
4187.44080688,0.00771443
4189.36961426,0.00770607
4191.29842163,0.00769081
4193.22722900,0.00764560
4195.15603638,0.00765157
4197.08484375,0.00762276
4199.01365112,0.00754504
4200.94245850,0.00754012
4202.87126587,0.00748044
4204.80007324,0.00752390
4206.72888062,0.00752823
4208.65768799,0.00743874
4210.58649536,0.00744268
4212.51530273,0.00742165
4214.44411011,0.00744722
4216.37291748,0.00742200
4218.30172485,0.00748346
4220.23053223,0.00735998
4222.15933960,0.00725803
4224.08814697,0.00741194
4226.01695435,0.00726879
4227.94576172,0.00733435
4229.87456909,0.00738783
4231.80337646,0.00726406
4233.73218384,0.00727040
4235.66099121,0.00721055
4237.58979858,0.00727462
4239.51860596,0.00727482
4241.44741333,0.00720170
4243.37622070,0.00711077
4245.30502808,0.00713514
4247.23383545,0.00719528
4249.16264282,0.00704465
4251.09145020,0.00706939
4253.02025757,0.00707290
4254.94906494,0.00701564
4256.87787231,0.00702048
4258.80667969,0.00693018
4260.73548706,0.00699364
4262.66429443,0.00699674
4264.59310181,0.00687173
4266.52190918,0.00696101
4268.45071655,0.00697866
4270.37952393,0.00689812
4272.30833130,0.00688307
4274.23713867,0.00685248
4276.16594604,0.00687630
4278.09475342,0.00685564
4280.02356079,0.00686727
4281.95236816,0.00684554
4283.88117554,0.00680193
4285.80998291,0.00681297
4287.73879028,0.00672069
4289.66759766,0.00675098
4291.59640503,0.00674915
4293.52521240,0.00672490
4295.45401978,0.00673843
4297.38282715,0.00666422
4299.31163452,0.00670834
4301.24044189,0.00671866
4303.16924927,0.00668673
4305.09805664,0.00663547
4307.02686401,0.00658014
4308.95567139,0.00661496
4310.88447876,0.00664100
4312.81328613,0.00659982
4314.74209351,0.00650386
4316.67090088,0.00644979
4318.59970825,0.00650682
4320.52851562,0.00659141
4322.45732300,0.00647789
4324.38613037,0.00642278
4326.31493774,0.00647946
4328.24374512,0.00645262
4330.17255249,0.00643256
4332.10135986,0.00639324
4334.03016724,0.00643585
4335.95897461,0.00639122
4337.88778198,0.00631691
4339.81658936,0.00629355
4341.74539673,0.00626287
4343.67420410,0.00631636
4345.60301147,0.00624826
4347.53181885,0.00622381
4349.46062622,0.00624913
4351.38943359,0.00617221
4353.31824097,0.00616492
4355.24704834,0.00621887
4357.17585571,0.00622902
4359.10466309,0.00627387
4361.03347046,0.00621842
4362.96227783,0.00606593
4364.89108520,0.00611269
4366.81989258,0.00615615
4368.74869995,0.00622251
4370.67750732,0.00615049
4372.60631470,0.00601731
4374.53512207,0.00606278
4376.46392944,0.00604612
4378.39273682,0.00609457
4380.32154419,0.00601777
4382.25035156,0.00598277
4384.17915894,0.00591748
4386.10796631,0.00588716
4388.03677368,0.00597253
4389.96558105,0.00582593
4391.89438843,0.00598131
4393.82319580,0.00594421
4395.75200317,0.00584749
4397.68081055,0.00597989
4399.60961792,0.00583537
4401.53842529,0.00584053
4403.46723267,0.00585067
4405.39604004,0.00579764
4407.32484741,0.00575946
4409.25365478,0.00579828
4411.18246216,0.00576645
4413.11126953,0.00573565
4415.04007690,0.00587153
4416.96888428,0.00571712
4418.89769165,0.00563050
4420.82649902,0.00565647
4422.75530640,0.00568129
4424.68411377,0.00566573
4426.61292114,0.00565711
4428.54172852,0.00572397
4430.47053589,0.00565265
4432.39934326,0.00567105
4434.32815063,0.00555886
4436.25695801,0.00554143
4438.18576538,0.00556304
4440.11457275,0.00551283
4442.04338013,0.00557700
4443.97218750,0.00547129
4445.90099487,0.00555760
4447.82980225,0.00558308
4449.75860962,0.00546139
4451.68741699,0.00543095
4453.61622437,0.00542659
4455.54503174,0.00540648
4457.47383911,0.00532761
4459.40264648,0.00544565
4461.33145386,0.00546444
4463.26026123,0.00537922
4465.18906860,0.00532473
4467.11787598,0.00536613
4469.04668335,0.00540862
4470.97549072,0.00531365
4472.90429810,0.00534756
4474.83310547,0.00533198
4476.76191284,0.00535471
4478.69072021,0.00535515
4480.61952759,0.00531200
4482.54833496,0.00527068
4484.47714233,0.00520425
4486.40594971,0.00525835
4488.33475708,0.00525392
4490.26356445,0.00524299
4492.19237183,0.00513833
4494.12117920,0.00518512
4496.04998657,0.00520089
4497.97879395,0.00507956
4499.90760132,0.00516611
4501.83640869,0.00507910
4503.76521606,0.00512717
4505.69402344,0.00516516
4507.62283081,0.00507377
4509.55163818,0.00510962
4511.48044556,0.00504013
4513.40925293,0.00505877
4515.33806030,0.00499172
4517.26686768,0.00491154
4519.19567505,0.00505700
4521.12448242,0.00511767
4523.05328979,0.00500924
4524.98209717,0.00500155
4526.91090454,0.00496878
4528.83971191,0.00484310
4530.76851929,0.00491334
4532.69732666,0.00490961
4534.62613403,0.00489825
4536.55494141,0.00496078
4538.48374878,0.00489721
4540.41255615,0.00477571
4542.34136353,0.00473701
4544.27017090,0.00483952
4546.19897827,0.00485403
4548.12778564,0.00482967
4550.05659302,0.00475486
4551.98540039,0.00476953
4553.91420776,0.00480792
4555.84301514,0.00467491
4557.77182251,0.00472705
4559.70062988,0.00470802
4561.62943726,0.00464166
4563.55824463,0.00469344
4565.48705200,0.00466975
4567.41585937,0.00470424
4569.34466675,0.00467403
4571.27347412,0.00460703
4573.20228149,0.00461615
4575.13108887,0.00464777
4577.05989624,0.00466865
4578.98870361,0.00459638
4580.91751099,0.00458751
4582.84631836,0.00460832
4584.77512573,0.00453384
4586.70393311,0.00451045
4588.63274048,0.00450303
4590.56154785,0.00453723
4592.49035522,0.00456444
4594.41916260,0.00451835
4596.34796997,0.00451028
4598.27677734,0.00445380
4600.20558472,0.00446919
4602.13439209,0.00445475
4604.06319946,0.00442362
4605.99200684,0.00449925
4607.92081421,0.00438473
4609.84962158,0.00433215
4611.77842895,0.00439744
4613.70723633,0.00437785
4615.63604370,0.00436318
4617.56485107,0.00437397
4619.49365845,0.00437768
4621.42246582,0.00437122
4623.35127319,0.00435764
4625.28008057,0.00428047
4627.20888794,0.00431904
4629.13769531,0.00431438
4631.06650269,0.00425434
4632.99531006,0.00431158
4634.92411743,0.00428888
4636.85292480,0.00425075
4638.78173218,0.00426021
4640.71053955,0.00429316
4642.63934692,0.00416776
4644.56815430,0.00413214
4646.49696167,0.00419040
4648.42576904,0.00412901
4650.35457642,0.00421574
4652.28338379,0.00416348
4654.21219116,0.00416436
4656.14099853,0.00422219
4658.06980591,0.00414059
4659.99861328,0.00415494
4661.92742065,0.00412322
4663.85622803,0.00408961
4665.78503540,0.00404736
4667.71384277,0.00411166
4669.64265015,0.00409874
4671.57145752,0.00406146
4673.50026489,0.00411513
4675.42907227,0.00397662
4677.35787964,0.00399370
4679.28668701,0.00399320
4681.21549438,0.00399307
4683.14430176,0.00405908
4685.07310913,0.00398589
4687.00191650,0.00397669
4688.93072388,0.00389831
4690.85953125,0.00389047
4692.78833862,0.00394722
4694.71714600,0.00396328
4696.64595337,0.00393233
4698.57476074,0.00384554
4700.50356812,0.00388282
4702.43237549,0.00390643
4704.36118286,0.00388771
4706.28999023,0.00384257
4708.21879761,0.00384218
4710.14760498,0.00388366
4712.07641235,0.00384448
4714.00521973,0.00384160
4715.93402710,0.00385576
4717.86283447,0.00378128
4719.79164185,0.00374780
4721.72044922,0.00381174
4723.64925659,0.00380522
4725.57806396,0.00383516
4727.50687134,0.00379461
4729.43567871,0.00369719
4731.36448608,0.00372392
4733.29329346,0.00366396
4735.22210083,0.00365566
4737.15090820,0.00365583
4739.07971558,0.00368191
4741.00852295,0.00374914
4742.93733032,0.00367182
4744.86613770,0.00364521
4746.79494507,0.00361358
4748.72375244,0.00363551
4750.65255981,0.00363416
4752.58136719,0.00355116
4754.51017456,0.00356538
4756.43898193,0.00356031
4758.36778931,0.00362670
4760.29659668,0.00363623
4762.22540405,0.00357678
4764.15421143,0.00357120
4766.08301880,0.00354394
4768.01182617,0.00357198
4769.94063354,0.00351777
4771.86944092,0.00352522
4773.79824829,0.00355008
4775.72705566,0.00343944
4777.65586304,0.00349763
4779.58467041,0.00350701
4781.51347778,0.00344623
4783.44228516,0.00346091
4785.37109253,0.00345512
4787.29989990,0.00352059
4789.22870728,0.00342156
4791.15751465,0.00333072
4793.08632202,0.00345403
4795.01512939,0.00343852
4796.94393677,0.00341820
4798.87274414,0.00343804
4800.80155151,0.00340228
4802.73035889,0.00341694
4804.65916626,0.00334940
4806.58797363,0.00330892
4808.51678101,0.00336535
4810.44558838,0.00332316
4812.37439575,0.00329527
4814.30320312,0.00331240
4816.23201050,0.00332244
4818.16081787,0.00332784
4820.08962524,0.00328650
4822.01843262,0.00329980
4823.94723999,0.00329995
4825.87604736,0.00330558
4827.80485474,0.00330858
4829.73366211,0.00320701
4831.66246948,0.00322329
4833.59127686,0.00327329
4835.52008423,0.00324831
4837.44889160,0.00324828
4839.37769897,0.00319993
4841.30650635,0.00315727
4843.23531372,0.00321354
4845.16412109,0.00325246
4847.09292847,0.00325389
4849.02173584,0.00326513
4850.95054321,0.00314778
4852.87935059,0.00312264
4854.80815796,0.00320900
4856.73696533,0.00313359
4858.66577270,0.00311880
4860.59458008,0.00316273
4862.52338745,0.00312795
4864.45219482,0.00306283
4866.38100220,0.00304331
4868.30980957,0.00304813
4870.23861694,0.00301044
4872.16742432,0.00303587
4874.09623169,0.00303412
4876.02503906,0.00297549
4877.95384644,0.00300793
4879.88265381,0.00306668
4881.81146118,0.00301365
4883.74026855,0.00300005
4885.66907593,0.00305835
4887.59788330,0.00303074
4889.52669067,0.00303145
4891.45549805,0.00300186
4893.38430542,0.00295052
4895.31311279,0.00298732
4897.24192017,0.00300111
4899.17072754,0.00294610
4901.09953491,0.00288918
4903.02834228,0.00290166
4904.95714966,0.00293654
4906.88595703,0.00296201
4908.81476440,0.00291780
4910.74357178,0.00287839
4912.67237915,0.00288690
4914.60118652,0.00284123
4916.52999390,0.00282238
4918.45880127,0.00290698
4920.38760864,0.00291750
4922.31641602,0.00280154
4924.24522339,0.00285146
4926.17403076,0.00283563
4928.10283813,0.00279754
4930.03164551,0.00283705
4931.96045288,0.00270901
4933.88926025,0.00276161
4935.81806763,0.00274315
4937.74687500,0.00271942
4939.67568237,0.00280837
4941.60448975,0.00270720
4943.53329712,0.00276903
4945.46210449,0.00276250
4947.39091187,0.00265701
4949.31971924,0.00270904
4951.24852661,0.00277129
4953.17733398,0.00272698
4955.10614136,0.00267235
4957.03494873,0.00269631
4958.96375610,0.00264879
4960.89256348,0.00269726
4962.82137085,0.00272223
4964.75017822,0.00270457
4966.67898560,0.00266483
4968.60779297,0.00257753
4970.53660034,0.00260591
4972.46540771,0.00255970
4974.39421509,0.00265193
4976.32302246,0.00269124
4978.25182983,0.00259930
4980.18063721,0.00264332
4982.10944458,0.00262730
4984.03825195,0.00261464
4985.96705933,0.00255772
4987.89586670,0.00256386
4989.82467407,0.00258524
4991.75348145,0.00256367
4993.68228882,0.00259083
4995.61109619,0.00257008
4997.53990356,0.00258008
4999.46871094,0.00251090
5001.39751831,0.00252867
5003.32632568,0.00257706
5005.25513306,0.00249082
5007.18394043,0.00250586
5009.11274780,0.00255070
5011.04155518,0.00252202
5012.97036255,0.00247698
5014.89916992,0.00250734
5016.82797729,0.00248402
5018.75678467,0.00250433
5020.68559204,0.00254865
5022.61439941,0.00240680
5024.54320679,0.00234900
5026.47201416,0.00238372
5028.40082153,0.00246736
5030.32962891,0.00250139
5032.25843628,0.00241044
5034.18724365,0.00240988
5036.11605103,0.00243957
5038.04485840,0.00240170
5039.97366577,0.00232193
5041.90247314,0.00230800
5043.83128052,0.00233848
5045.76008789,0.00237926
5047.68889526,0.00244503
5049.61770264,0.00239338
5051.54651001,0.00230899
5053.47531738,0.00235159
5055.40412476,0.00239975
5057.33293213,0.00232075
5059.26173950,0.00231178
5061.19054687,0.00239556
5063.11935425,0.00235559
5065.04816162,0.00230927
5066.97696899,0.00232217
5068.90577637,0.00229888
5070.83458374,0.00225080
5072.76339111,0.00225487
5074.69219849,0.00227992
5076.62100586,0.00226728
5078.54981323,0.00229360
5080.47862061,0.00226113
5082.40742798,0.00220645
5084.33623535,0.00223192
5086.26504272,0.00219832
5088.19385010,0.00219024
5090.12265747,0.00222684
5092.05146484,0.00223459
5093.98027222,0.00227088
5095.90907959,0.00228828
5097.83788696,0.00219015
5099.76669434,0.00213841
5101.69550171,0.00223194
5103.62430908,0.00217994
5105.55311645,0.00218652
5107.48192383,0.00221228
5109.41073120,0.00209083
5111.33953857,0.00218608
5113.26834595,0.00217555
5115.19715332,0.00212181
5117.12596069,0.00214670
5119.05476807,0.00208901
5120.98357544,0.00213688
5122.91238281,0.00207898
5124.84119019,0.00208460
5126.76999756,0.00208946
5128.69880493,0.00203054
5130.62761230,0.00212299
5132.55641968,0.00211124
5134.48522705,0.00209282
5136.41403442,0.00208159
5138.34284180,0.00207787
5140.27164917,0.00207187
5142.20045654,0.00204497
5144.12926392,0.00206023
5146.05807129,0.00202953
5147.98687866,0.00205639
5149.91568603,0.00202254
5151.84449341,0.00198849
5153.77330078,0.00198733
5155.70210815,0.00200911
5157.63091553,0.00207323
5159.55972290,0.00194760
5161.48853027,0.00195381
5163.41733765,0.00205208
5165.34614502,0.00195006
5167.27495239,0.00193165
5169.20375977,0.00201357
5171.13256714,0.00198401
5173.06137451,0.00191955
5174.99018188,0.00193064
5176.91898926,0.00195149
5178.84779663,0.00194921
5180.77660400,0.00190918
5182.70541138,0.00190461
5184.63421875,0.00189928
5186.56302612,0.00189450
5188.49183350,0.00190634
5190.42064087,0.00187121
5192.34944824,0.00193984
5194.27825562,0.00193813
5196.20706299,0.00187203
5198.13587036,0.00191230
5200.06467773,0.00187185
5201.99348511,0.00183914
5203.92229248,0.00188501
5205.85109985,0.00184812
5207.77990723,0.00180658
5209.70871460,0.00184130
5211.63752197,0.00183646
5213.56632935,0.00186266
5215.49513672,0.00185988
5217.42394409,0.00181499
5219.35275146,0.00180252
5221.28155884,0.00181643
5223.21036621,0.00190898
5225.13917358,0.00177723
5227.06798096,0.00168793
5228.99678833,0.00180786
5230.92559570,0.00178522
5232.85440308,0.00176483
5234.78321045,0.00178263
5236.71201782,0.00182072
5238.64082520,0.00177925
5240.56963257,0.00180610
5242.49843994,0.00182787
5244.42724731,0.00172845
5246.35605469,0.00179870
5248.28486206,0.00169130
5250.21366943,0.00169442
5252.14247681,0.00182155
5254.07128418,0.00168045
5256.00009155,0.00172901
5257.92889893,0.00175537
5259.85770630,0.00170062
5261.78651367,0.00172118
5263.71532104,0.00167645
5265.64412842,0.00167143
5267.57293579,0.00166407
5269.50174316,0.00168067
5271.43055054,0.00167746
5273.35935791,0.00168583
5275.28816528,0.00172101
5277.21697266,0.00166951
5279.14578003,0.00168896
5281.07458740,0.00171289
5283.00339478,0.00168208
5284.93220215,0.00165390
5286.86100952,0.00164425
5288.78981689,0.00168781
5290.71862427,0.00164104
5292.64743164,0.00165825
5294.57623901,0.00167153
5296.50504639,0.00157620
5298.43385376,0.00161705
5300.36266113,0.00158435
5302.29146851,0.00161307
5304.22027588,0.00171192
5306.14908325,0.00163032
5308.07789062,0.00162917
5310.00669800,0.00164502
5311.93550537,0.00158306
5313.86431274,0.00155357
5315.79312012,0.00161527
5317.72192749,0.00159244
5319.65073486,0.00158288
5321.57954224,0.00169144
5323.50834961,0.00158253
5325.43715698,0.00155462
5327.36596436,0.00159596
5329.29477173,0.00155114
5331.22357910,0.00155289
5333.15238647,0.00149435
5335.08119385,0.00153090
5337.01000122,0.00151997
5338.93880859,0.00145114
5340.86761597,0.00147438
5342.79642334,0.00144245
5344.72523071,0.00140472
5346.65403809,0.00149516
5348.58284546,0.00151122
5350.51165283,0.00143402
5352.44046020,0.00152732
5354.36926758,0.00147180
5356.29807495,0.00142530
5358.22688232,0.00151055
5360.15568970,0.00149432
5362.08449707,0.00152747
5364.01330444,0.00146349
5365.94211182,0.00148036
5367.87091919,0.00147639
5369.79972656,0.00140390
5371.72853394,0.00143389
5373.65734131,0.00141668
5375.58614868,0.00149322
5377.51495605,0.00144196
5379.44376343,0.00138489
5381.37257080,0.00143080
5383.30137817,0.00144254
5385.23018555,0.00146073
5387.15899292,0.00138802
5389.08780029,0.00143075
5391.01660767,0.00143440
5392.94541504,0.00138008
5394.87422241,0.00138294
5396.80302978,0.00139279
5398.73183716,0.00143042
5400.66064453,0.00136884
5402.58945190,0.00132515
5404.51825928,0.00130041
5406.44706665,0.00136298
5408.37587402,0.00137980
5410.30468140,0.00131552
5412.23348877,0.00133979
5414.16229614,0.00128575
5416.09110352,0.00134119
5418.01991089,0.00139833
5419.94871826,0.00136305
5421.87752563,0.00135374
5423.80633301,0.00133817
5425.73514038,0.00132551
5427.66394775,0.00124990
5429.59275513,0.00125894
5431.52156250,0.00126280
5433.45036987,0.00131554
5435.37917725,0.00130479
5437.30798462,0.00118664
5439.23679199,0.00130002
5441.16559936,0.00128836
5443.09440674,0.00125944
5445.02321411,0.00127140
5446.95202148,0.00123704
5448.88082886,0.00133681
5450.80963623,0.00122235
5452.73844360,0.00121388
5454.66725098,0.00129975
5456.59605835,0.00120613
5458.52486572,0.00129011
5460.45367310,0.00128732
5462.38248047,0.00120380
5464.31128784,0.00121894
5466.24009521,0.00123781
5468.16890259,0.00132539
5470.09770996,0.00126570
5472.02651733,0.00116616
5473.95532471,0.00118286
5475.88413208,0.00116260
5477.81293945,0.00120024
5479.74174683,0.00123106
5481.67055420,0.00120034
5483.59936157,0.00120527
5485.52816895,0.00121677
5487.45697632,0.00117742
5489.38578369,0.00114976
5491.31459106,0.00121378
5493.24339844,0.00117586
5495.17220581,0.00117019
5497.10101318,0.00125638
5499.02982056,0.00119356
5500.95862793,0.00119848
5502.88743530,0.00121010
5504.81624268,0.00118409
5506.74505005,0.00123088
5508.67385742,0.00117759
5510.60266479,0.00111348
5512.53147217,0.00111279
5514.46027954,0.00112864
5516.38908691,0.00110887
5518.31789429,0.00113974
5520.24670166,0.00119661
5522.17550903,0.00112242
5524.10431641,0.00108460
5526.03312378,0.00111082
5527.96193115,0.00117627
5529.89073853,0.00116625
5531.81954590,0.00109362
5533.74835327,0.00114236
5535.67716064,0.00116803
5537.60596802,0.00113272
5539.53477539,0.00103849
5541.46358276,0.00106818
5543.39239014,0.00113889
5545.32119751,0.00106245
5547.25000488,0.00110201
5549.17881226,0.00109999
5551.10761963,0.00108471
5553.03642700,0.00111149
5554.96523437,0.00108891
5556.89404175,0.00110673
5558.82284912,0.00104864
5560.75165649,0.00110000
5562.68046387,0.00109348
5564.60927124,0.00097789
5566.53807861,0.00106865
5568.46688599,0.00108241
5570.39569336,0.00106651
5572.32450073,0.00107304
5574.25330811,0.00099448
5576.18211548,0.00100763
5578.11092285,0.00100998
5580.03973022,0.00101207
5581.96853760,0.00107616
5583.89734497,0.00105966
5585.82615234,0.00102836
5587.75495972,0.00100294
5589.68376709,0.00100655
5591.61257446,0.00112025
5593.54138184,0.00109970
5595.47018921,0.00100747
5597.39899658,0.00103887
5599.32780395,0.00101310
5601.25661133,0.00100259
5603.18541870,0.00104229
5605.11422607,0.00104210
5607.04303345,0.00103464
5608.97184082,0.00104392
5610.90064819,0.00108058
5612.82945557,0.00102504
5614.75826294,0.00094438
5616.68707031,0.00096801
5618.61587769,0.00101617
5620.54468506,0.00098673
5622.47349243,0.00095771
5624.40229980,0.00099793
5626.33110718,0.00097108
5628.25991455,0.00097847
5630.18872192,0.00100633
5632.11752930,0.00099615
5634.04633667,0.00101284
5635.97514404,0.00094972
5637.90395142,0.00098131
5639.83275879,0.00103270
5641.76156616,0.00100051
5643.69037353,0.00103191
5645.61918091,0.00096285
5647.54798828,0.00094385
5649.47679565,0.00103996
5651.40560303,0.00102004
5653.33441040,0.00099293
5655.26321777,0.00099857
5657.19202515,0.00092610
5659.12083252,0.00090280
5661.04963989,0.00097039
5662.97844727,0.00094414
5664.90725464,0.00092002
5666.83606201,0.00092325
5668.76486938,0.00090238
5670.69367676,0.00094569
5672.62248413,0.00091701
5674.55129150,0.00084684
5676.48009888,0.00090190
5678.40890625,0.00097830
5680.33771362,0.00088030
5682.26652100,0.00082967
5684.19532837,0.00094092
5686.12413574,0.00090816
5688.05294311,0.00088521
5689.98175049,0.00092725
5691.91055786,0.00092339
5693.83936523,0.00091289
5695.76817261,0.00089199
5697.69697998,0.00091003
5699.62578735,0.00087554
5701.55459473,0.00090686
5703.48340210,0.00089632
5705.41220947,0.00082533
5707.34101685,0.00088766
5709.26982422,0.00087497
5711.19863159,0.00090645
5713.12743896,0.00086058
5715.05624634,0.00078571
5716.98505371,0.00090535
5718.91386108,0.00084002
5720.84266846,0.00079127
5722.77147583,0.00088580
5724.70028320,0.00087505
5726.62909058,0.00082566
5728.55789795,0.00079097
5730.48670532,0.00083230
5732.41551270,0.00086665
5734.34432007,0.00082399
5736.27312744,0.00081937
5738.20193481,0.00083948
5740.13074219,0.00085144
5742.05954956,0.00087584
5743.98835693,0.00082369
5745.91716431,0.00081784
5747.84597168,0.00082309
5749.77477905,0.00073370
5751.70358643,0.00080180
5753.63239380,0.00077934
5755.56120117,0.00073962
5757.49000854,0.00082656
5759.41881592,0.00072031
5761.34762329,0.00076265
5763.27643066,0.00080902
5765.20523804,0.00072258
5767.13404541,0.00079848
5769.06285278,0.00075246
5770.99166016,0.00071096
5772.92046753,0.00078468
5774.84927490,0.00076022
5776.77808228,0.00075344
5778.70688965,0.00077726
5780.63569702,0.00075064
5782.56450439,0.00075816
5784.49331177,0.00081138
5786.42211914,0.00079168
5788.35092651,0.00075240
5790.27973389,0.00072929
5792.20854126,0.00067865
5794.13734863,0.00071595
5796.06615601,0.00075317
5797.99496338,0.00069111
5799.92377075,0.00071354
5801.85257812,0.00067511
5803.78138550,0.00066174
5805.71019287,0.00082147
5807.63900024,0.00069596
5809.56780762,0.00066028
5811.49661499,0.00080971
5813.42542236,0.00067685
5815.35422974,0.00069712
5817.28303711,0.00073143
5819.21184448,0.00066584
5821.14065186,0.00073333
5823.06945923,0.00078003
5824.99826660,0.00077838
5826.92707397,0.00064989
5828.85588135,0.00068521
5830.78468872,0.00076203
5832.71349609,0.00069554
5834.64230347,0.00073665
5836.57111084,0.00064572
5838.49991821,0.00061898
5840.42872559,0.00069721
5842.35753296,0.00067332
5844.28634033,0.00072957
5846.21514770,0.00073560
5848.14395508,0.00071311
5850.07276245,0.00070211
5852.00156982,0.00061960
5853.93037720,0.00062489
5855.85918457,0.00071128
5857.78799194,0.00067373
5859.71679932,0.00062089
5861.64560669,0.00067378
5863.57441406,0.00068495
5865.50322144,0.00070408
5867.43202881,0.00065215
5869.36083618,0.00055909
5871.28964355,0.00060260
5873.21845093,0.00063455
5875.14725830,0.00065069
5877.07606567,0.00067846
5879.00487305,0.00065856
5880.93368042,0.00060865
5882.86248779,0.00063047
5884.79129517,0.00063761
5886.72010254,0.00057820
5888.64890991,0.00061283
5890.57771728,0.00063210
5892.50652466,0.00064641
5894.43533203,0.00061649
5896.36413940,0.00058521
5898.29294678,0.00065995
5900.22175415,0.00062913
5902.15056152,0.00059820
5904.07936890,0.00057523
5906.00817627,0.00058878
5907.93698364,0.00065658
5909.86579102,0.00060988
5911.79459839,0.00063121
5913.72340576,0.00063342
5915.65221313,0.00057334
5917.58102051,0.00056105
5919.50982788,0.00056873
5921.43863525,0.00063771
5923.36744263,0.00061464
5925.29625000,0.00058091
5927.22505737,0.00058382
5929.15386475,0.00054956
5931.08267212,0.00058720
5933.01147949,0.00056412
5934.94028686,0.00054133
5936.86909424,0.00057610
5938.79790161,0.00055242
5940.72670898,0.00058562
5942.65551636,0.00061428
5944.58432373,0.00059242
5946.51313110,0.00056125
5948.44193848,0.00054683
5950.37074585,0.00057474
5952.29955322,0.00054922
5954.22836060,0.00057165
5956.15716797,0.00058510
5958.08597534,0.00054833
5960.01478271,0.00058242
5961.94359009,0.00057965
5963.87239746,0.00062288
5965.80120483,0.00063774
5967.73001221,0.00056073
5969.65881958,0.00055323
5971.58762695,0.00052784
5973.51643433,0.00057000
5975.44524170,0.00063759
5977.37404907,0.00056426
5979.30285645,0.00056479
5981.23166382,0.00060540
5983.16047119,0.00053954
5985.08927856,0.00052466
5987.01808594,0.00050210
5988.94689331,0.00048294
5990.87570068,0.00054651
5992.80450806,0.00053914
5994.73331543,0.00057344
5996.66212280,0.00059889
5998.59093018,0.00051869
6000.51973755,0.00050497
