399.26312622,0.00088573
401.19193359,0.00051592
403.12074097,0.00047509
405.04954834,0.00071919
406.97835571,0.00045285
408.90716309,0.00116961
410.83597046,0.00090325
412.76477783,0.00056407
414.69358521,0.00095822
416.62239258,0.00089861
418.55119995,0.00081609
420.48000732,0.00079752
422.40881470,0.00101329
424.33762207,0.00088730
426.26642944,0.00097340
428.19523682,0.00095706
430.12404419,0.00069664
432.05285156,0.00110191
433.98165894,0.00110059
435.91046631,0.00078743
437.83927368,0.00092296
439.76808105,0.00107151
441.69688843,0.00061734
443.62569580,0.00070402
445.55450317,0.00106932
447.48331055,0.00071323
449.41211792,0.00082382
451.34092529,0.00080444
453.26973267,0.00053798
455.19854004,0.00069427
457.12734741,0.00088330
459.05615479,0.00067330
460.98496216,0.00092834
462.91376953,0.00119145
464.84257690,0.00001415
466.77138428,0.00006742
468.70019165,0.00049545
470.62899902,0.00012483
472.55780640,0.00049119
474.48661377,0.00039477
476.41542114,0.00040952
478.34422852,0.00029490
480.27303589,0.00019095
482.20184326,0.00033293
484.13065063,0.00032616
486.05945801,0.00068279
487.98826538,0.00041185
489.91707275,0.00041843
491.84588013,0.00055722
493.77468750,0.00001241
495.70349487,-0.00006229
497.63230225,0.00041589
499.56110962,0.00037332
501.48991699,0.00017951
503.41872437,0.00021956
505.34753174,-0.00006750
507.27633911,0.00010367
509.20514648,0.00000159
511.13395386,0.00004930
513.06276123,0.00034112
514.99156860,0.00004441
516.92037598,0.00026712
518.84918335,0.00030763
520.77799072,0.00015523
522.70679810,-0.00008795
524.63560547,0.00027789
526.56441284,0.00046953
528.49322021,-0.00003142
530.42202759,0.00043729
532.35083496,0.00014262
534.27964233,0.00001444
536.20844971,0.00042383
538.13725708,0.00020799
540.06606445,0.00005737
541.99487183,0.00002218
543.92367920,0.00043868
545.85248657,0.00024021
547.78129395,0.00016892
549.71010132,0.00049947
551.63890869,0.00032320
553.56771606,0.00028082
555.49652344,0.00019318
557.42533081,0.00046561
559.35413818,0.00053422
561.28294556,0.00005823
563.21175293,0.00019311
565.14056030,0.00001393
567.06936768,-0.00007721
568.99817505,0.00059634
570.92698242,0.00018451
572.85578979,-0.00009489
574.78459717,0.00012712
576.71340454,0.00015344
578.64221191,0.00061293
580.57101929,0.00030396
582.49982666,0.00015106
584.42863403,0.00040064
586.35744141,0.00029506
588.28624878,0.00027708
590.21505615,0.00016574
592.14386353,0.00034045
594.07267090,0.00003083
596.00147827,-0.00006631
597.93028564,0.00030263
599.85909302,0.00017109
601.78790039,0.00033339
603.71670776,0.00033921
605.64551514,0.00023572
607.57432251,0.00031544
609.50312988,0.00019064
611.43193726,-0.00004124
613.36074463,0.00024307
615.28955200,0.00067675
617.21835938,0.00025998
619.14716675,0.00014040
621.07597412,0.00033152
623.00478149,-0.00012946
624.93358887,-0.00018652
626.86239624,0.00018861
628.79120361,-0.00005155
630.72001099,0.00002438
632.64881836,0.00047441
634.57762573,0.00062479
636.50643311,0.00061611
638.43524048,0.00081792
640.36404785,0.00085382
642.29285522,0.00070570
644.22166260,0.00102978
646.15046997,0.00107613
648.07927734,0.00119737
650.00808472,0.00130724
651.93689209,0.00130980
653.86569946,0.00132516
655.79450684,0.00125251
657.72331421,0.00151712
659.65212158,0.00144419
661.58092896,0.00167404
663.50973633,0.00169816
665.43854370,0.00162673
667.36735107,0.00198713
669.29615845,0.00160910
671.22496582,0.00181684
673.15377319,0.00203476
675.08258057,0.00188144
677.01138794,0.00206103
678.94019531,0.00204506
680.86900269,0.00221172
682.79781006,0.00215132
684.72661743,0.00214876
686.65542480,0.00219281
688.58423218,0.00214412
690.51303955,0.00224898
692.44184692,0.00235440
694.37065430,0.00260023
696.29946167,0.00276549
698.22826904,0.00319549
700.15707642,0.00339227
702.08588379,0.00333755
704.01469116,0.00332308
705.94349854,0.00273753
707.87230591,0.00212573
709.80111328,0.00180400
711.72992065,0.00150790
713.65872803,0.00104291
715.58753540,0.00054878
717.51634277,0.00005868
719.44515015,0.00011144
721.37395752,0.00036511
723.30276489,-0.00001372
725.23157227,-0.00001976
727.16037964,-0.00020043
729.08918701,-0.00008983
731.01799438,0.00030754
732.94680176,-0.00026502
734.87560913,0.00006986
736.80441650,0.00039279
738.73322388,-0.00002508
740.66203125,0.00016315
742.59083862,0.00005137
744.51964600,0.00010373
746.44845337,0.00021098
748.37726074,-0.00003819
750.30606812,0.00003713
752.23487549,0.00009842
754.16368286,0.00010839
756.09249023,0.00018723
758.02129761,0.00020523
759.95010498,-0.00012635
761.87891235,-0.00018647
763.80771973,0.00025977
765.73652710,0.00037908
767.66533447,0.00012815
769.59414185,0.00008094
771.52294922,0.00043715
773.45175659,0.00008355
775.38056396,-0.00000704
777.30937134,0.00065817
779.23817871,0.00033590
781.16698608,0.00008615
783.09579346,0.00029754
785.02460083,0.00037515
786.95340820,0.00029266
788.88221558,-0.00003394
790.81102295,0.00006324
792.73983032,0.00008254
794.66863770,0.00000772
796.59744507,0.00022974
798.52625244,0.00052596
800.45505981,0.00052907
802.38386719,0.00030527
804.31267456,0.00050029
806.24148193,0.00031748
808.17028931,0.00007536
810.09909668,0.00022234
812.02790405,0.00018274
813.95671143,0.00033263
815.88551880,0.00028280
817.81432617,0.00006840
819.74313354,0.00003286
821.67194092,0.00030521
823.60074829,0.00046412
825.52955566,0.00039312
827.45836304,0.00062095
829.38717041,0.00037305
831.31597778,0.00025952
833.24478516,0.00066007
835.17359253,0.00068883
837.10239990,0.00065206
839.03120728,0.00072661
840.96001465,0.00077196
842.88882202,0.00080751
844.81762939,0.00077593
846.74643677,0.00067957
848.67524414,0.00067069
850.60405151,0.00063633
852.53285889,0.00059964
854.46166626,0.00050582
856.39047363,0.00042684
858.31928101,0.00034272
860.24808838,0.00032008
862.17689575,0.00060373
864.10570313,0.00037766
866.03451050,0.00031358
867.96331787,0.00036249
869.89212524,-0.00001503
871.82093262,0.00044258
873.74973999,0.00067837
875.67854736,0.00015376
877.60735474,0.00004601
879.53616211,0.00029775
881.46496948,0.00040726
883.39377686,0.00033489
885.32258423,0.00027425
887.25139160,0.00020977
889.18019897,0.00051876
891.10900635,0.00046794
893.03781372,0.00008743
894.96662109,0.00019246
896.89542847,0.00029510
898.82423584,0.00045066
900.75304321,0.00035067
902.68185059,0.00043288
904.61065796,0.00067280
906.53946533,0.00026211
908.46827271,0.00035071
910.39708008,0.00051149
912.32588745,0.00032203
914.25469482,0.00041168
916.18350220,0.00036866
918.11230957,0.00057386
920.04111694,0.00079298
921.96992432,0.00065160
923.89873169,0.00083424
925.82753906,0.00084327
927.75634644,0.00076799
929.68515381,0.00096558
931.61396118,0.00098070
933.54276855,0.00100952
935.47157593,0.00095748
937.40038330,0.00105081
939.32919067,0.00102213
941.25799805,0.00115444
943.18680542,0.00170707
945.11561279,0.00137580
947.04442017,0.00103679
948.97322754,0.00115920
950.90203491,0.00125478
952.83084229,0.00140756
954.75964966,0.00118098
956.68845703,0.00106478
958.61726440,0.00131146
960.54607178,0.00148654
962.47487915,0.00147218
964.40368652,0.00142438
966.33249390,0.00129714
968.26130127,0.00142382
970.19010864,0.00150424
972.11891602,0.00131766
974.04772339,0.00157299
975.97653076,0.00148691
977.90533813,0.00166205
979.83414551,0.00211619
981.76295288,0.00212288
983.69176025,0.00247101
985.62056763,0.00246206
987.54937500,0.00263539
989.47818237,0.00313760
991.40698975,0.00342502
993.33579712,0.00384523
995.26460449,0.00403430
997.19341187,0.00434811
999.12221924,0.00481602
1001.05102661,0.00519784
1002.97983398,0.00541947
1004.90864136,0.00595201
1006.83744873,0.00642418
1008.76625610,0.00647613
1010.69506348,0.00717508
1012.62387085,0.00759627
1014.55267822,0.00778635
1016.48148560,0.00820188
1018.41029297,0.00828701
1020.33910034,0.00880267
1022.26790771,0.00941528
1024.19671509,0.00977452
1026.12552246,0.01007413
1028.05432983,0.01038226
1029.98313721,0.01076003
1031.91194458,0.01074681
1033.84075195,0.01088156
1035.76955933,0.01121017
1037.69836670,0.01124697
1039.62717407,0.01151231
1041.55598145,0.01166955
1043.48478882,0.01152420
1045.41359619,0.01136724
1047.34240356,0.01107568
1049.27121094,0.01097378
1051.20001831,0.01080027
1053.12882568,0.01058055
1055.05763306,0.01053086
1056.98644043,0.01016975
1058.91524780,0.00980189
1060.84405518,0.00958996
1062.77286255,0.00949061
1064.70166992,0.00922010
1066.63047729,0.00848540
1068.55928467,0.00820454
1070.48809204,0.00821923
1072.41689941,0.00775860
1074.34570679,0.00725566
1076.27451416,0.00689322
1078.20332153,0.00676494
1080.13212891,0.00655959
1082.06093628,0.00611054
1083.98974365,0.00593381
1085.91855103,0.00551977
1087.84735840,0.00516328
1089.77616577,0.00501516
1091.70497314,0.00480770
1093.63378052,0.00492678
1095.56258789,0.00451130
1097.49139526,0.00425942
1099.42020264,0.00441895
1101.34901001,0.00415865
1103.27781738,0.00405969
1105.20662476,0.00390918
1107.13543213,0.00399388
1109.06423950,0.00400908
1110.99304687,0.00386024
1112.92185425,0.00405032
1114.85066162,0.00388281
1116.77946899,0.00372701
1118.70827637,0.00375115
1120.63708374,0.00387289
1122.56589111,0.00391963
1124.49469849,0.00372192
1126.42350586,0.00394875
1128.35231323,0.00414134
1130.28112061,0.00413753
1132.20992798,0.00446164
1134.13873535,0.00451168
1136.06754272,0.00454352
1137.99635010,0.00500656
1139.92515747,0.00511492
1141.85396484,0.00541834
1143.78277222,0.00579857
1145.71157959,0.00589925
1147.64038696,0.00651448
1149.56919434,0.00677066
1151.49800171,0.00705949
1153.42680908,0.00760016
1155.35561646,0.00769462
1157.28442383,0.00823464
1159.21323120,0.00856069
1161.14203857,0.00854073
1163.07084595,0.00893779
1164.99965332,0.00931512
1166.92846069,0.00978798
1168.85726807,0.01020582
1170.78607544,0.01050922
1172.71488281,0.01100773
1174.64369019,0.01135164
1176.57249756,0.01166432
1178.50130493,0.01208982
1180.43011230,0.01262755
1182.35891968,0.01322372
1184.28772705,0.01356021
1186.21653442,0.01423624
1188.14534180,0.01502682
1190.07414917,0.01563833
1192.00295654,0.01643847
1193.93176392,0.01703647
1195.86057129,0.01785350
1197.78937866,0.01873634
1199.71818604,0.01946474
1201.64699341,0.02029214
1203.57580078,0.02117293
1205.50460815,0.02215685
1207.43341553,0.02268723
1209.36222290,0.02339471
1211.29103027,0.02426662
1213.21983765,0.02492830
1215.14864502,0.02564649
1217.07745239,0.02595138
1219.00625977,0.02649631
1220.93506714,0.02709801
1222.86387451,0.02728355
1224.79268188,0.02738781
1226.72148926,0.02776127
1228.65029663,0.02827541
1230.57910400,0.02806365
1232.50791138,0.02807608
1234.43671875,0.02840522
1236.36552612,0.02834949
1238.29433350,0.02833182
1240.22314087,0.02830746
1242.15194824,0.02821624
1244.08075562,0.02789222
1246.00956299,0.02777427
1247.93837036,0.02763752
1249.86717773,0.02734324
1251.79598511,0.02742869
1253.72479248,0.02713210
1255.65359985,0.02670101
1257.58240723,0.02645255
1259.51121460,0.02604762
1261.44002197,0.02574643
1263.36882935,0.02543828
1265.29763672,0.02510469
1267.22644409,0.02475054
1269.15525146,0.02438388
1271.08405884,0.02410509
1273.01286621,0.02376392
1274.94167358,0.02333719
1276.87048096,0.02284148
1278.79928833,0.02227951
1280.72809570,0.02193091
1282.65690308,0.02167808
1284.58571045,0.02118987
1286.51451782,0.02073727
1288.44332520,0.02030092
1290.37213257,0.02006540
1292.30093994,0.02004644
1294.22974731,0.01979053
1296.15855469,0.01974173
1298.08736206,0.01970936
1300.01616943,0.01954348
1301.94497681,0.01968795
1303.87378418,0.02000629
1305.80259155,0.02034523
1307.73139893,0.02043585
1309.66020630,0.02081122
1311.58901367,0.02127321
1313.51782104,0.02151006
1315.44662842,0.02220459
1317.37543579,0.02252626
1319.30424316,0.02298029
1321.23305054,0.02402527
1323.16185791,0.02462384
1325.09066528,0.02526663
1327.01947266,0.02615060
1328.94828003,0.02683575
1330.87708740,0.02714892
1332.80589478,0.02782379
1334.73470215,0.02872686
1336.66350952,0.02876766
1338.59231689,0.02822702
1340.52112427,0.02861104
1342.44993164,0.03021803
1344.37873901,0.03039705
1346.30754639,0.03022553
1348.23635376,0.03052643
1350.16516113,0.03002935
1352.09396851,0.03021649
1354.02277588,0.02970424
1355.95158325,0.02920654
1357.88039062,0.02933842
1359.80919800,0.02868081
1361.73800537,0.02736063
1363.66681274,0.02673259
1365.59562012,0.02850318
1367.52442749,0.02808577
1369.45323486,0.02752073
1371.38204224,0.02814073
1373.31084961,0.02618051
1375.23965698,0.02656077
1377.16846436,0.02758117
1379.09727173,0.02743013
1381.02607910,0.02755403
1382.95488647,0.02744283
1384.88369385,0.02745830
1386.81250122,0.02582220
1388.74130859,0.02625827
1390.67011597,0.02894652
1392.59892334,0.02806665
1394.52773071,0.02579522
1396.45653809,0.02738791
1398.38534546,0.02738461
1400.31415283,0.02679113
1402.24296021,0.02951837
1404.17176758,0.02782247
1406.10057495,0.02813995
1408.02938232,0.02941038
1409.95818970,0.02790848
1411.88699707,0.02879315
1413.81580444,0.02767471
1415.74461182,0.02832710
1417.67341919,0.02511888
1419.60222656,0.02213659
1421.53103394,0.02629533
1423.45984131,0.02514185
1425.38864868,0.02457542
1427.31745605,0.02510779
1429.24626343,0.02306596
1431.17507080,0.02253808
1433.10387817,0.02288821
1435.03268555,0.02068172
1436.96149292,0.01690226
1438.89030029,0.01996675
1440.81910767,0.02088672
1442.74791504,0.01914378
1444.67672241,0.02037974
1446.60552979,0.01836885
1448.53433716,0.01864223
1450.46314453,0.01952825
1452.39195190,0.01986201
1454.32075928,0.02057778
1456.24956665,0.01633048
1458.17837402,0.01697212
1460.10718140,0.02362075
1462.03598877,0.02516736
1463.96479614,0.02463835
1465.89360352,0.02556735
1467.82241089,0.02956891
1469.75121826,0.03185631
1471.68002563,0.02727798
1473.60883301,0.02880812
1475.53764038,0.03338183
1477.46644775,0.03615094
1479.39525513,0.04027225
1481.32406250,0.04035399
1483.25286987,0.04311214
1485.18167725,0.04442984
1487.11048462,0.04315530
1489.03929199,0.04250654
1490.96809937,0.04236046
1492.89690674,0.05094896
1494.82571411,0.04944216
1496.75452148,0.04320316
1498.68332886,0.04979352
1500.61213623,0.05139238
1502.54094360,0.05576707
1504.46975098,0.05220908
1506.39855835,0.03540251
1508.32736572,0.04469341
1510.25617310,0.05420101
1512.18498047,0.05237988
1514.11378784,0.05748552
1516.04259521,0.05070119
1517.97140259,0.05289540
1519.90020996,0.05121327
1521.82901733,0.04289962
1523.75782471,0.05444153
1525.68663208,0.05356623
1527.61543945,0.05305801
1529.54424683,0.06020415
1531.47305420,0.05741311
1533.40186157,0.05137298
1535.33066895,0.05523312
1537.25947632,0.05997515
1539.18828369,0.04050133
1541.11709106,0.04246926
1543.04589844,0.05254477
1544.97470581,0.05015792
1546.90351318,0.06142167
1548.83232056,0.05647655
1550.76112793,0.05844091
1552.68993530,0.05843036
1554.61874268,0.05193650
1556.54755005,0.05633742
1558.47635742,0.03701601
1560.40516479,0.04070005
1562.33397217,0.06208650
1564.26277954,0.05787646
1566.19158691,0.06008668
1568.12039429,0.05936634
1570.04920166,0.05123615
1571.97800903,0.06097697
1573.90681641,0.06187989
1575.83562378,0.04709356
1577.76443115,0.05455041
1579.69323853,0.06290592
1581.62204590,0.05973156
1583.55085327,0.06165040
1585.47966064,0.06072227
1587.40846802,0.06109042
1589.33727539,0.06063374
1591.26608276,0.06061296
1593.19489014,0.06079508
1595.12369751,0.06006828
1597.05250488,0.06086750
1598.98131226,0.06058887
1600.91011963,0.06106094
1602.83892700,0.05959307
1604.76773437,0.06089542
1606.69654175,0.05996942
1608.62534912,0.05977907
1610.55415649,0.05977757
1612.48296387,0.06008559
1614.41177124,0.06123854
1616.34057861,0.04840020
1618.26938599,0.05316824
1620.19819336,0.06372228
1622.12700073,0.05499390
1624.05580811,0.05535652
1625.98461548,0.05877442
1627.91342285,0.05812736
1629.84223022,0.05812326
1631.77103760,0.06267868
1633.69984497,0.05713532
1635.62865234,0.04529463
1637.55745972,0.05401090
1639.48626709,0.06096585
1641.41507446,0.05915568
1643.34388184,0.06108340
1645.27268921,0.05405679
1647.20149658,0.04582887
1649.13030396,0.05958155
1651.05911133,0.05660728
1652.98791870,0.03321174
1654.91672607,0.04762745
1656.84553345,0.06262626
1658.77434082,0.05984218
1660.70314819,0.06141514
1662.63195557,0.05488830
1664.56076294,0.05847197
1666.48957031,0.06380276
1668.41837769,0.05405246
1670.34718506,0.05213311
1672.27599243,0.06099933
1674.20479980,0.05527338
1676.13360718,0.05268306
1678.06241455,0.06252284
1679.99122192,0.05966897
1681.92002930,0.05866000
1683.84883667,0.04590437
1685.77764404,0.04562154
1687.70645142,0.06607208
1689.63525879,0.05592660
1691.56406616,0.06273785
1693.49287354,0.06413861
1695.42168091,0.04407284
1697.35048828,0.05673898
1699.27929565,0.04862247
1701.20810303,0.04286548
1703.13691040,0.06207934
1705.06571777,0.05585831
1706.99452515,0.05649672
1708.92333252,0.06258279
1710.85213989,0.05988831
1712.78094727,0.06089377
1714.70975464,0.05530591
1716.63856201,0.04901598
1718.56736938,0.04829566
1720.49617676,0.05893342
1722.42498413,0.06194694
1724.35379150,0.05658017
1726.28259888,0.06263122
1728.21140625,0.05739332
1730.14021362,0.05762580
1732.06902100,0.05608923
1733.99782837,0.04026932
1735.92663574,0.05262463
1737.85544312,0.05943994
1739.78425049,0.05149798
1741.71305786,0.05696701
1743.64186523,0.05777621
1745.57067261,0.05786476
1747.49947998,0.05833983
1749.42828735,0.05523244
1751.35709473,0.05237881
1753.28590210,0.05924431
1755.21470947,0.06249862
1757.14351685,0.05577511
1759.07232422,0.06272478
1761.00113159,0.05824036
1762.92993896,0.05565991
1764.85874634,0.06565128
1766.78755371,0.05784603
1768.71636108,0.05837632
1770.64516846,0.05788235
1772.57397583,0.05101134
1774.50278320,0.05825694
1776.43159058,0.06207947
1778.36039795,0.06122125
1780.28920532,0.06014735
1782.21801270,0.06081305
1784.14682007,0.06070604
1786.07562744,0.05918607
1788.00443481,0.06296416
1789.93324219,0.06088675
1791.86204956,0.05403271
1793.79085693,0.05694410
1795.71966431,0.06198221
1797.64847168,0.06100181
1799.57727905,0.05970775
1801.50608643,0.05838528
1803.43489380,0.06090257
1805.36370117,0.06285937
1807.29250854,0.06166556
1809.22131592,0.06165982
1811.15012329,0.05961961
1813.07893066,0.06203811
1815.00773804,0.06256716
1816.93654541,0.06148125
1818.86535278,0.06223169
1820.79416016,0.06217820
1822.72296753,0.06317517
1824.65177490,0.05802270
1826.58058228,0.06052622
1828.50938965,0.06056788
1830.43819702,0.05595301
1832.36700439,0.06243075
1834.29581177,0.06188215
1836.22461914,0.06167361
1838.15342651,0.06149660
1840.08223389,0.06185549
1842.01104126,0.06220620
1843.93984863,0.05375639
1845.86865601,0.05800866
1847.79746338,0.06197854
1849.72627075,0.06040934
1851.65507812,0.06263541
1853.58388550,0.06115381
1855.51269287,0.06200831
1857.44150024,0.06136425
1859.37030762,0.06094958
1861.29911499,0.06163514
1863.22792236,0.06074586
1865.15672974,0.06163116
1867.08553711,0.05906857
1869.01434448,0.05616644
1870.94315186,0.05890846
1872.87195923,0.06155533
1874.80076660,0.06054495
1876.72957397,0.06107938
1878.65838135,0.06074718
1880.58718872,0.06020147
1882.51599609,0.06097223
1884.44480347,0.05976637
1886.37361084,0.06088077
1888.30241821,0.05930234
1890.23122559,0.05775832
1892.16003296,0.06045713
1894.08884033,0.05941387
1896.01764771,0.05920771
1897.94645508,0.06021431
1899.87526245,0.05990815
1901.80406982,0.05994017
1903.73287720,0.05940659
1905.66168457,0.05983922
1907.59049194,0.05901885
1909.51929932,0.05864200
1911.44810669,0.05916009
1913.37691406,0.05908812
1915.30572144,0.05974105
1917.23452881,0.05668912
1919.16333618,0.05689791
1921.09214355,0.05951900
1923.02095093,0.05711013
1924.94975830,0.05858127
1926.87856567,0.05940595
1928.80737305,0.05850103
1930.73618042,0.05943941
1932.66498779,0.05849203
1934.59379517,0.05910725
1936.52260254,0.05857041
1938.45140991,0.05879028
1940.38021729,0.05877884
1942.30902466,0.05647871
1944.23783203,0.05785418
1946.16663940,0.05858960
1948.09544678,0.05827584
1950.02425415,0.05847601
1951.95306152,0.05838433
1953.88186890,0.05858655
1955.81067627,0.05828931
1957.73948364,0.05850175
1959.66829102,0.05840935
1961.59709839,0.05829111
1963.52590576,0.05840777
1965.45471313,0.05795344
1967.38352051,0.05723856
1969.31232788,0.05786245
1971.24113525,0.05846919
1973.16994263,0.05799820
1975.09875000,0.05835853
1977.02755737,0.05797125
1978.95636475,0.05795363
1980.88517212,0.05793448
1982.81397949,0.05764911
1984.74278687,0.05788844
1986.67159424,0.05718078
1988.60040161,0.05763476
1990.52920898,0.05700237
1992.45801636,0.05601698
1994.38682373,0.05715518
1996.31563110,0.05717378
1998.24443848,0.05695794
2000.17324585,0.05703095
2002.10205322,0.05687824
2004.03086060,0.05701202
2005.95966797,0.05660258
2007.88847534,0.05651169
2009.81728271,0.05679083
2011.74609009,0.05640475
2013.67489746,0.05641897
2015.60370483,0.05594253
2017.53251221,0.05531132
2019.46131958,0.05596124
2021.39012695,0.05590995
2023.31893433,0.05565963
2025.24774170,0.05563918
2027.17654907,0.05560670
2029.10535645,0.05552356
2031.03416382,0.05518829
2032.96297119,0.05534960
2034.89177856,0.05509006
2036.82058594,0.05517266
2038.74939331,0.05516445
2040.67820068,0.05451570
2042.60700806,0.05447139
2044.53581543,0.05458817
2046.46462280,0.05468143
2048.39343018,0.05436835
2050.32223755,0.05417641
2052.25104492,0.05426937
2054.17985229,0.05418799
2056.10865967,0.05402088
2058.03746704,0.05381741
2059.96627441,0.05376774
2061.89508179,0.05369537
2063.82388916,0.05346963
2065.75269653,0.05313303
2067.68150391,0.05329765
2069.61031128,0.05327396
2071.53911865,0.05313778
2073.46792603,0.05323792
2075.39673340,0.05295979
2077.32554077,0.05285535
2079.25434814,0.05274577
2081.18315552,0.05285880
2083.11196289,0.05273486
2085.04077026,0.05239112
2086.96957764,0.05243739
2088.89838501,0.05236338
2090.82719238,0.05230146
2092.75599976,0.05215696
2094.68480713,0.05215683
2096.61361450,0.05201988
2098.54242187,0.05193364
2100.47122925,0.05193060
2102.40003662,0.05177722
2104.32884399,0.05179165
2106.25765137,0.05154510
2108.18645874,0.05147706
2110.11526611,0.05156319
2112.04407349,0.05163830
2113.97288086,0.05134412
2115.90168823,0.05106457
2117.83049561,0.05128360
2119.75930298,0.05108262
2121.68811035,0.05090858
2123.61691772,0.05095247
2125.54572510,0.05099047
2127.47453247,0.05083854
2129.40333984,0.05084278
2131.33214722,0.05084881
2133.26095459,0.05059024
2135.18976196,0.05060335
2137.11856934,0.05038724
2139.04737671,0.05041574
2140.97618408,0.05048216
2142.90499146,0.05034642
2144.83379883,0.05026474
2146.76260620,0.05018364
2148.69141357,0.05018963
2150.62022095,0.04995454
2152.54902832,0.05002211
2154.47783569,0.05003129
2156.40664307,0.04998156
2158.33545044,0.04983253
2160.26425781,0.04975510
2162.19306519,0.04990634
2164.12187256,0.04959796
2166.05067993,0.04965940
2167.97948730,0.04961153
2169.90829468,0.04953970
2171.83710205,0.04956350
2173.76590942,0.04935858
2175.69471680,0.04931533
2177.62352417,0.04923032
2179.55233154,0.04932114
2181.48113892,0.04912801
2183.40994629,0.04929086
2185.33875366,0.04933617
2187.26756104,0.04896875
2189.19636841,0.04900350
2191.12517578,0.04881755
2193.05398315,0.04892208
2194.98279053,0.04888730
2196.91159790,0.04876943
2198.84040527,0.04877486
2200.76921265,0.04862645
2202.69802002,0.04870122
2204.62682739,0.04857842
2206.55563477,0.04850274
2208.48444214,0.04850722
2210.41324951,0.04849835
2212.34205688,0.04830998
2214.27086426,0.04820211
2216.19967163,0.04835793
2218.12847900,0.04825820
2220.05728638,0.04811710
2221.98609375,0.04807658
2223.91490112,0.04807378
2225.84370850,0.04789054
2227.77251587,0.04785857
2229.70132324,0.04788341
2231.63013062,0.04771554
2233.55893799,0.04763038
2235.48774536,0.04767355
2237.41655273,0.04765669
2239.34536011,0.04742159
2241.27416748,0.04745407
2243.20297485,0.04731265
2245.13178223,0.04718400
2247.06058960,0.04709334
2248.98939697,0.04692005
2250.91820435,0.04720232
2252.84701172,0.04712687
2254.77581909,0.04698806
2256.70462646,0.04689940
2258.63343384,0.04676136
2260.56224121,0.04671471
2262.49104858,0.04667102
2264.41985596,0.04668810
2266.34866333,0.04654083
2268.27747070,0.04652241
2270.20627808,0.04629906
2272.13508545,0.04640317
2274.06389282,0.04648834
2275.99270020,0.04619850
2277.92150757,0.04627781
2279.85031494,0.04617531
2281.77912231,0.04624384
2283.70792969,0.04624284
2285.63673706,0.04606499
2287.56554443,0.04593597
2289.49435181,0.04587035
2291.42315918,0.04588848
2293.35196655,0.04561815
2295.28077393,0.04548260
2297.20958130,0.04530006
2299.13838867,0.04532205
2301.06719604,0.04520722
2302.99600342,0.04483903
2304.92481079,0.04472217
2306.85361816,0.04441058
2308.78242554,0.04417419
2310.71123291,0.04377295
2312.64004028,0.04334097
2314.56884766,0.04303624
2316.49765503,0.04252520
2318.42646240,0.04195117
2320.35526978,0.04158999
2322.28407715,0.04115095
2324.21288452,0.04039021
2326.14169189,0.04005729
2328.07049927,0.03972859
2329.99930664,0.03927200
2331.92811401,0.03896189
2333.85692139,0.03875221
2335.78572876,0.03862305
2337.71453613,0.03856193
2339.64334351,0.03862438
2341.57215088,0.03858012
2343.50095825,0.03910074
2345.42976562,0.03984639
2347.35857300,0.04138087
2349.28738037,0.04264356
2351.21618774,0.04126454
2353.14499512,0.03942662
2355.07380249,0.03804541
2357.00260986,0.03693133
2358.93141724,0.03626151
2360.86022461,0.03587653
2362.78903198,0.03586908
2364.71783936,0.03587726
2366.64664673,0.03635278
2368.57545410,0.03704639
2370.50426147,0.03793009
2372.43306885,0.03892127
2374.36187622,0.03988871
2376.29068359,0.04088214
2378.21949097,0.04170210
2380.14829834,0.04244248
2382.07710571,0.04276051
2384.00591309,0.04301780
2385.93472046,0.04310843
2387.86352783,0.04316297
2389.79233521,0.04321117
2391.72114258,0.04310659
2393.64994995,0.04315457
2395.57875732,0.04294431
2397.50756470,0.04295104
2399.43637207,0.04294370
2401.36517944,0.04284886
2403.29398682,0.04281841
2405.22279419,0.04267994
2407.15160156,0.04273512
2409.08040894,0.04261868
2411.00921631,0.04250894
2412.93802368,0.04247631
2414.86683105,0.04249213
2416.79563843,0.04237338
2418.72444580,0.04232604
2420.65325317,0.04234391
2422.58206055,0.04215593
2424.51086792,0.04223908
2426.43967529,0.04208801
2428.36848267,0.04202832
2430.29729004,0.04197494
2432.22609741,0.04186575
2434.15490479,0.04196695
2436.08371216,0.04172466
2438.01251953,0.04182790
2439.94132690,0.04185572
2441.87013428,0.04165205
2443.79894165,0.04165243
2445.72774902,0.04159099
2447.65655640,0.04163213
2449.58536377,0.04158234
2451.51417114,0.04146061
2453.44297852,0.04139598
2455.37178589,0.04136032
2457.30059326,0.04127517
2459.22940063,0.04125544
2461.15820801,0.04116799
2463.08701538,0.04107515
2465.01582275,0.04106012
2466.94463013,0.04092666
2468.87343750,0.04097461
2470.80224487,0.04094537
2472.73105225,0.04095037
2474.65985962,0.04083762
2476.58866699,0.04071960
2478.51747437,0.04088521
2480.44628174,0.04066190
2482.37508911,0.04059188
2484.30389648,0.04064112
2486.23270386,0.04051901
2488.16151123,0.04048319
2490.09031860,0.04038663
2492.01912598,0.04037222
2493.94793335,0.04038730
2495.87674072,0.04032763
2497.80554810,0.04016112
2499.73435547,0.04007176
2501.66316284,0.04007279
2503.59197021,0.04012966
2505.52077759,0.04009335
2507.44958496,0.03989194
2509.37839233,0.03985687
2511.30719971,0.03983821
2513.23600708,0.03983027
2515.16481445,0.03979657
2517.09362183,0.03975303
2519.02242920,0.03972585
2520.95123657,0.03954144
2522.88004395,0.03943254
2524.80885132,0.03956550
2526.73765869,0.03964591
2528.66646606,0.03942452
2530.59527344,0.03935400
2532.52408081,0.03935926
2534.45288818,0.03927137
2536.38169556,0.03934006
2538.31050293,0.03921594
2540.23931030,0.03898858
2542.16811768,0.03909667
2544.09692505,0.03919226
2546.02573242,0.03895469
2547.95453979,0.03884314
2549.88334717,0.03879679
2551.81215454,0.03874946
2553.74096191,0.03879876
2555.66976929,0.03871405
2557.59857666,0.03875174
2559.52738403,0.03873036
2561.45619141,0.03861402
2563.38499878,0.03856967
2565.31380615,0.03851393
2567.24261353,0.03849635
2569.17142090,0.03843184
2571.10022827,0.03843880
2573.02903564,0.03835730
2574.95784302,0.03820208
2576.88665039,0.03819502
2578.81545776,0.03812331
2580.74426514,0.03805315
2582.67307251,0.03804855
2584.60187988,0.03789898
2586.53068726,0.03799343
2588.45949463,0.03814512
2590.38830200,0.03786089
2592.31710937,0.03781639
2594.24591675,0.03779852
2596.17472412,0.03767701
2598.10353149,0.03765745
2600.03233887,0.03746027
2601.96114624,0.03747969
2603.88995361,0.03754096
2605.81876099,0.03745408
2607.74756836,0.03730785
2609.67637573,0.03728867
2611.60518311,0.03727131
2613.53399048,0.03711386
2615.46279785,0.03725803
2617.39160522,0.03722164
2619.32041260,0.03705679
2621.24921997,0.03704605
2623.17802734,0.03690566
2625.10683472,0.03684526
2627.03564209,0.03697696
2628.96444946,0.03692915
2630.89325684,0.03673355
2632.82206421,0.03679021
2634.75087158,0.03670432
2636.67967895,0.03666586
2638.60848633,0.03663056
2640.53729370,0.03646370
2642.46610107,0.03655792
2644.39490845,0.03645322
2646.32371582,0.03635797
2648.25252319,0.03629936
2650.18133057,0.03624203
2652.11013794,0.03621010
2654.03894531,0.03608023
2655.96775269,0.03618364
2657.89656006,0.03610422
2659.82536743,0.03601476
2661.75417480,0.03597772
2663.68298218,0.03581455
2665.61178955,0.03587533
2667.54059692,0.03592860
2669.46940430,0.03589819
2671.39821167,0.03568733
2673.32701904,0.03547331
2675.25582642,0.03564292
2677.18463379,0.03564142
2679.11344116,0.03541541
2681.04224854,0.03547794
2682.97105591,0.03548037
2684.89986328,0.03542831
2686.82867065,0.03536609
2688.75747803,0.03529043
2690.68628540,0.03531827
2692.61509277,0.03508755
2694.54390015,0.03510761
2696.47270752,0.03510346
2698.40151489,0.03491510
2700.33032227,0.03498666
2702.25912964,0.03485734
2704.18793701,0.03488283
2706.11674438,0.03484766
2708.04555176,0.03470920
2709.97435913,0.03472190
2711.90316650,0.03463195
2713.83197388,0.03471342
2715.76078125,0.03463846
2717.68958862,0.03448271
2719.61839600,0.03444598
2721.54720337,0.03436418
2723.47601074,0.03430692
2725.40481812,0.03429014
2727.33362549,0.03429469
2729.26243286,0.03421889
2731.19124023,0.03421353
2733.12004761,0.03413050
2735.04885498,0.03403540
2736.97766235,0.03406504
2738.90646973,0.03394759
2740.83527710,0.03386553
2742.76408447,0.03383449
2744.69289185,0.03375061
2746.62169922,0.03376667
2748.55050659,0.03363273
2750.47931396,0.03343961
2752.40812134,0.03357828
2754.33692871,0.03356620
2756.26573608,0.03345750
2758.19454346,0.03345890
2760.12335083,0.03333701
2762.05215820,0.03336870
2763.98096558,0.03321445
2765.90977295,0.03300833
2767.83858032,0.03318460
2769.76738770,0.03314934
2771.69619507,0.03299697
2773.62500244,0.03301889
2775.55380981,0.03286815
2777.48261719,0.03280657
2779.41142456,0.03279892
2781.34023193,0.03260442
2783.26903931,0.03268523
2785.19784668,0.03265201
2787.12665405,0.03253243
2789.05546143,0.03252632
2790.98426880,0.03235322
2792.91307617,0.03250144
2794.84188354,0.03249004
2796.77069092,0.03217915
2798.69949829,0.03217305
2800.62830566,0.03216507
2802.55711304,0.03208353
2804.48592041,0.03209935
2806.41472778,0.03199041
2808.34353516,0.03187323
2810.27234253,0.03185220
2812.20114990,0.03164614
2814.12995728,0.03172042
2816.05876465,0.03177340
2817.98757202,0.03161266
2819.91637939,0.03165737
2821.84518677,0.03148695
2823.77399414,0.03142677
2825.70280151,0.03135778
2827.63160889,0.03119645
2829.56041626,0.03119534
2831.48922363,0.03112979
2833.41803101,0.03103230
2835.34683838,0.03092584
2837.27564575,0.03098880
2839.20445312,0.03083486
2841.13326050,0.03064394
2843.06206787,0.03054638
2844.99087524,0.03035610
2846.91968262,0.03026948
2848.84848999,0.03005073
2850.77729736,0.03001324
2852.70610474,0.02995830
2854.63491211,0.02995809
2856.56371948,0.03016653
2858.49252686,0.03010711
2860.42133423,0.02999132
2862.35014160,0.02986354
2864.27894897,0.02977980
2866.20775635,0.02977651
2868.13656372,0.02977332
2870.06537109,0.02966851
2871.99417847,0.02972391
2873.92298584,0.02972927
2875.85179321,0.02951421
2877.78060059,0.02957139
2879.70940796,0.02937738
2881.63821533,0.02928291
2883.56702270,0.02938345
2885.49583008,0.02930029
2887.42463745,0.02936669
2889.35344482,0.02921297
2891.28225220,0.02905289
2893.21105957,0.02906989
2895.13986694,0.02909733
2897.06867432,0.02902669
2898.99748169,0.02880889
2900.92628906,0.02870518
2902.85509644,0.02868958
2904.78390381,0.02860427
2906.71271118,0.02853521
2908.64151855,0.02850664
2910.57032593,0.02832500
2912.49913330,0.02826887
2914.42794067,0.02812494
2916.35674805,0.02795275
2918.28555542,0.02803581
2920.21436279,0.02809568
2922.14317017,0.02810298
2924.07197754,0.02788680
2926.00078491,0.02798775
2927.92959229,0.02801814
2929.85839966,0.02792686
2931.78720703,0.02810201
2933.71601440,0.02785441
2935.64482178,0.02794001
2937.57362915,0.02806682
2939.50243652,0.02790918
2941.43124390,0.02799756
2943.36005127,0.02804934
2945.28885864,0.02798754
2947.21766602,0.02779702
2949.14647339,0.02784347
2951.07528076,0.02769018
2953.00408813,0.02751185
2954.93289551,0.02766468
2956.86170288,0.02757369
2958.79051025,0.02749199
2960.71931763,0.02741551
2962.64812500,0.02734086
2964.57693237,0.02731360
2966.50573975,0.02733009
2968.43454712,0.02732437
2970.36335449,0.02732694
2972.29216187,0.02746407
2974.22096924,0.02745156
2976.14977661,0.02746027
2978.07858398,0.02740636
2980.00739136,0.02738816
2981.93619873,0.02743478
2983.86500610,0.02734440
2985.79381348,0.02731724
2987.72262085,0.02719638
2989.65142822,0.02719134
2991.58023560,0.02718023
2993.50904297,0.02705339
2995.43785034,0.02711512
2997.36665771,0.02707642
2999.29546509,0.02696188
3001.22427246,0.02686959
3003.15307983,0.02680217
3005.08188721,0.02675734
3007.01069458,0.02670497
3008.93950195,0.02682758
3010.86830933,0.02672176
3012.79711670,0.02649699
3014.72592407,0.02656561
3016.65473145,0.02655172
3018.58353882,0.02652079
3020.51234619,0.02635774
3022.44115356,0.02629558
3024.36996094,0.02634286
3026.29876831,0.02612535
3028.22757568,0.02622324
3030.15638306,0.02606861
3032.08519043,0.02588043
3034.01399780,0.02599969
3035.94280518,0.02587458
3037.87161255,0.02593699
3039.80041992,0.02584649
3041.72922729,0.02582402
3043.65803467,0.02578200
3045.58684204,0.02566323
3047.51564941,0.02567926
3049.44445679,0.02538136
3051.37326416,0.02550625
3053.30207153,0.02551296
3055.23087891,0.02538420
3057.15968628,0.02548241
3059.08849365,0.02525995
3061.01730103,0.02521919
3062.94610840,0.02514967
3064.87491577,0.02509169
3066.80372314,0.02505517
3068.73253052,0.02506806
3070.66133789,0.02510066
3072.59014526,0.02486530
3074.51895264,0.02492597
3076.44776001,0.02489588
3078.37656738,0.02480205
3080.30537476,0.02478899
3082.23418213,0.02465267
3084.16298950,0.02465812
3086.09179687,0.02458388
3088.02060425,0.02458656
3089.94941162,0.02452302
3091.87821899,0.02442182
3093.80702637,0.02443955
3095.73583374,0.02429798
3097.66464111,0.02436199
3099.59344849,0.02436623
3101.52225586,0.02417014
3103.45106323,0.02422884
3105.37987061,0.02420789
3107.30867798,0.02407583
3109.23748535,0.02405111
3111.16629272,0.02400002
3113.09510010,0.02390810
3115.02390747,0.02376936
3116.95271484,0.02366887
3118.88152222,0.02368973
3120.81032959,0.02373253
3122.73913696,0.02356180
3124.66794434,0.02342165
3126.59675171,0.02347394
3128.52555908,0.02338216
3130.45436645,0.02341319
3132.38317383,0.02339699
3134.31198120,0.02321142
3136.24078857,0.02321170
3138.16959595,0.02318680
3140.09840332,0.02314043
3142.02721069,0.02299853
3143.95601807,0.02281957
3145.88482544,0.02281344
3147.81363281,0.02282720
3149.74244019,0.02275567
3151.67124756,0.02268942
3153.60005493,0.02262190
3155.52886230,0.02255783
3157.45766968,0.02261712
3159.38647705,0.02246052
3161.31528442,0.02241374
3163.24409180,0.02252876
3165.17289917,0.02235508
3167.10170654,0.02228097
3169.03051392,0.02222473
3170.95932129,0.02220815
3172.88812866,0.02217609
3174.81693604,0.02200060
3176.74574341,0.02195674
3178.67455078,0.02188276
3180.60335815,0.02172507
3182.53216553,0.02166484
3184.46097290,0.02166154
3186.38978027,0.02158093
3188.31858765,0.02165397
3190.24739502,0.02163452
3192.17620239,0.02149213
3194.10500977,0.02146357
3196.03381714,0.02128364
3197.96262451,0.02121597
3199.89143188,0.02122083
3201.82023926,0.02121529
3203.74904663,0.02114486
3205.67785400,0.02105100
3207.60666138,0.02105679
3209.53546875,0.02101259
3211.46427612,0.02102834
3213.39308350,0.02092918
3215.32189087,0.02094595
3217.25069824,0.02093804
3219.17950562,0.02082189
3221.10831299,0.02075790
3223.03712036,0.02065457
3224.96592773,0.02085254
3226.89473511,0.02078026
3228.82354248,0.02056784
3230.75234985,0.02060684
3232.68115723,0.02055199
3234.60996460,0.02048083
3236.53877197,0.02047584
3238.46757935,0.02048740
3240.39638672,0.02041809
3242.32519409,0.02041361
3244.25400146,0.02024307
3246.18280884,0.02031084
3248.11161621,0.02044734
3250.04042358,0.02023577
3251.96923096,0.02025807
3253.89803833,0.02015407
3255.82684570,0.02016395
3257.75565308,0.02014849
3259.68446045,0.02007550
3261.61326782,0.02013490
3263.54207520,0.01996745
3265.47088257,0.02009703
3267.39968994,0.02006931
3269.32849731,0.01991184
3271.25730469,0.01996798
3273.18611206,0.01998325
3275.11491943,0.01991457
3277.04372681,0.01982986
3278.97253418,0.01984927
3280.90134155,0.01973337
3282.83014893,0.01984069
3284.75895630,0.01983068
3286.68776367,0.01972260
3288.61657104,0.01980479
3290.54537842,0.01971207
3292.47418579,0.01971502
3294.40299316,0.01961946
3296.33180054,0.01957058
3298.26060791,0.01963907
3300.18941528,0.01961171
3302.11822266,0.01940368
3304.04703003,0.01940575
3305.97583740,0.01960239
3307.90464478,0.01932054
3309.83345215,0.01936874
3311.76225952,0.01950327
3313.69106689,0.01938792
3315.61987427,0.01942399
3317.54868164,0.01935888
3319.47748901,0.01928130
3321.40629639,0.01922476
3323.33510376,0.01937364
3325.26391113,0.01928491
3327.19271851,0.01911689
3329.12152588,0.01919484
3331.05033325,0.01911162
3332.97914062,0.01906208
3334.90794800,0.01901156
3336.83675537,0.01899927
3338.76556274,0.01901383
3340.69437012,0.01903917
3342.62317749,0.01895405
3344.55198486,0.01885545
3346.48079224,0.01895166
3348.40959961,0.01885389
3350.33840698,0.01872818
3352.26721436,0.01876906
3354.19602173,0.01877679
3356.12482910,0.01864710
3358.05363647,0.01865207
3359.98244385,0.01872081
3361.91125122,0.01868570
3363.84005859,0.01861694
3365.76886597,0.01840489
3367.69767334,0.01840341
3369.62648071,0.01853153
3371.55528809,0.01851867
3373.48409546,0.01845956
3375.41290283,0.01843919
3377.34171020,0.01828348
3379.27051758,0.01821459
3381.19932495,0.01834195
3383.12813232,0.01826075
3385.05693970,0.01827101
3386.98574707,0.01813968
3388.91455444,0.01817317
3390.84336182,0.01821155
3392.77216919,0.01794012
3394.70097656,0.01803107
3396.62978394,0.01787353
3398.55859131,0.01786945
3400.48739868,0.01795674
3402.41620605,0.01782781
3404.34501343,0.01795549
3406.27382080,0.01791452
3408.20262817,0.01784160
3410.13143555,0.01777789
3412.06024292,0.01779887
3413.98905029,0.01774098
3415.91785767,0.01765699
3417.84666504,0.01764758
3419.77547241,0.01757988
3421.70427979,0.01755959
3423.63308716,0.01745915
3425.56189453,0.01752621
3427.49070190,0.01742948
3429.41950928,0.01745626
3431.34831665,0.01746892
3433.27712402,0.01731899
3435.20593140,0.01744351
3437.13473877,0.01728430
3439.06354614,0.01728322
3440.99235352,0.01721241
3442.92116089,0.01714196
3444.84996826,0.01719165
3446.77877563,0.01688990
3448.70758301,0.01694877
3450.63639038,0.01711878
3452.56519775,0.01709864
3454.49400513,0.01707889
3456.42281250,0.01707163
3458.35161987,0.01700836
3460.28042725,0.01699429
3462.20923462,0.01687938
3464.13804199,0.01686870
3466.06684937,0.01701437
3467.99565674,0.01677830
3469.92446411,0.01689110
3471.85327148,0.01692680
3473.78207886,0.01681572
3475.71088623,0.01686503
3477.63969360,0.01678588
3479.56850098,0.01672113
3481.49730835,0.01645469
3483.42611572,0.01673569
3485.35492310,0.01677518
3487.28373047,0.01652473
3489.21253784,0.01669252
3491.14134521,0.01665808
3493.07015259,0.01666520
3494.99895996,0.01658085
3496.92776733,0.01655215
3498.85657471,0.01653792
3500.78538208,0.01663571
3502.71418945,0.01632203
3504.64299683,0.01618777
3506.57180420,0.01673410
3508.50061157,0.01631308
3510.42941895,0.01631179
3512.35822632,0.01661602
3514.28703369,0.01652761
3516.21584106,0.01663011
3518.14464844,0.01646906
3520.07345581,0.01658563
3522.00226318,0.01628965
3523.93107056,0.01602524
3525.85987793,0.01620431
3527.78868530,0.01608696
3529.71749268,0.01618652
3531.64630005,0.01636443
3533.57510742,0.01649984
3535.50391479,0.01637342
3537.43272217,0.01613132
3539.36152954,0.01636274
3541.29033691,0.01644347
3543.21914429,0.01624274
3545.14795166,0.01585705
3547.07675903,0.01545803
3549.00556641,0.01612457
3550.93437378,0.01629857
3552.86318115,0.01586838
3554.79198853,0.01625896
3556.72079590,0.01619196
3558.64960327,0.01627407
3560.57841064,0.01607535
3562.50721802,0.01595561
3564.43602539,0.01613744
3566.36483276,0.01469258
3568.29364014,0.01439167
3570.22244751,0.01574724
3572.15125488,0.01623715
3574.08006226,0.01603831
3576.00886963,0.01601824
3577.93767700,0.01604984
3579.86648437,0.01598140
3581.79529175,0.01594411
3583.72409912,0.01601337
3585.65290649,0.01563773
3587.58171387,0.01406828
3589.51052124,0.01460479
3591.43932861,0.01618065
3593.36813599,0.01558601
3595.29694336,0.01526283
3597.22575073,0.01557347
3599.15455811,0.01582387
3601.08336548,0.01560698
3603.01217285,0.01575150
3604.94098022,0.01618276
3606.86978760,0.01545298
3608.79859497,0.01438849
3610.72740234,0.01473289
3612.65620972,0.01501548
3614.58501709,0.01455992
3616.51382446,0.01592577
3618.44263184,0.01441759
3620.37143921,0.01382386
3622.30024658,0.01605837
3624.22905395,0.01547384
3626.15786133,0.01630411
3628.08666870,0.01338322
3630.01547607,0.01194851
3631.94428345,0.01573107
3633.87309082,0.01530549
3635.80189819,0.01566064
3637.73070557,0.01587646
3639.65951294,0.01566235
3641.58832031,0.01588962
3643.51712769,0.01560044
3645.44593506,0.01573505
3647.37474243,0.01381405
3649.30354980,0.01250213
3651.23235718,0.01260599
3653.16116455,0.01557135
3655.08997192,0.01530691
3657.01877930,0.01335426
3658.94758667,0.01597399
3660.87639404,0.01555610
3662.80520142,0.01574004
3664.73400879,0.01566571
3666.66281616,0.01550346
3668.59162354,0.01490492
3670.52043091,0.01175540
3672.44923828,0.01486453
3674.37804565,0.01385161
3676.30685303,0.01112659
3678.23566040,0.01464355
3680.16446777,0.01498336
3682.09327515,0.01507848
3684.02208252,0.01555440
3685.95088989,0.01533896
3687.87969727,0.01356805
3689.80850464,0.01218050
3691.73731201,0.01418295
3693.66611938,0.01479063
3695.59492676,0.01524353
3697.52373413,0.01517420
3699.45254150,0.01512021
3701.38134888,0.01458650
3703.31015625,0.01393992
3705.23896362,0.01557370
3707.16777100,0.01464781
3709.09657837,0.01429382
3711.02538574,0.01328905
3712.95419312,0.01235819
3714.88300049,0.01485027
3716.81180786,0.01456332
3718.74061523,0.01472721
3720.66942261,0.01441349
3722.59822998,0.01381940
3724.52703735,0.01433150
3726.45584473,0.01318831
3728.38465210,0.01440654
3730.31345947,0.01427120
3732.24226685,0.01302640
3734.17107422,0.01250741
3736.09988159,0.01174258
3738.02868896,0.01264864
3739.95749634,0.01392448
3741.88630371,0.01463021
3743.81511108,0.01097060
3745.74391846,0.01027166
3747.67272583,0.01384076
3749.60153320,0.01168141
3751.53034058,0.01057996
3753.45914795,0.01242920
3755.38795532,0.01356417
3757.31676270,0.01421101
3759.24557007,0.01292501
3761.17437744,0.01342580
3763.10318481,0.01450620
3765.03199219,0.01333698
3766.96079956,0.01367877
3768.88960693,0.01353040
3770.81841431,0.01282453
3772.74722168,0.01413269
3774.67602905,0.01406972
3776.60483643,0.01410704
3778.53364380,0.01365511
3780.46245117,0.01300166
3782.39125854,0.01400093
3784.32006592,0.01352161
3786.24887329,0.01360332
3788.17768066,0.01389764
3790.10648804,0.01372638
3792.03529541,0.01378574
3793.96410278,0.01390387
3795.89291016,0.01296316
3797.82171753,0.01279605
3799.75052490,0.01357590
3801.67933228,0.01043382
3803.60813965,0.01249286
3805.53694702,0.01374973
3807.46575439,0.01082063
3809.39456177,0.01359191
3811.32336914,0.01333593
3813.25217651,0.01381390
3815.18098389,0.01229227
3817.10979126,0.01049783
3819.03859863,0.01381143
3820.96740601,0.01070913
3822.89621338,0.01142040
3824.82502075,0.01370381
3826.75382812,0.01212583
3828.68263550,0.01330060
3830.61144287,0.01265426
3832.54025024,0.01222611
3834.46905762,0.01242734
3836.39786499,0.01169965
3838.32667236,0.01059770
3840.25547974,0.01144501
3842.18428711,0.01250525
3844.11309448,0.01192656
3846.04190186,0.01306765
3847.97070923,0.01287030
3849.89951660,0.01274155
3851.82832397,0.01129804
3853.75713135,0.00810915
3855.68593872,0.00986202
3857.61474609,0.01280051
3859.54355347,0.01255268
3861.47236084,0.01229210
3863.40116821,0.01198258
3865.32997559,0.01110850
3867.25878296,0.01251907
3869.18759033,0.01134122
3871.11639770,0.01028114
3873.04520508,0.01246974
3874.97401245,0.01143815
3876.90281982,0.01257926
3878.83162720,0.01276659
3880.76043457,0.01049988
3882.68924194,0.01244521
3884.61804932,0.01155535
3886.54685669,0.01041407
3888.47566406,0.01256521
3890.40447144,0.01181637
3892.33327881,0.01097158
3894.26208618,0.01217527
3896.19089355,0.01238476
3898.11970093,0.01165939
3900.04850830,0.01095854
3901.97731567,0.01076809
3903.90612305,0.01064156
3905.83493042,0.01096510
3907.76373779,0.01214540
3909.69254517,0.01216016
3911.62135254,0.01208177
3913.55015991,0.01231263
3915.47896728,0.01174856
3917.40777466,0.01131416
3919.33658203,0.01126491
3921.26538940,0.01176428
3923.19419678,0.01173230
3925.12300415,0.01141909
3927.05181152,0.01161650
3928.98061890,0.01181648
3930.90942627,0.01152618
3932.83823364,0.01110479
3934.76704102,0.01167782
3936.69584839,0.01175858
3938.62465576,0.01168129
3940.55346313,0.01183417
3942.48227051,0.01122070
3944.41107788,0.01132987
3946.33988525,0.01165013
3948.26869263,0.01133372
3950.19750000,0.01129822
3952.12630737,0.01152463
3954.05511475,0.01155829
3955.98392212,0.01158360
3957.91272949,0.01156158
3959.84153687,0.01147010
3961.77034424,0.01138198
3963.69915161,0.01130332
3965.62795898,0.01145831
3967.55676636,0.01139046
3969.48557373,0.01128904
3971.41438110,0.01129267
3973.34318848,0.01124779
3975.27199585,0.01119215
3977.20080322,0.01115149
3979.12961060,0.01124039
3981.05841797,0.01117737
3982.98722534,0.01123467
3984.91603271,0.01119406
3986.84484009,0.01116285
3988.77364746,0.01116261
3990.70245483,0.01103777
3992.63126221,0.01105520
3994.56006958,0.01095431
3996.48887695,0.01103720
3998.41768433,0.01097594
4000.34649170,0.01100435
4002.27529907,0.01101392
4004.20410645,0.01083188
4006.13291382,0.01091755
4008.06172119,0.01077379
4009.99052856,0.01088296
4011.91933594,0.01082692
4013.84814331,0.01074014
4015.77695068,0.01086227
4017.70575806,0.01069778
4019.63456543,0.01076582
4021.56337280,0.01069813
4023.49218018,0.01069785
4025.42098755,0.01067328
4027.34979492,0.01060198
4029.27860229,0.01061593
4031.20740967,0.01044616
4033.13621704,0.01057809
4035.06502441,0.01060095
4036.99383179,0.01049247
4038.92263916,0.01049833
4040.85144653,0.01043995
4042.78025391,0.01043889
4044.70906128,0.01044403
4046.63786865,0.01044380
4048.56667603,0.01045664
4050.49548340,0.01031256
4052.42429077,0.01028406
4054.35309814,0.01036286
4056.28190552,0.01020709
4058.21071289,0.01032891
4060.13952026,0.01030990
4062.06832764,0.01020503
4063.99713501,0.01027968
4065.92594238,0.01012175
4067.85474976,0.01013725
4069.78355713,0.01007658
4071.71236450,0.01010236
4073.64117187,0.01013011
4075.56997925,0.01011257
4077.49878662,0.01010947
4079.42759399,0.00993765
4081.35640137,0.01002743
4083.28520874,0.00994774
4085.21401611,0.00995889
4087.14282349,0.00997515
4089.07163086,0.00993176
4091.00043823,0.00998099
4092.92924561,0.00983248
4094.85805298,0.00989814
4096.78686035,0.00979072
4098.71566772,0.00971389
4100.64447510,0.00975263
4102.57328247,0.00978794
4104.50208984,0.00977473
4106.43089722,0.00959925
4108.35970459,0.00960722
4110.28851196,0.00954838
4112.21731934,0.00967076
4114.14612671,0.00957206
4116.07493408,0.00946187
4118.00374145,0.00962725
4119.93254883,0.00950601
4121.86135620,0.00953593
4123.79016357,0.00951368
4125.71897095,0.00946611
4127.64777832,0.00945432
4129.57658569,0.00940014
4131.50539307,0.00940102
4133.43420044,0.00939313
4135.36300781,0.00939161
4137.29181519,0.00930339
4139.22062256,0.00931838
4141.14942993,0.00929990
4143.07823730,0.00931881
4145.00704468,0.00928887
4146.93585205,0.00924701
4148.86465942,0.00924941
4150.79346680,0.00918120
4152.72227417,0.00920508
4154.65108154,0.00912243
4156.57988892,0.00915859
4158.50869629,0.00910556
4160.43750366,0.00907651
4162.36631103,0.00909701
4164.29511841,0.00901973
4166.22392578,0.00908073
4168.15273315,0.00893510
4170.08154053,0.00899693
4172.01034790,0.00896944
4173.93915527,0.00883667
4175.86796265,0.00892555
4177.79677002,0.00889129
4179.72557739,0.00886269
4181.65438477,0.00882102
4183.58319214,0.00889523
4185.51199951,0.00880101
4187.44080688,0.00881898
4189.36961426,0.00885211
4191.29842163,0.00874682
4193.22722900,0.00888674
4195.15603638,0.00872769
4197.08484375,0.00861964
4199.01365112,0.00863645
4200.94245850,0.00861645
4202.87126587,0.00858547
4204.80007324,0.00860460
4206.72888062,0.00866040
4208.65768799,0.00851939
4210.58649536,0.00861475
4212.51530273,0.00855542
4214.44411011,0.00853236
4216.37291748,0.00855510
4218.30172485,0.00836777
4220.23053223,0.00847138
4222.15933960,0.00842011
4224.08814697,0.00840042
4226.01695435,0.00852375
4227.94576172,0.00843829
4229.87456909,0.00831667
4231.80337646,0.00835724
4233.73218384,0.00835676
4235.66099121,0.00825587
4237.58979858,0.00833023
4239.51860596,0.00827573
4241.44741333,0.00827099
4243.37622070,0.00829181
4245.30502808,0.00815916
4247.23383545,0.00816902
4249.16264282,0.00814847
4251.09145020,0.00809047
4253.02025757,0.00811716
4254.94906494,0.00808765
4256.87787231,0.00797187
4258.80667969,0.00799069
4260.73548706,0.00802386
4262.66429443,0.00801409
4264.59310181,0.00797583
4266.52190918,0.00791541
4268.45071655,0.00796244
4270.37952393,0.00799321
4272.30833130,0.00798558
4274.23713867,0.00786750
4276.16594604,0.00788567
4278.09475342,0.00786930
4280.02356079,0.00779797
4281.95236816,0.00785585
4283.88117554,0.00780548
4285.80998291,0.00787840
4287.73879028,0.00775565
4289.66759766,0.00776351
4291.59640503,0.00782222
4293.52521240,0.00765269
4295.45401978,0.00773170
4297.38282715,0.00758161
4299.31163452,0.00761408
4301.24044189,0.00771804
4303.16924927,0.00762132
4305.09805664,0.00764448
4307.02686401,0.00755998
4308.95567139,0.00760962
4310.88447876,0.00761461
4312.81328613,0.00756180
4314.74209351,0.00749925
4316.67090088,0.00750283
4318.59970825,0.00755858
4320.52851562,0.00745321
4322.45732300,0.00743482
4324.38613037,0.00740735
4326.31493774,0.00745735
4328.24374512,0.00746052
4330.17255249,0.00738302
4332.10135986,0.00731634
4334.03016724,0.00730540
4335.95897461,0.00744285
4337.88778198,0.00734611
4339.81658936,0.00731997
4341.74539673,0.00738092
4343.67420410,0.00731566
4345.60301147,0.00724325
4347.53181885,0.00720728
4349.46062622,0.00726927
4351.38943359,0.00713597
4353.31824097,0.00709799
4355.24704834,0.00719749
4357.17585571,0.00714762
4359.10466309,0.00713652
4361.03347046,0.00714651
4362.96227783,0.00710776
4364.89108520,0.00708824
4366.81989258,0.00711481
4368.74869995,0.00697300
4370.67750732,0.00694811
4372.60631470,0.00706647
4374.53512207,0.00698826
4376.46392944,0.00702396
4378.39273682,0.00699138
4380.32154419,0.00690819
4382.25035156,0.00695507
4384.17915894,0.00690188
4386.10796631,0.00690802
4388.03677368,0.00688682
4389.96558105,0.00689449
4391.89438843,0.00689592
4393.82319580,0.00679724
4395.75200317,0.00688900
4397.68081055,0.00680900
4399.60961792,0.00673188
4401.53842529,0.00686431
4403.46723267,0.00675943
4405.39604004,0.00671213
4407.32484741,0.00676434
4409.25365478,0.00672340
4411.18246216,0.00667298
4413.11126953,0.00668060
4415.04007690,0.00668287
4416.96888428,0.00663367
4418.89769165,0.00668656
4420.82649902,0.00661748
4422.75530640,0.00655648
4424.68411377,0.00658014
4426.61292114,0.00649713
4428.54172852,0.00652161
4430.47053589,0.00652502
4432.39934326,0.00650354
4434.32815063,0.00654895
4436.25695801,0.00652059
4438.18576538,0.00641701
4440.11457275,0.00638804
4442.04338013,0.00645704
4443.97218750,0.00642632
4445.90099487,0.00638494
4447.82980225,0.00644104
4449.75860962,0.00643401
4451.68741699,0.00631543
4453.61622437,0.00634998
4455.54503174,0.00638679
4457.47383911,0.00628482
4459.40264648,0.00633883
4461.33145386,0.00627928
4463.26026123,0.00620353
4465.18906860,0.00624667
4467.11787598,0.00617199
4469.04668335,0.00621812
4470.97549072,0.00621724
4472.90429810,0.00614652
4474.83310547,0.00619107
4476.76191284,0.00617467
4478.69072021,0.00618583
4480.61952759,0.00613262
4482.54833496,0.00606958
4484.47714233,0.00615013
4486.40594971,0.00611801
4488.33475708,0.00605163
4490.26356445,0.00601283
4492.19237183,0.00601446
4494.12117920,0.00600421
4496.04998657,0.00591443
4497.97879395,0.00595792
4499.90760132,0.00587507
4501.83640869,0.00582079
4503.76521606,0.00594962
4505.69402344,0.00593750
4507.62283081,0.00588201
4509.55163818,0.00579099
4511.48044556,0.00583297
4513.40925293,0.00586698
4515.33806030,0.00581998
4517.26686768,0.00584945
4519.19567505,0.00577923
4521.12448242,0.00582391
4523.05328979,0.00584148
4524.98209717,0.00576204
4526.91090454,0.00577008
4528.83971191,0.00576068
4530.76851929,0.00571539
4532.69732666,0.00563974
4534.62613403,0.00565317
4536.55494141,0.00566686
4538.48374878,0.00567628
4540.41255615,0.00571134
4542.34136353,0.00565658
4544.27017090,0.00557653
4546.19897827,0.00555445
4548.12778564,0.00556114
4550.05659302,0.00556164
4551.98540039,0.00562970
4553.91420776,0.00560679
4555.84301514,0.00553991
4557.77182251,0.00549147
4559.70062988,0.00544338
4561.62943726,0.00548267
4563.55824463,0.00543436
4565.48705200,0.00545757
4567.41585937,0.00547974
4569.34466675,0.00539792
4571.27347412,0.00543042
4573.20228149,0.00545082
4575.13108887,0.00537667
4577.05989624,0.00532354
4578.98870361,0.00541684
4580.91751099,0.00537420
4582.84631836,0.00527423
4584.77512573,0.00536990
4586.70393311,0.00532198
4588.63274048,0.00526016
4590.56154785,0.00528499
4592.49035522,0.00525451
4594.41916260,0.00528819
4596.34796997,0.00528363
4598.27677734,0.00520781
4600.20558472,0.00519595
4602.13439209,0.00522457
4604.06319946,0.00521404
4605.99200684,0.00515271
4607.92081421,0.00515169
4609.84962158,0.00515845
4611.77842895,0.00513350
4613.70723633,0.00518949
4615.63604370,0.00511253
4617.56485107,0.00501463
4619.49365845,0.00511094
4621.42246582,0.00508747
4623.35127319,0.00502609
4625.28008057,0.00507376
4627.20888794,0.00501638
4629.13769531,0.00498862
4631.06650269,0.00504897
4632.99531006,0.00502439
4634.92411743,0.00503121
4636.85292480,0.00498046
4638.78173218,0.00493063
4640.71053955,0.00498398
4642.63934692,0.00494289
4644.56815430,0.00494964
4646.49696167,0.00490705
4648.42576904,0.00488323
4650.35457642,0.00493767
4652.28338379,0.00485437
4654.21219116,0.00484847
4656.14099853,0.00488005
4658.06980591,0.00482812
4659.99861328,0.00476228
4661.92742065,0.00482104
4663.85622803,0.00482318
4665.78503540,0.00475468
4667.71384277,0.00481410
4669.64265015,0.00474127
4671.57145752,0.00470683
4673.50026489,0.00470351
4675.42907227,0.00468888
4677.35787964,0.00468328
4679.28668701,0.00458070
4681.21549438,0.00463241
4683.14430176,0.00469522
4685.07310913,0.00469767
4687.00191650,0.00469590
4688.93072388,0.00472336
4690.85953125,0.00467674
4692.78833862,0.00463675
4694.71714600,0.00469239
4696.64595337,0.00459298
4698.57476074,0.00460023
4700.50356812,0.00456216
4702.43237549,0.00450851
4704.36118286,0.00452507
4706.28999023,0.00448018
4708.21879761,0.00453914
4710.14760498,0.00451179
4712.07641235,0.00455463
4714.00521973,0.00450000
4715.93402710,0.00450169
4717.86283447,0.00458006
4719.79164185,0.00438206
4721.72044922,0.00443389
4723.64925659,0.00449034
4725.57806396,0.00444961
4727.50687134,0.00442429
4729.43567871,0.00434083
4731.36448608,0.00439444
4733.29329346,0.00444005
4735.22210083,0.00439895
4737.15090820,0.00428628
4739.07971558,0.00438301
4741.00852295,0.00437796
4742.93733032,0.00422896
4744.86613770,0.00431820
4746.79494507,0.00426684
4748.72375244,0.00427952
4750.65255981,0.00433380
4752.58136719,0.00423299
4754.51017456,0.00426336
4756.43898193,0.00421678
4758.36778931,0.00409278
4760.29659668,0.00414684
4762.22540405,0.00418502
4764.15421143,0.00416900
4766.08301880,0.00418932
4768.01182617,0.00413809
4769.94063354,0.00417086
4771.86944092,0.00417345
4773.79824829,0.00413234
4775.72705566,0.00420707
4777.65586304,0.00417662
4779.58467041,0.00411355
4781.51347778,0.00406916
4783.44228516,0.00410807
4785.37109253,0.00414810
4787.29989990,0.00406060
4789.22870728,0.00404669
4791.15751465,0.00404880
4793.08632202,0.00402872
4795.01512939,0.00403718
4796.94393677,0.00401602
4798.87274414,0.00390535
4800.80155151,0.00394536
4802.73035889,0.00401081
4804.65916626,0.00391152
4806.58797363,0.00400713
4808.51678101,0.00399457
4810.44558838,0.00391427
4812.37439575,0.00394046
4814.30320312,0.00386884
4816.23201050,0.00396035
4818.16081787,0.00397440
4820.08962524,0.00390199
4822.01843262,0.00389068
4823.94723999,0.00379955
4825.87604736,0.00381465
4827.80485474,0.00389198
4829.73366211,0.00392567
4831.66246948,0.00382993
4833.59127686,0.00378240
4835.52008423,0.00387358
4837.44889160,0.00386853
4839.37769897,0.00379451
4841.30650635,0.00370259
4843.23531372,0.00376985
4845.16412109,0.00380808
4847.09292847,0.00372436
4849.02173584,0.00372041
4850.95054321,0.00364469
4852.87935059,0.00366225
4854.80815796,0.00371140
4856.73696533,0.00372077
4858.66577270,0.00374816
4860.59458008,0.00367170
4862.52338745,0.00366355
4864.45219482,0.00367017
4866.38100220,0.00368113
4868.30980957,0.00365540
4870.23861694,0.00360762
4872.16742432,0.00366791
4874.09623169,0.00366682
4876.02503906,0.00363726
4877.95384644,0.00359691
4879.88265381,0.00359566
4881.81146118,0.00361149
4883.74026855,0.00355137
4885.66907593,0.00352779
4887.59788330,0.00357377
4889.52669067,0.00357524
4891.45549805,0.00351778
4893.38430542,0.00356289
4895.31311279,0.00350964
4897.24192017,0.00346170
4899.17072754,0.00354963
4901.09953491,0.00349290
4903.02834228,0.00347463
4904.95714966,0.00354319
4906.88595703,0.00350781
4908.81476440,0.00344008
4910.74357178,0.00346213
4912.67237915,0.00339619
4914.60118652,0.00340351
4916.52999390,0.00346629
4918.45880127,0.00333702
4920.38760864,0.00338634
4922.31641602,0.00335970
4924.24522339,0.00335872
4926.17403076,0.00340910
4928.10283813,0.00324594
4930.03164551,0.00333468
4931.96045288,0.00337164
4933.88926025,0.00331670
4935.81806763,0.00329262
4937.74687500,0.00328082
4939.67568237,0.00332565
4941.60448975,0.00326918
4943.53329712,0.00329309
4945.46210449,0.00324035
4947.39091187,0.00324350
4949.31971924,0.00325617
4951.24852661,0.00323081
4953.17733398,0.00326663
4955.10614136,0.00315576
4957.03494873,0.00320667
4958.96375610,0.00320665
4960.89256348,0.00316921
4962.82137085,0.00318500
4964.75017822,0.00312679
4966.67898560,0.00320366
4968.60779297,0.00315111
4970.53660034,0.00311009
4972.46540771,0.00313267
4974.39421509,0.00312538
4976.32302246,0.00316546
4978.25182983,0.00311426
4980.18063721,0.00308623
4982.10944458,0.00308209
4984.03825195,0.00310079
4985.96705933,0.00311710
4987.89586670,0.00308229
4989.82467407,0.00308102
4991.75348145,0.00307394
4993.68228882,0.00305942
4995.61109619,0.00311029
4997.53990356,0.00309037
4999.46871094,0.00299000
5001.39751831,0.00301139
5003.32632568,0.00302588
5005.25513306,0.00304837
5007.18394043,0.00301423
5009.11274780,0.00297775
5011.04155518,0.00310109
5012.97036255,0.00303996
5014.89916992,0.00299161
5016.82797729,0.00297551
5018.75678467,0.00289727
5020.68559204,0.00299209
5022.61439941,0.00294773
5024.54320679,0.00289517
5026.47201416,0.00295802
5028.40082153,0.00287300
5030.32962891,0.00282734
5032.25843628,0.00287589
5034.18724365,0.00286648
5036.11605103,0.00281551
5038.04485840,0.00281861
5039.97366577,0.00285817
5041.90247314,0.00286454
5043.83128052,0.00283396
5045.76008789,0.00279223
5047.68889526,0.00286278
5049.61770264,0.00286628
5051.54651001,0.00276079
5053.47531738,0.00283608
5055.40412476,0.00280477
5057.33293213,0.00275872
5059.26173950,0.00282585
5061.19054687,0.00272804
5063.11935425,0.00280226
5065.04816162,0.00280344
5066.97696899,0.00266556
5068.90577637,0.00277760
5070.83458374,0.00278798
5072.76339111,0.00270577
5074.69219849,0.00265871
5076.62100586,0.00268105
5078.54981323,0.00273097
5080.47862061,0.00266910
5082.40742798,0.00267659
5084.33623535,0.00267636
5086.26504272,0.00268201
5088.19385010,0.00269661
5090.12265747,0.00261414
5092.05146484,0.00264462
5093.98027222,0.00268402
5095.90907959,0.00264427
5097.83788696,0.00263054
5099.76669434,0.00257761
5101.69550171,0.00258972
5103.62430908,0.00260412
5105.55311645,0.00256222
5107.48192383,0.00262660
5109.41073120,0.00263610
5111.33953857,0.00256652
5113.26834595,0.00252351
5115.19715332,0.00252267
5117.12596069,0.00258875
5119.05476807,0.00264612
5120.98357544,0.00261493
5122.91238281,0.00248406
5124.84119019,0.00249456
5126.76999756,0.00249864
5128.69880493,0.00248775
5130.62761230,0.00261158
5132.55641968,0.00249047
5134.48522705,0.00248410
5136.41403442,0.00255662
5138.34284180,0.00241467
5140.27164917,0.00246682
5142.20045654,0.00246136
5144.12926392,0.00243154
5146.05807129,0.00249529
5147.98687866,0.00242098
5149.91568603,0.00237560
5151.84449341,0.00238182
5153.77330078,0.00240689
5155.70210815,0.00238369
5157.63091553,0.00237259
5159.55972290,0.00243534
5161.48853027,0.00240305
5163.41733765,0.00237399
5165.34614502,0.00240959
5167.27495239,0.00242066
5169.20375977,0.00237484
5171.13256714,0.00238488
5173.06137451,0.00244382
5174.99018188,0.00235429
5176.91898926,0.00229795
5178.84779663,0.00233346
5180.77660400,0.00234325
5182.70541138,0.00236923
5184.63421875,0.00232237
5186.56302612,0.00231108
5188.49183350,0.00234560
5190.42064087,0.00227146
5192.34944824,0.00224015
5194.27825562,0.00227497
5196.20706299,0.00225152
5198.13587036,0.00224638
5200.06467773,0.00226150
5201.99348511,0.00225202
5203.92229248,0.00232382
5205.85109985,0.00227933
5207.77990723,0.00215737
5209.70871460,0.00221967
5211.63752197,0.00220997
5213.56632935,0.00220650
5215.49513672,0.00226907
5217.42394409,0.00221711
5219.35275146,0.00217030
5221.28155884,0.00217439
5223.21036621,0.00218458
5225.13917358,0.00205564
5227.06798096,0.00206169
5228.99678833,0.00223224
5230.92559570,0.00216104
5232.85440308,0.00213650
5234.78321045,0.00221037
5236.71201782,0.00216507
5238.64082520,0.00210578
5240.56963257,0.00212653
5242.49843994,0.00213312
5244.42724731,0.00208196
5246.35605469,0.00211666
5248.28486206,0.00205093
5250.21366943,0.00206024
5252.14247681,0.00216625
5254.07128418,0.00201286
5256.00009155,0.00204901
5257.92889893,0.00214999
5259.85770630,0.00203877
5261.78651367,0.00208394
5263.71532104,0.00209997
5265.64412842,0.00206478
5267.57293579,0.00209627
5269.50174316,0.00203760
5271.43055054,0.00202126
5273.35935791,0.00207781
5275.28816528,0.00208716
5277.21697266,0.00205246
5279.14578003,0.00201937
5281.07458740,0.00204108
5283.00339478,0.00200334
5284.93220215,0.00194219
5286.86100952,0.00201220
5288.78981689,0.00203429
5290.71862427,0.00202083
5292.64743164,0.00203294
5294.57623901,0.00202994
5296.50504639,0.00202231
5298.43385376,0.00192437
5300.36266113,0.00200930
5302.29146851,0.00205963
5304.22027588,0.00191806
5306.14908325,0.00201349
5308.07789062,0.00198893
5310.00669800,0.00192406
5311.93550537,0.00200372
5313.86431274,0.00193364
5315.79312012,0.00195933
5317.72192749,0.00199042
5319.65073486,0.00191026
5321.57954224,0.00188639
5323.50834961,0.00190616
5325.43715698,0.00187988
5327.36596436,0.00178532
5329.29477173,0.00181651
5331.22357910,0.00190586
5333.15238647,0.00185321
5335.08119385,0.00181229
5337.01000122,0.00183270
5338.93880859,0.00176857
5340.86761597,0.00181005
5342.79642334,0.00184040
5344.72523071,0.00173353
5346.65403809,0.00178673
5348.58284546,0.00184000
5350.51165283,0.00184153
5352.44046020,0.00180185
5354.36926758,0.00178683
5356.29807495,0.00183399
5358.22688232,0.00177595
5360.15568970,0.00183106
5362.08449707,0.00180442
5364.01330444,0.00170193
5365.94211182,0.00175253
5367.87091919,0.00177120
5369.79972656,0.00177943
5371.72853394,0.00179800
5373.65734131,0.00181221
5375.58614868,0.00172648
5377.51495605,0.00168476
5379.44376343,0.00173895
5381.37257080,0.00175413
5383.30137817,0.00176814
5385.23018555,0.00170937
5387.15899292,0.00166282
5389.08780029,0.00164736
5391.01660767,0.00170458
5392.94541504,0.00172001
5394.87422241,0.00169008
5396.80302978,0.00173993
5398.73183716,0.00168283
5400.66064453,0.00168090
5402.58945190,0.00167152
5404.51825928,0.00164322
5406.44706665,0.00166594
5408.37587402,0.00163132
5410.30468140,0.00169257
5412.23348877,0.00166219
5414.16229614,0.00159794
5416.09110352,0.00167494
5418.01991089,0.00169718
5419.94871826,0.00167247
5421.87752563,0.00164739
5423.80633301,0.00159386
5425.73514038,0.00166367
5427.66394775,0.00171819
5429.59275513,0.00155656
5431.52156250,0.00160932
5433.45036987,0.00166844
5435.37917725,0.00153774
5437.30798462,0.00163347
5439.23679199,0.00161982
5441.16559936,0.00149698
5443.09440674,0.00157447
5445.02321411,0.00158097
5446.95202148,0.00156062
5448.88082886,0.00162066
5450.80963623,0.00154252
5452.73844360,0.00153118
5454.66725098,0.00159281
5456.59605835,0.00156176
5458.52486572,0.00162316
5460.45367310,0.00157354
5462.38248047,0.00150176
5464.31128784,0.00150569
5466.24009521,0.00154655
5468.16890259,0.00162960
5470.09770996,0.00153904
5472.02651733,0.00153883
5473.95532471,0.00151195
5475.88413208,0.00145904
5477.81293945,0.00151897
5479.74174683,0.00154346
5481.67055420,0.00158577
5483.59936157,0.00147271
5485.52816895,0.00148895
5487.45697632,0.00151755
5489.38578369,0.00144306
5491.31459106,0.00150840
5493.24339844,0.00148382
5495.17220581,0.00152104
5497.10101318,0.00148177
5499.02982056,0.00141042
5500.95862793,0.00145229
5502.88743530,0.00146651
5504.81624268,0.00149565
5506.74505005,0.00139464
5508.67385742,0.00142427
5510.60266479,0.00150383
5512.53147217,0.00142487
5514.46027954,0.00140604
5516.38908691,0.00141998
5518.31789429,0.00143049
5520.24670166,0.00139674
5522.17550903,0.00139882
5524.10431641,0.00142367
5526.03312378,0.00142464
5527.96193115,0.00141494
5529.89073853,0.00138612
5531.81954590,0.00139858
5533.74835327,0.00142924
5535.67716064,0.00143639
5537.60596802,0.00135343
5539.53477539,0.00138489
5541.46358276,0.00143674
5543.39239014,0.00134737
5545.32119751,0.00136680
5547.25000488,0.00134819
5549.17881226,0.00131568
5551.10761963,0.00135332
5553.03642700,0.00133275
5554.96523437,0.00132117
5556.89404175,0.00133733
5558.82284912,0.00137774
5560.75165649,0.00135246
5562.68046387,0.00129933
5564.60927124,0.00133239
5566.53807861,0.00136179
5568.46688599,0.00129876
5570.39569336,0.00126828
5572.32450073,0.00137156
5574.25330811,0.00135765
5576.18211548,0.00127526
5578.11092285,0.00128860
5580.03973022,0.00126756
5581.96853760,0.00131378
5583.89734497,0.00133452
5585.82615234,0.00130204
5587.75495972,0.00135780
5589.68376709,0.00129236
5591.61257446,0.00125100
5593.54138184,0.00127420
5595.47018921,0.00121762
5597.39899658,0.00125314
5599.32780395,0.00130107
5601.25661133,0.00129607
5603.18541870,0.00126201
5605.11422607,0.00125300
5607.04303345,0.00123301
5608.97184082,0.00122118
5610.90064819,0.00128705
5612.82945557,0.00123792
5614.75826294,0.00124363
5616.68707031,0.00123611
5618.61587769,0.00119009
5620.54468506,0.00126076
5622.47349243,0.00122807
5624.40229980,0.00119085
5626.33110718,0.00115003
5628.25991455,0.00124284
5630.18872192,0.00128554
5632.11752930,0.00114679
5634.04633667,0.00125813
5635.97514404,0.00126564
5637.90395142,0.00118685
5639.83275879,0.00120783
5641.76156616,0.00117966
5643.69037353,0.00117127
5645.61918091,0.00114272
5647.54798828,0.00118390
5649.47679565,0.00119236
5651.40560303,0.00117030
5653.33441040,0.00120445
5655.26321777,0.00119716
5657.19202515,0.00111752
5659.12083252,0.00111076
5661.04963989,0.00117157
5662.97844727,0.00113540
5664.90725464,0.00116736
5666.83606201,0.00116025
5668.76486938,0.00118282
5670.69367676,0.00118164
5672.62248413,0.00111176
5674.55129150,0.00116720
5676.48009888,0.00103650
5678.40890625,0.00107918
5680.33771362,0.00117497
5682.26652100,0.00111803
5684.19532837,0.00121944
5686.12413574,0.00112892
5688.05294311,0.00106804
5689.98175049,0.00111149
5691.91055786,0.00108070
5693.83936523,0.00104641
5695.76817261,0.00105635
5697.69697998,0.00112898
5699.62578735,0.00110831
5701.55459473,0.00109966
5703.48340210,0.00106549
5705.41220947,0.00104565
5707.34101685,0.00105189
5709.26982422,0.00105258
5711.19863159,0.00106112
5713.12743896,0.00105905
5715.05624634,0.00113790
5716.98505371,0.00108027
5718.91386108,0.00106702
5720.84266846,0.00110041
5722.77147583,0.00105948
5724.70028320,0.00104301
5726.62909058,0.00099743
5728.55789795,0.00105753
5730.48670532,0.00102542
5732.41551270,0.00103088
5734.34432007,0.00102589
5736.27312744,0.00095862
5738.20193481,0.00104175
5740.13074219,0.00096570
5742.05954956,0.00098558
5743.98835693,0.00105077
5745.91716431,0.00100528
5747.84597168,0.00103390
5749.77477905,0.00103217
5751.70358643,0.00106388
5753.63239380,0.00102474
5755.56120117,0.00098793
5757.49000854,0.00097896
5759.41881592,0.00092019
5761.34762329,0.00098023
5763.27643066,0.00100302
5765.20523804,0.00093874
5767.13404541,0.00099451
5769.06285278,0.00097978
5770.99166016,0.00089074
5772.92046753,0.00095994
5774.84927490,0.00094648
5776.77808228,0.00095125
5778.70688965,0.00098302
5780.63569702,0.00092157
5782.56450439,0.00098632
5784.49331177,0.00097474
5786.42211914,0.00094237
5788.35092651,0.00096033
5790.27973389,0.00092934
5792.20854126,0.00092542
5794.13734863,0.00092836
5796.06615601,0.00092025
5797.99496338,0.00084605
5799.92377075,0.00084275
5801.85257812,0.00087783
5803.78138550,0.00090138
5805.71019287,0.00095527
5807.63900024,0.00092432
5809.56780762,0.00091557
5811.49661499,0.00092512
5813.42542236,0.00087611
5815.35422974,0.00091742
5817.28303711,0.00097516
5819.21184448,0.00087652
5821.14065186,0.00084668
5823.06945923,0.00084444
5824.99826660,0.00083220
5826.92707397,0.00091255
5828.85588135,0.00086211
5830.78468872,0.00084709
5832.71349609,0.00084363
5834.64230347,0.00083037
5836.57111084,0.00090465
5838.49991821,0.00090366
5840.42872559,0.00089387
5842.35753296,0.00082261
5844.28634033,0.00080863
5846.21514770,0.00084382
5848.14395508,0.00087763
5850.07276245,0.00090333
5852.00156982,0.00082279
5853.93037720,0.00084848
5855.85918457,0.00084209
5857.78799194,0.00081995
5859.71679932,0.00080540
5861.64560669,0.00075997
5863.57441406,0.00084146
5865.50322144,0.00081761
5867.43202881,0.00077415
5869.36083618,0.00081277
5871.28964355,0.00080387
5873.21845093,0.00079317
5875.14725830,0.00081876
5877.07606567,0.00083437
5879.00487305,0.00078218
5880.93368042,0.00079169
5882.86248779,0.00087240
5884.79129517,0.00087844
5886.72010254,0.00079256
5888.64890991,0.00079629
5890.57771728,0.00086423
5892.50652466,0.00079971
5894.43533203,0.00074233
5896.36413940,0.00076469
5898.29294678,0.00079150
5900.22175415,0.00078469
5902.15056152,0.00073296
5904.07936890,0.00076455
5906.00817627,0.00078367
5907.93698364,0.00068905
5909.86579102,0.00075436
5911.79459839,0.00079547
5913.72340576,0.00071185
5915.65221313,0.00078797
5917.58102051,0.00077014
5919.50982788,0.00071745
5921.43863525,0.00072391
5923.36744263,0.00071436
5925.29625000,0.00076697
5927.22505737,0.00071813
5929.15386475,0.00073870
5931.08267212,0.00076262
5933.01147949,0.00070711
5934.94028686,0.00075532
5936.86909424,0.00075979
5938.79790161,0.00073608
5940.72670898,0.00071944
5942.65551636,0.00071096
5944.58432373,0.00070980
5946.51313110,0.00069538
5948.44193848,0.00070842
5950.37074585,0.00075041
5952.29955322,0.00071395
5954.22836060,0.00065923
5956.15716797,0.00076061
5958.08597534,0.00076124
5960.01478271,0.00069695
5961.94359009,0.00067110
5963.87239746,0.00065935
5965.80120483,0.00071048
5967.73001221,0.00065072
5969.65881958,0.00066924
5971.58762695,0.00068910
5973.51643433,0.00067243
5975.44524170,0.00074356
5977.37404907,0.00069263
5979.30285645,0.00067463
5981.23166382,0.00068998
5983.16047119,0.00072615
5985.08927856,0.00069229
5987.01808594,0.00060066
5988.94689331,0.00069799
5990.87570068,0.00068364
5992.80450806,0.00064712
5994.73331543,0.00066864
5996.66212280,0.00063942
5998.59093018,0.00069089
6000.51973755,0.00068836
