399.26312622,0.00050342
401.19193359,0.00060764
403.12074097,0.00070771
405.04954834,0.00099548
406.97835571,0.00036903
408.90716309,0.00092370
410.83597046,0.00104722
412.76477783,0.00064341
414.69358521,0.00128912
416.62239258,0.00074603
418.55119995,0.00082913
420.48000732,0.00072342
422.40881470,0.00002060
424.33762207,0.00073389
426.26642944,0.00077757
428.19523682,0.00046971
430.12404419,0.00098731
432.05285156,0.00115152
433.98165894,0.00100732
435.91046631,0.00099878
437.83927368,0.00077987
439.76808105,0.00109152
441.69688843,0.00074525
443.62569580,0.00036967
445.55450317,0.00123108
447.48331055,0.00067854
449.41211792,0.00046771
451.34092529,0.00089486
453.26973267,0.00060473
455.19854004,0.00069593
457.12734741,0.00041690
459.05615479,0.00039912
460.98496216,0.00063375
462.91376953,0.00058591
464.84257690,0.00050116
466.77138428,0.00046047
468.70019165,0.00030264
470.62899902,0.00026283
472.55780640,0.00046216
474.48661377,0.00027299
476.41542114,0.00037103
478.34422852,0.00025466
480.27303589,0.00021565
482.20184326,0.00054613
484.13065063,0.00066982
486.05945801,0.00041491
487.98826538,0.00013310
489.91707275,0.00057324
491.84588013,0.00016944
493.77468750,0.00006931
495.70349487,0.00010534
497.63230225,0.00003969
499.56110962,0.00033926
501.48991699,-0.00003095
503.41872437,0.00028799
505.34753174,0.00014795
507.27633911,0.00028579
509.20514648,0.00013553
511.13395386,0.00027211
513.06276123,0.00077750
514.99156860,0.00015921
516.92037598,0.00032407
518.84918335,0.00006468
520.77799072,-0.00006091
522.70679810,0.00037746
524.63560547,0.00034978
526.56441284,0.00028596
528.49322021,0.00010734
530.42202759,0.00038856
532.35083496,-0.00006028
534.27964233,-0.00001919
536.20844971,0.00067979
538.13725708,0.00019779
540.06606445,0.00011693
541.99487183,0.00029107
543.92367920,0.00030084
545.85248657,0.00013562
547.78129395,-0.00009761
549.71010132,0.00021313
551.63890869,0.00020631
553.56771606,0.00024246
555.49652344,0.00016145
557.42533081,0.00013772
559.35413818,0.00062360
561.28294556,0.00023816
563.21175293,-0.00000663
565.14056030,0.00014686
567.06936768,0.00004511
568.99817505,0.00030814
570.92698242,0.00010997
572.85578979,-0.00012801
574.78459717,0.00038321
576.71340454,0.00027467
578.64221191,-0.00024114
580.57101929,0.00021370
582.49982666,0.00018105
584.42863403,-0.00015974
586.35744141,0.00060853
588.28624878,0.00033425
590.21505615,-0.00025473
592.14386353,0.00034014
594.07267090,0.00032325
596.00147827,0.00007146
597.93028564,0.00029579
599.85909302,0.00022887
601.78790039,-0.00003586
603.71670776,0.00018142
605.64551514,0.00022517
607.57432251,0.00007995
609.50312988,0.00024759
611.43193726,0.00040232
613.36074463,0.00038010
615.28955200,0.00032281
617.21835938,0.00007272
619.14716675,0.00005328
621.07597412,0.00032127
623.00478149,0.00020000
624.93358887,0.00010117
626.86239624,-0.00001638
628.79120361,-0.00025648
630.72001099,0.00041924
632.64881836,0.00098517
634.57762573,0.00046429
636.50643311,0.00041911
638.43524048,0.00081904
640.36404785,0.00094045
642.29285522,0.00081255
644.22166260,0.00104796
646.15046997,0.00137432
648.07927734,0.00109458
650.00808472,0.00130879
651.93689209,0.00131438
653.86569946,0.00106568
655.79450684,0.00124002
657.72331421,0.00142907
659.65212158,0.00166844
661.58092896,0.00138209
663.50973633,0.00156798
665.43854370,0.00177499
667.36735107,0.00123854
669.29615845,0.00143680
671.22496582,0.00174037
673.15377319,0.00178884
675.08258057,0.00200740
677.01138794,0.00193621
678.94019531,0.00192597
680.86900269,0.00194714
682.79781006,0.00173580
684.72661743,0.00190513
686.65542480,0.00170109
688.58423218,0.00169592
690.51303955,0.00225375
692.44184692,0.00181748
694.37065430,0.00204447
696.29946167,0.00250855
698.22826904,0.00261696
700.15707642,0.00336724
702.08588379,0.00309663
704.01469116,0.00269766
705.94349854,0.00267304
707.87230591,0.00223700
709.80111328,0.00160377
711.72992065,0.00104894
713.65872803,0.00089526
715.58753540,0.00056397
717.51634277,0.00043584
719.44515015,0.00009856
721.37395752,-0.00024384
723.30276489,0.00017668
725.23157227,0.00020741
727.16037964,0.00010841
729.08918701,0.00002355
731.01799438,-0.00006019
732.94680176,0.00017133
734.87560913,0.00016307
736.80441650,0.00024345
738.73322388,0.00023365
740.66203125,-0.00009934
742.59083862,-0.00018697
744.51964600,-0.00003291
746.44845337,0.00040622
748.37726074,0.00016684
750.30606812,-0.00023770
752.23487549,0.00009176
754.16368286,-0.00009484
756.09249023,0.00013096
758.02129761,0.00040955
759.95010498,0.00005957
761.87891235,0.00020761
763.80771973,0.00016895
765.73652710,0.00013925
767.66533447,0.00037611
769.59414185,0.00003826
771.52294922,-0.00015721
773.45175659,0.00037410
775.38056396,0.00023642
777.30937134,-0.00003608
779.23817871,0.00049290
781.16698608,0.00030938
783.09579346,0.00002127
785.02460083,0.00020991
786.95340820,0.00032546
788.88221558,0.00029276
790.81102295,0.00027082
792.73983032,0.00045656
794.66863770,0.00026366
796.59744507,0.00042572
798.52625244,0.00049571
800.45505981,0.00042528
802.38386719,0.00058888
804.31267456,0.00015937
806.24148193,0.00005051
808.17028931,0.00029953
810.09909668,0.00030428
812.02790405,0.00002712
813.95671143,0.00025925
815.88551880,0.00029036
817.81432617,0.00009575
819.74313354,0.00060178
821.67194092,0.00012770
823.60074829,0.00026440
825.52955566,0.00069138
827.45836304,0.00006079
829.38717041,0.00031295
831.31597778,0.00051205
833.24478516,0.00068735
835.17359253,0.00098983
837.10239990,0.00087445
839.03120728,0.00077120
840.96001465,0.00064254
842.88882202,0.00067014
844.81762939,0.00045214
846.74643677,0.00048034
848.67524414,0.00055370
850.60405151,0.00043334
852.53285889,0.00062993
854.46166626,0.00050814
856.39047363,0.00046991
858.31928101,0.00051897
860.24808838,0.00036402
862.17689575,0.00031645
864.10570313,0.00007331
866.03451050,0.00029895
867.96331787,0.00061038
869.89212524,0.00025601
871.82093262,0.00021538
873.74973999,0.00023209
875.67854736,0.00041316
877.60735474,0.00057535
879.53616211,0.00032319
881.46496948,0.00040606
883.39377686,0.00024525
885.32258423,0.00024019
887.25139160,0.00041529
889.18019897,0.00024374
891.10900635,0.00016485
893.03781372,0.00011901
894.96662109,0.00041475
896.89542847,0.00046447
898.82423584,0.00045813
900.75304321,0.00055754
902.68185059,0.00049954
904.61065796,0.00047912
906.53946533,0.00025635
908.46827271,0.00049865
910.39708008,0.00051150
912.32588745,0.00039019
914.25469482,0.00040703
916.18350220,0.00039401
918.11230957,0.00076398
920.04111694,0.00048226
921.96992432,0.00071109
923.89873169,0.00093997
925.82753906,0.00057388
927.75634644,0.00100438
929.68515381,0.00104838
931.61396118,0.00104685
933.54276855,0.00113516
935.47157593,0.00113351
937.40038330,0.00114068
939.32919067,0.00082552
941.25799805,0.00119474
943.18680542,0.00136926
945.11561279,0.00113733
947.04442017,0.00124862
948.97322754,0.00115011
950.90203491,0.00112937
952.83084229,0.00123253
954.75964966,0.00114808
956.68845703,0.00104059
958.61726440,0.00097294
960.54607178,0.00094990
962.47487915,0.00110933
964.40368652,0.00121802
966.33249390,0.00109118
968.26130127,0.00113141
970.19010864,0.00130278
972.11891602,0.00137337
974.04772339,0.00159737
975.97653076,0.00177244
977.90533813,0.00182484
979.83414551,0.00200557
981.76295288,0.00200015
983.69176025,0.00214580
985.62056763,0.00232849
987.54937500,0.00239414
989.47818237,0.00294561
991.40698975,0.00341364
993.33579712,0.00357703
995.26460449,0.00382722
997.19341187,0.00420986
999.12221924,0.00463794
1001.05102661,0.00504823
1002.97983398,0.00511128
1004.90864136,0.00520329
1006.83744873,0.00588864
1008.76625610,0.00624688
1010.69506348,0.00659621
1012.62387085,0.00698780
1014.55267822,0.00720169
1016.48148560,0.00765324
1018.41029297,0.00791104
1020.33910034,0.00832285
1022.26790771,0.00865436
1024.19671509,0.00904396
1026.12552246,0.00938076
1028.05432983,0.00958131
1029.98313721,0.01002302
1031.91194458,0.01008034
1033.84075195,0.01048682
1035.76955933,0.01060827
1037.69836670,0.01062671
1039.62717407,0.01115956
1041.55598145,0.01084507
1043.48478882,0.01050746
1045.41359619,0.01052152
1047.34240356,0.01047525
1049.27121094,0.01026314
1051.20001831,0.00997131
1053.12882568,0.00975140
1055.05763306,0.00957189
1056.98644043,0.00968090
1058.91524780,0.00940845
1060.84405518,0.00895505
1062.77286255,0.00887937
1064.70166992,0.00879444
1066.63047729,0.00820968
1068.55928467,0.00775406
1070.48809204,0.00771470
1072.41689941,0.00737386
1074.34570679,0.00702877
1076.27451416,0.00656234
1078.20332153,0.00627092
1080.13212891,0.00594873
1082.06093628,0.00561017
1083.98974365,0.00562071
1085.91855103,0.00522195
1087.84735840,0.00505502
1089.77616577,0.00484118
1091.70497314,0.00462401
1093.63378052,0.00456215
1095.56258789,0.00423048
1097.49139526,0.00428161
1099.42020264,0.00423881
1101.34901001,0.00401410
1103.27781738,0.00385700
1105.20662476,0.00393565
1107.13543213,0.00382017
1109.06423950,0.00361027
1110.99304687,0.00372044
1112.92185425,0.00353040
1114.85066162,0.00361571
1116.77946899,0.00362957
1118.70827637,0.00362876
1120.63708374,0.00378705
1122.56589111,0.00379256
1124.49469849,0.00387699
1126.42350586,0.00371236
1128.35231323,0.00390707
1130.28112061,0.00393046
1132.20992798,0.00393662
1134.13873535,0.00431001
1136.06754272,0.00444120
1137.99635010,0.00468705
1139.92515747,0.00471066
1141.85396484,0.00501192
1143.78277222,0.00555525
1145.71157959,0.00590043
1147.64038696,0.00611631
1149.56919434,0.00625706
1151.49800171,0.00669627
1153.42680908,0.00690883
1155.35561646,0.00730207
1157.28442383,0.00773716
1159.21323120,0.00782103
1161.14203857,0.00806696
1163.07084595,0.00828463
1164.99965332,0.00877135
1166.92846069,0.00929479
1168.85726807,0.00951388
1170.78607544,0.00986588
1172.71488281,0.01022312
1174.64369019,0.01052145
1176.57249756,0.01098858
1178.50130493,0.01148778
1180.43011230,0.01184962
1182.35891968,0.01211035
1184.28772705,0.01274710
1186.21653442,0.01360576
1188.14534180,0.01408723
1190.07414917,0.01472462
1192.00295654,0.01527180
1193.93176392,0.01598363
1195.86057129,0.01703825
1197.78937866,0.01743573
1199.71818604,0.01827425
1201.64699341,0.01925725
1203.57580078,0.01966118
1205.50460815,0.02057004
1207.43341553,0.02140978
1209.36222290,0.02200147
1211.29103027,0.02271971
1213.21983765,0.02337722
1215.14864502,0.02404721
1217.07745239,0.02461328
1219.00625977,0.02505119
1220.93506714,0.02532130
1222.86387451,0.02551262
1224.79268188,0.02568338
1226.72148926,0.02588357
1228.65029663,0.02612346
1230.57910400,0.02618382
1232.50791138,0.02643043
1234.43671875,0.02661103
1236.36552612,0.02647066
1238.29433350,0.02643967
1240.22314087,0.02640662
1242.15194824,0.02651619
1244.08075562,0.02631608
1246.00956299,0.02601961
1247.93837036,0.02609541
1249.86717773,0.02570136
1251.79598511,0.02547394
1253.72479248,0.02546649
1255.65359985,0.02507967
1257.58240723,0.02479555
1259.51121460,0.02444733
1261.44002197,0.02405189
1263.36882935,0.02391380
1265.29763672,0.02367508
1267.22644409,0.02324664
1269.15525146,0.02308451
1271.08405884,0.02268615
1273.01286621,0.02218192
1274.94167358,0.02194054
1276.87048096,0.02146851
1278.79928833,0.02123956
1280.72809570,0.02094091
1282.65690308,0.02035889
1284.58571045,0.01989174
1286.51451782,0.01957519
1288.44332520,0.01930497
1290.37213257,0.01886554
1292.30093994,0.01887604
1294.22974731,0.01895318
1296.15855469,0.01872702
1298.08736206,0.01865241
1300.01616943,0.01870236
1301.94497681,0.01872554
1303.87378418,0.01884278
1305.80259155,0.01919293
1307.73139893,0.01945974
1309.66020630,0.01995081
1311.58901367,0.02002795
1313.51782104,0.02004260
1315.44662842,0.02084698
1317.37543579,0.02118628
1319.30424316,0.02157060
1321.23305054,0.02227701
1323.16185791,0.02306955
1325.09066528,0.02398499
1327.01947266,0.02453582
1328.94828003,0.02514260
1330.87708740,0.02582510
1332.80589478,0.02652716
1334.73470215,0.02696297
1336.66350952,0.02703379
1338.59231689,0.02669506
1340.52112427,0.02709905
1342.44993164,0.02854782
1344.37873901,0.02873498
1346.30754639,0.02872407
1348.23635376,0.02864449
1350.16516113,0.02831665
1352.09396851,0.02864596
1354.02277588,0.02799598
1355.95158325,0.02767098
1357.88039062,0.02776200
1359.80919800,0.02720072
1361.73800537,0.02585740
1363.66681274,0.02529656
1365.59562012,0.02696614
1367.52442749,0.02639091
1369.45323486,0.02590756
1371.38204224,0.02657305
1373.31084961,0.02506832
1375.23965698,0.02527425
1377.16846436,0.02599169
1379.09727173,0.02591898
1381.02607910,0.02577055
1382.95488647,0.02579827
1384.88369385,0.02623709
1386.81250122,0.02467409
1388.74130859,0.02488439
1390.67011597,0.02736266
1392.59892334,0.02646819
1394.52773071,0.02425379
1396.45653809,0.02565626
1398.38534546,0.02574722
1400.31415283,0.02531415
1402.24296021,0.02781240
1404.17176758,0.02611243
1406.10057495,0.02618202
1408.02938232,0.02766431
1409.95818970,0.02643577
1411.88699707,0.02721713
1413.81580444,0.02627366
1415.74461182,0.02662383
1417.67341919,0.02372603
1419.60222656,0.02078928
1421.53103394,0.02455802
1423.45984131,0.02388332
1425.38864868,0.02339455
1427.31745605,0.02397590
1429.24626343,0.02181583
1431.17507080,0.02117502
1433.10387817,0.02171108
1435.03268555,0.01960800
1436.96149292,0.01629698
1438.89030029,0.01910122
1440.81910767,0.01971575
1442.74791504,0.01815980
1444.67672241,0.01925575
1446.60552979,0.01736341
1448.53433716,0.01766305
1450.46314453,0.01849079
1452.39195190,0.01875618
1454.32075928,0.01939047
1456.24956665,0.01550979
1458.17837402,0.01592344
1460.10718140,0.02214253
1462.03598877,0.02388823
1463.96479614,0.02324235
1465.89360352,0.02411469
1467.82241089,0.02815758
1469.75121826,0.03021606
1471.68002563,0.02574847
1473.60883301,0.02735881
1475.53764038,0.03174508
1477.46644775,0.03419337
1479.39525513,0.03813095
1481.32406250,0.03836205
1483.25286987,0.04108338
1485.18167725,0.04230276
1487.11048462,0.04094540
1489.03929199,0.04031594
1490.96809937,0.04031335
1492.89690674,0.04859406
1494.82571411,0.04709284
1496.75452148,0.04110842
1498.68332886,0.04738437
1500.61213623,0.04890286
1502.54094360,0.05307560
1504.46975098,0.04977819
1506.39855835,0.03379901
1508.32736572,0.04243178
1510.25617310,0.05147016
1512.18498047,0.04975438
1514.11378784,0.05459539
1516.04259521,0.04817963
1517.97140259,0.05036571
1519.90020996,0.04882671
1521.82901733,0.04079138
1523.75782471,0.05183848
1525.68663208,0.05086837
1527.61543945,0.05028019
1529.54424683,0.05695835
1531.47305420,0.05431142
1533.40186157,0.04893569
1535.33066895,0.05231907
1537.25947632,0.05693996
1539.18828369,0.03827936
1541.11709106,0.03989264
1543.04589844,0.05007108
1544.97470581,0.04745089
1546.90351318,0.05830153
1548.83232056,0.05385953
1550.76112793,0.05533433
1552.68993530,0.05562101
1554.61874268,0.04931897
1556.54755005,0.05352446
1558.47635742,0.03514260
1560.40516479,0.03837231
1562.33397217,0.05915422
1564.26277954,0.05517948
1566.19158691,0.05705938
1568.12039429,0.05647787
1570.04920166,0.04863364
1571.97800903,0.05786951
1573.90681641,0.05904232
1575.83562378,0.04497646
1577.76443115,0.05171864
1579.69323853,0.05972947
1581.62204590,0.05708646
1583.55085327,0.05883852
1585.47966064,0.05777481
1587.40846802,0.05838143
1589.33727539,0.05783451
1591.26608276,0.05780720
1593.19489014,0.05809257
1595.12369751,0.05713973
1597.05250488,0.05814686
1598.98131226,0.05770224
1600.91011963,0.05804893
1602.83892700,0.05715316
1604.76773437,0.05818608
1606.69654175,0.05709625
1608.62534912,0.05689516
1610.55415649,0.05703539
1612.48296387,0.05750937
1614.41177124,0.05856020
1616.34057861,0.04624612
1618.26938599,0.05040390
1620.19819336,0.06066559
1622.12700073,0.05270622
1624.05580811,0.05287952
1625.98461548,0.05625877
1627.91342285,0.05556043
1629.84223022,0.05547581
1631.77103760,0.06009652
1633.69984497,0.05448962
1635.62865234,0.04301957
1637.55745972,0.05166313
1639.48626709,0.05826470
1641.41507446,0.05663946
1643.34388184,0.05840839
1645.27268921,0.05159384
1647.20149658,0.04383943
1649.13030396,0.05681285
1651.05911133,0.05419375
1652.98791870,0.03155662
1654.91672607,0.04519213
1656.84553345,0.06001427
1658.77434082,0.05714646
1660.70314819,0.05877133
1662.63195557,0.05260058
1664.56076294,0.05583094
1666.48957031,0.06106708
1668.41837769,0.05183563
1670.34718506,0.04988689
1672.27599243,0.05825419
1674.20479980,0.05310466
1676.13360718,0.05032434
1678.06241455,0.05960423
1679.99122192,0.05725743
1681.92002930,0.05615260
1683.84883667,0.04417982
1685.77764404,0.04371770
1687.70645142,0.06316577
1689.63525879,0.05375847
1691.56406616,0.06009702
1693.49287354,0.06180172
1695.42168091,0.04244661
1697.35048828,0.05421709
1699.27929565,0.04677559
1701.20810303,0.04090900
1703.13691040,0.05935104
1705.06571777,0.05365479
1706.99452515,0.05409857
1708.92333252,0.06004085
1710.85213989,0.05722451
1712.78094727,0.05851753
1714.70975464,0.05366956
1716.63856201,0.04725718
1718.56736938,0.04625744
1720.49617676,0.05653233
1722.42498413,0.05965008
1724.35379150,0.05442340
1726.28259888,0.06039930
1728.21140625,0.05524234
1730.14021362,0.05512300
1732.06902100,0.05407695
1733.99782837,0.03884500
1735.92663574,0.05069499
1737.85544312,0.05729669
1739.78425049,0.04964259
1741.71305786,0.05488515
1743.64186523,0.05541383
1745.57067261,0.05586040
1747.49947998,0.05614750
1749.42828735,0.05296247
1751.35709473,0.05043088
1753.28590210,0.05686124
1755.21470947,0.06021785
1757.14351685,0.05374814
1759.07232422,0.06033050
1761.00113159,0.05617734
1762.92993896,0.05356721
1764.85874634,0.06323534
1766.78755371,0.05587231
1768.71636108,0.05624941
1770.64516846,0.05580936
1772.57397583,0.04907388
1774.50278320,0.05597354
1776.43159058,0.05987232
1778.36039795,0.05884858
1780.28920532,0.05790595
1782.21801270,0.05861466
1784.14682007,0.05863898
1786.07562744,0.05727464
1788.00443481,0.06060661
1789.93324219,0.05900333
1791.86204956,0.05224736
1793.79085693,0.05473874
1795.71966431,0.05963217
1797.64847168,0.05865172
1799.57727905,0.05768828
1801.50608643,0.05636802
1803.43489380,0.05888710
1805.36370117,0.06057715
1807.29250854,0.05947823
1809.22131592,0.05970851
1811.15012329,0.05754918
1813.07893066,0.05999586
1815.00773804,0.06028517
1816.93654541,0.05945891
1818.86535278,0.06018015
1820.79416016,0.05971820
1822.72296753,0.06090205
1824.65177490,0.05597220
1826.58058228,0.05845689
1828.50938965,0.05852665
1830.43819702,0.05399978
1832.36700439,0.06024586
1834.29581177,0.05976463
1836.22461914,0.05947315
1838.15342651,0.05935404
1840.08223389,0.05985504
1842.01104126,0.06000427
1843.93984863,0.05188008
1845.86865601,0.05591413
1847.79746338,0.05988012
1849.72627075,0.05846780
1851.65507812,0.06048989
1853.58388550,0.05909747
1855.51269287,0.05980305
1857.44150024,0.05937812
1859.37030762,0.05893042
1861.29911499,0.05955423
1863.22792236,0.05877607
1865.15672974,0.05961757
1867.08553711,0.05723606
1869.01434448,0.05412987
1870.94315186,0.05679693
1872.87195923,0.05948380
1874.80076660,0.05851888
1876.72957397,0.05891727
1878.65838135,0.05865055
1880.58718872,0.05853046
1882.51599609,0.05907530
1884.44480347,0.05775464
1886.37361084,0.05879523
1888.30241821,0.05719024
1890.23122559,0.05583090
1892.16003296,0.05856615
1894.08884033,0.05750366
1896.01764771,0.05721664
1897.94645508,0.05822383
1899.87526245,0.05775905
1901.80406982,0.05813058
1903.73287720,0.05765352
1905.66168457,0.05773071
1907.59049194,0.05728108
1909.51929932,0.05686069
1911.44810669,0.05724178
1913.37691406,0.05732072
1915.30572144,0.05803993
1917.23452881,0.05501468
1919.16333618,0.05504657
1921.09214355,0.05772673
1923.02095093,0.05527730
1924.94975830,0.05663460
1926.87856567,0.05763782
1928.80737305,0.05672339
1930.73618042,0.05756697
1932.66498779,0.05665042
1934.59379517,0.05730337
1936.52260254,0.05677543
1938.45140991,0.05692349
1940.38021729,0.05703021
1942.30902466,0.05475581
1944.23783203,0.05587316
1946.16663940,0.05675047
1948.09544678,0.05665537
1950.02425415,0.05684785
1951.95306152,0.05669284
1953.88186890,0.05673521
1955.81067627,0.05644014
1957.73948364,0.05675886
1959.66829102,0.05665540
1961.59709839,0.05651299
1963.52590576,0.05675524
1965.45471313,0.05628213
1967.38352051,0.05552979
1969.31232788,0.05617532
1971.24113525,0.05657952
1973.16994263,0.05609082
1975.09875000,0.05655700
1977.02755737,0.05627396
1978.95636475,0.05637605
1980.88517212,0.05628390
1982.81397949,0.05594203
1984.74278687,0.05637409
1986.67159424,0.05569429
1988.60040161,0.05579256
1990.52920898,0.05523917
1992.45801636,0.05450048
1994.38682373,0.05562438
1996.31563110,0.05571185
1998.24443848,0.05532262
2000.17324585,0.05545538
2002.10205322,0.05546495
2004.03086060,0.05532025
2005.95966797,0.05506313
2007.88847534,0.05497726
2009.81728271,0.05496933
2011.74609009,0.05481260
2013.67489746,0.05479912
2015.60370483,0.05439273
2017.53251221,0.05390098
2019.46131958,0.05433333
2021.39012695,0.05434281
2023.31893433,0.05413933
2025.24774170,0.05415498
2027.17654907,0.05405924
2029.10535645,0.05404159
2031.03416382,0.05374525
2032.96297119,0.05375160
2034.89177856,0.05367459
2036.82058594,0.05350193
2038.74939331,0.05344697
2040.67820068,0.05315062
2042.60700806,0.05318449
2044.53581543,0.05315798
2046.46462280,0.05306125
2048.39343018,0.05314562
2050.32223755,0.05289890
2052.25104492,0.05275064
2054.17985229,0.05274744
2056.10865967,0.05262021
2058.03746704,0.05266651
2059.96627441,0.05238163
2061.89508179,0.05225811
2063.82388916,0.05217043
2065.75269653,0.05177654
2067.68150391,0.05208406
2069.61031128,0.05201899
2071.53911865,0.05181774
2073.46792603,0.05186590
2075.39673340,0.05162159
2077.32554077,0.05164885
2079.25434814,0.05155773
2081.18315552,0.05139170
2083.11196289,0.05126798
2085.04077026,0.05137186
2086.96957764,0.05126291
2088.89838501,0.05098448
2090.82719238,0.05095818
2092.75599976,0.05079708
2094.68480713,0.05093062
2096.61361450,0.05087582
2098.54242187,0.05084242
2100.47122925,0.05074140
2102.40003662,0.05055531
2104.32884399,0.05063937
2106.25765137,0.05030070
2108.18645874,0.05026307
2110.11526611,0.05030776
2112.04407349,0.05018214
2113.97288086,0.05016277
2115.90168823,0.05011602
2117.83049561,0.05000304
2119.75930298,0.04986303
2121.68811035,0.04983599
2123.61691772,0.04964556
2125.54572510,0.04973376
2127.47453247,0.04970456
2129.40333984,0.04966611
2131.33214722,0.04967275
2133.26095459,0.04955762
2135.18976196,0.04960826
2137.11856934,0.04923369
2139.04737671,0.04937491
2140.97618408,0.04929481
2142.90499146,0.04889105
2144.83379883,0.04920454
2146.76260620,0.04914376
2148.69141357,0.04905193
2150.62022095,0.04899834
2152.54902832,0.04890229
2154.47783569,0.04890380
2156.40664307,0.04883409
2158.33545044,0.04884733
2160.26425781,0.04880502
2162.19306519,0.04881862
2164.12187256,0.04873108
2166.05067993,0.04856512
2167.97948730,0.04858477
2169.90829468,0.04856624
2171.83710205,0.04831258
2173.76590942,0.04834111
2175.69471680,0.04837538
2177.62352417,0.04822453
2179.55233154,0.04828794
2181.48113892,0.04819028
2183.40994629,0.04812717
2185.33875366,0.04805753
2187.26756104,0.04804378
2189.19636841,0.04800910
2191.12517578,0.04792405
2193.05398315,0.04789705
2194.98279053,0.04774785
2196.91159790,0.04792672
2198.84040527,0.04783216
2200.76921265,0.04775220
2202.69802002,0.04782015
2204.62682739,0.04757769
2206.55563477,0.04756363
2208.48444214,0.04747975
2210.41324951,0.04741199
2212.34205688,0.04741336
2214.27086426,0.04741992
2216.19967163,0.04735646
2218.12847900,0.04730610
2220.05728638,0.04725455
2221.98609375,0.04702936
2223.91490112,0.04700886
2225.84370850,0.04696459
2227.77251587,0.04697815
2229.70132324,0.04691918
2231.63013062,0.04691466
2233.55893799,0.04689618
2235.48774536,0.04668774
2237.41655273,0.04666086
2239.34536011,0.04649380
2241.27416748,0.04651142
2243.20297485,0.04644740
2245.13178223,0.04638503
2247.06058960,0.04636703
2248.98939697,0.04608617
2250.91820435,0.04605988
2252.84701172,0.04604939
2254.77581909,0.04611814
2256.70462646,0.04600745
2258.63343384,0.04594835
2260.56224121,0.04605979
2262.49104858,0.04594018
2264.41985596,0.04578803
2266.34866333,0.04563284
2268.27747070,0.04568744
2270.20627808,0.04562160
2272.13508545,0.04556897
2274.06389282,0.04545283
2275.99270020,0.04545944
2277.92150757,0.04557060
2279.85031494,0.04535415
2281.77912231,0.04540043
2283.70792969,0.04529952
2285.63673706,0.04536793
2287.56554443,0.04529150
2289.49435181,0.04489757
2291.42315918,0.04496695
2293.35196655,0.04483830
2295.28077393,0.04476973
2297.20958130,0.04477560
2299.13838867,0.04453502
2301.06719604,0.04427566
2302.99600342,0.04415077
2304.92481079,0.04389350
2306.85361816,0.04357800
2308.78242554,0.04340004
2310.71123291,0.04298937
2312.64004028,0.04273157
2314.56884766,0.04242228
2316.49765503,0.04206649
2318.42646240,0.04147606
2320.35526978,0.04080211
2322.28407715,0.04038859
2324.21288452,0.03967442
2326.14169189,0.03936320
2328.07049927,0.03895052
2329.99930664,0.03840503
2331.92811401,0.03831967
2333.85692139,0.03810763
2335.78572876,0.03785273
2337.71453613,0.03781071
2339.64334351,0.03794111
2341.57215088,0.03801706
2343.50095825,0.03850108
2345.42976562,0.03914035
2347.35857300,0.04063749
2349.28738037,0.04198342
2351.21618774,0.04059988
2353.14499512,0.03871096
2355.07380249,0.03743899
2357.00260986,0.03634211
2358.93141724,0.03566933
2360.86022461,0.03522961
2362.78903198,0.03524610
2364.71783936,0.03545785
2366.64664673,0.03595235
2368.57545410,0.03650770
2370.50426147,0.03729555
2372.43306885,0.03821117
2374.36187622,0.03914172
2376.29068359,0.04028843
2378.21949097,0.04108554
2380.14829834,0.04174063
2382.07710571,0.04209771
2384.00591309,0.04237584
2385.93472046,0.04268501
2387.86352783,0.04268418
2389.79233521,0.04261358
2391.72114258,0.04246604
2393.64994995,0.04241576
2395.57875732,0.04239743
2397.50756470,0.04237712
2399.43637207,0.04232759
2401.36517944,0.04233328
2403.29398682,0.04220921
2405.22279419,0.04209384
2407.15160156,0.04220951
2409.08040894,0.04201421
2411.00921631,0.04201496
2412.93802368,0.04199326
2414.86683105,0.04184067
2416.79563843,0.04182625
2418.72444580,0.04160468
2420.65325317,0.04168525
2422.58206055,0.04173091
2424.51086792,0.04165974
2426.43967529,0.04162598
2428.36848267,0.04149730
2430.29729004,0.04159818
2432.22609741,0.04154085
2434.15490479,0.04146760
2436.08371216,0.04139788
2438.01251953,0.04120569
2439.94132690,0.04129259
2441.87013428,0.04116456
2443.79894165,0.04106943
2445.72774902,0.04124188
2447.65655640,0.04115440
2449.58536377,0.04112863
2451.51417114,0.04096498
2453.44297852,0.04084070
2455.37178589,0.04088349
2457.30059326,0.04086027
2459.22940063,0.04103976
2461.15820801,0.04078761
2463.08701538,0.04070093
2465.01582275,0.04081572
2466.94463013,0.04050170
2468.87343750,0.04057682
2470.80224487,0.04058399
2472.73105225,0.04048409
2474.65985962,0.04055156
2476.58866699,0.04042971
2478.51747437,0.04028359
2480.44628174,0.04021066
2482.37508911,0.04019919
2484.30389648,0.04019940
2486.23270386,0.04014413
2488.16151123,0.04000298
2490.09031860,0.04012332
2492.01912598,0.04005088
2493.94793335,0.03985037
2495.87674072,0.04001352
2497.80554810,0.03986136
2499.73435547,0.03971765
2501.66316284,0.03974035
2503.59197021,0.03975625
2505.52077759,0.03975735
2507.44958496,0.03964911
2509.37839233,0.03966712
2511.30719971,0.03953177
2513.23600708,0.03935319
2515.16481445,0.03932195
2517.09362183,0.03931876
2519.02242920,0.03926167
2520.95123657,0.03925814
2522.88004395,0.03928716
2524.80885132,0.03914689
2526.73765869,0.03912143
2528.66646606,0.03913042
2530.59527344,0.03902949
2532.52408081,0.03896452
2534.45288818,0.03903884
2536.38169556,0.03893293
2538.31050293,0.03870504
2540.23931030,0.03882132
2542.16811768,0.03882083
2544.09692505,0.03871487
2546.02573242,0.03877211
2547.95453979,0.03868904
2549.88334717,0.03853068
2551.81215454,0.03862246
2553.74096191,0.03859342
2555.66976929,0.03842397
2557.59857666,0.03852432
2559.52738403,0.03835934
2561.45619141,0.03823730
2563.38499878,0.03827102
2565.31380615,0.03820406
2567.24261353,0.03830590
2569.17142090,0.03810388
2571.10022827,0.03797860
2573.02903564,0.03810158
2574.95784302,0.03793414
2576.88665039,0.03777614
2578.81545776,0.03778574
2580.74426514,0.03782038
2582.67307251,0.03782651
2584.60187988,0.03775973
2586.53068726,0.03778652
2588.45949463,0.03777334
2590.38830200,0.03751849
2592.31710937,0.03754608
2594.24591675,0.03752644
2596.17472412,0.03735350
2598.10353149,0.03742540
2600.03233887,0.03723699
2601.96114624,0.03721227
2603.88995361,0.03731199
2605.81876099,0.03714857
2607.74756836,0.03719126
2609.67637573,0.03717721
2611.60518311,0.03702684
2613.53399048,0.03703419
2615.46279785,0.03699955
2617.39160522,0.03691746
2619.32041260,0.03689577
2621.24921997,0.03675132
2623.17802734,0.03670585
2625.10683472,0.03667342
2627.03564209,0.03660599
2628.96444946,0.03667208
2630.89325684,0.03649141
2632.82206421,0.03643525
2634.75087158,0.03650035
2636.67967895,0.03647612
2638.60848633,0.03656358
2640.53729370,0.03644898
2642.46610107,0.03630546
2644.39490845,0.03627079
2646.32371582,0.03616892
2648.25252319,0.03611142
2650.18133057,0.03617893
2652.11013794,0.03612147
2654.03894531,0.03602795
2655.96775269,0.03604417
2657.89656006,0.03597022
2659.82536743,0.03595069
2661.75417480,0.03588093
2663.68298218,0.03576574
2665.61178955,0.03569940
2667.54059692,0.03564099
2669.46940430,0.03560949
2671.39821167,0.03560161
2673.32701904,0.03558159
2675.25582642,0.03538039
2677.18463379,0.03543779
2679.11344116,0.03551641
2681.04224854,0.03530817
2682.97105591,0.03532799
2684.89986328,0.03533723
2686.82867065,0.03527808
2688.75747803,0.03524104
2690.68628540,0.03505298
2692.61509277,0.03500313
2694.54390015,0.03507816
2696.47270752,0.03493031
2698.40151489,0.03490737
2700.33032227,0.03489611
2702.25912964,0.03474249
2704.18793701,0.03482935
2706.11674438,0.03477962
2708.04555176,0.03476255
2709.97435913,0.03469339
2711.90316650,0.03453629
2713.83197388,0.03460246
2715.76078125,0.03448182
2717.68958862,0.03443521
2719.61839600,0.03437064
2721.54720337,0.03435203
2723.47601074,0.03432974
2725.40481812,0.03418503
2727.33362549,0.03424427
2729.26243286,0.03409816
2731.19124023,0.03410902
2733.12004761,0.03413191
2735.04885498,0.03402781
2736.97766235,0.03401226
2738.90646973,0.03379866
2740.83527710,0.03384325
2742.76408447,0.03383426
2744.69289185,0.03369252
2746.62169922,0.03368963
2748.55050659,0.03365298
2750.47931396,0.03362410
2752.40812134,0.03357092
2754.33692871,0.03361215
2756.26573608,0.03344128
2758.19454346,0.03334882
2760.12335083,0.03347307
2762.05215820,0.03325889
2763.98096558,0.03318633
2765.90977295,0.03322189
2767.83858032,0.03310213
2769.76738770,0.03309501
2771.69619507,0.03299515
2773.62500244,0.03291923
2775.55380981,0.03287724
2777.48261719,0.03275100
2779.41142456,0.03277440
2781.34023193,0.03270570
2783.26903931,0.03266555
2785.19784668,0.03271701
2787.12665405,0.03258983
2789.05546143,0.03254338
2790.98426880,0.03247065
2792.91307617,0.03233872
2794.84188354,0.03233882
2796.77069092,0.03234634
2798.69949829,0.03222469
2800.62830566,0.03213588
2802.55711304,0.03212292
2804.48592041,0.03198139
2806.41472778,0.03200096
2808.34353516,0.03198117
2810.27234253,0.03179517
2812.20114990,0.03174134
2814.12995728,0.03169217
2816.05876465,0.03169165
2817.98757202,0.03160027
2819.91637939,0.03153810
2821.84518677,0.03152706
2823.77399414,0.03139763
2825.70280151,0.03139380
2827.63160889,0.03136578
2829.56041626,0.03131981
2831.48922363,0.03127111
2833.41803101,0.03110277
2835.34683838,0.03099218
2837.27564575,0.03092684
2839.20445312,0.03082580
2841.13326050,0.03064186
2843.06206787,0.03043568
2844.99087524,0.03034374
2846.91968262,0.03017507
2848.84848999,0.02995393
2850.77729736,0.02997142
2852.70610474,0.03000421
2854.63491211,0.03004346
2856.56371948,0.03010366
2858.49252686,0.03000485
2860.42133423,0.02997932
2862.35014160,0.02995895
2864.27894897,0.02993265
2866.20775635,0.02989562
2868.13656372,0.02983727
2870.06537109,0.02985494
2871.99417847,0.02970332
2873.92298584,0.02966889
2875.85179321,0.02975417
2877.78060059,0.02962507
2879.70940796,0.02952253
2881.63821533,0.02951169
2883.56702270,0.02951759
2885.49583008,0.02941843
2887.42463745,0.02931033
2889.35344482,0.02925820
2891.28225220,0.02915113
2893.21105957,0.02911215
2895.13986694,0.02900338
2897.06867432,0.02897355
2898.99748169,0.02898500
2900.92628906,0.02878597
2902.85509644,0.02874670
2904.78390381,0.02868434
2906.71271118,0.02857479
2908.64151855,0.02849454
2910.57032593,0.02830161
2912.49913330,0.02823145
2914.42794067,0.02799557
2916.35674805,0.02791437
2918.28555542,0.02805201
2920.21436279,0.02789180
2922.14317017,0.02790229
2924.07197754,0.02802813
2926.00078491,0.02807849
2927.92959229,0.02813712
2929.85839966,0.02811904
2931.78720703,0.02807643
2933.71601440,0.02807655
2935.64482178,0.02823151
2937.57362915,0.02823438
2939.50243652,0.02811638
2941.43124390,0.02811864
2943.36005127,0.02808418
2945.28885864,0.02812276
2947.21766602,0.02807144
2949.14647339,0.02792084
2951.07528076,0.02796280
2953.00408813,0.02780878
2954.93289551,0.02763371
2956.86170288,0.02769020
2958.79051025,0.02759931
2960.71931763,0.02760836
2962.64812500,0.02751885
2964.57693237,0.02741412
2966.50573975,0.02749510
2968.43454712,0.02740928
2970.36335449,0.02753391
2972.29216187,0.02755122
2974.22096924,0.02755896
2976.14977661,0.02765484
2978.07858398,0.02748269
2980.00739136,0.02756926
2981.93619873,0.02754833
2983.86500610,0.02746290
2985.79381348,0.02751651
2987.72262085,0.02746626
2989.65142822,0.02741854
2991.58023560,0.02737083
2993.50904297,0.02741310
2995.43785034,0.02726028
2997.36665771,0.02722707
2999.29546509,0.02729746
3001.22427246,0.02720521
3003.15307983,0.02717545
3005.08188721,0.02702867
3007.01069458,0.02703800
3008.93950195,0.02696412
3010.86830933,0.02675451
3012.79711670,0.02672103
3014.72592407,0.02667198
3016.65473145,0.02676742
3018.58353882,0.02677312
3020.51234619,0.02656770
3022.44115356,0.02652177
3024.36996094,0.02652012
3026.29876831,0.02635254
3028.22757568,0.02635875
3030.15638306,0.02637991
3032.08519043,0.02615657
3034.01399780,0.02614124
3035.94280518,0.02623020
3037.87161255,0.02617544
3039.80041992,0.02604568
3041.72922729,0.02599996
3043.65803467,0.02601557
3045.58684204,0.02590679
3047.51564941,0.02577309
3049.44445679,0.02573657
3051.37326416,0.02577250
3053.30207153,0.02569241
3055.23087891,0.02559379
3057.15968628,0.02556806
3059.08849365,0.02558519
3061.01730103,0.02555145
3062.94610840,0.02538707
3064.87491577,0.02531126
3066.80372314,0.02531188
3068.73253052,0.02533720
3070.66133789,0.02528096
3072.59014526,0.02524757
3074.51895264,0.02525772
3076.44776001,0.02514702
3078.37656738,0.02507612
3080.30537476,0.02500218
3082.23418213,0.02493074
3084.16298950,0.02487865
3086.09179687,0.02491606
3088.02060425,0.02491658
3089.94941162,0.02485028
3091.87821899,0.02482382
3093.80702637,0.02462553
3095.73583374,0.02451526
3097.66464111,0.02452624
3099.59344849,0.02453713
3101.52225586,0.02449693
3103.45106323,0.02439807
3105.37987061,0.02434003
3107.30867798,0.02428289
3109.23748535,0.02430186
3111.16629272,0.02425766
3113.09510010,0.02423485
3115.02390747,0.02412475
3116.95271484,0.02394901
3118.88152222,0.02390223
3120.81032959,0.02389869
3122.73913696,0.02393203
3124.66794434,0.02381598
3126.59675171,0.02378039
3128.52555908,0.02374496
3130.45436645,0.02371184
3132.38317383,0.02359065
3134.31198120,0.02341544
3136.24078857,0.02351374
3138.16959595,0.02335697
3140.09840332,0.02338012
3142.02721069,0.02331360
3143.95601807,0.02303007
3145.88482544,0.02317081
3147.81363281,0.02312614
3149.74244019,0.02308073
3151.67124756,0.02301463
3153.60005493,0.02287873
3155.52886230,0.02281717
3157.45766968,0.02275177
3159.38647705,0.02276327
3161.31528442,0.02268278
3163.24409180,0.02269419
3165.17289917,0.02251137
3167.10170654,0.02240906
3169.03051392,0.02249866
3170.95932129,0.02234218
3172.88812866,0.02235162
3174.81693604,0.02233863
3176.74574341,0.02214302
3178.67455078,0.02203602
3180.60335815,0.02202505
3182.53216553,0.02203445
3184.46097290,0.02197637
3186.38978027,0.02187988
3188.31858765,0.02192747
3190.24739502,0.02194624
3192.17620239,0.02179743
3194.10500977,0.02171631
3196.03381714,0.02163182
3197.96262451,0.02164664
3199.89143188,0.02161398
3201.82023926,0.02153974
3203.74904663,0.02151611
3205.67785400,0.02136726
3207.60666138,0.02133105
3209.53546875,0.02128046
3211.46427612,0.02128506
3213.39308350,0.02125804
3215.32189087,0.02110735
3217.25069824,0.02111277
3219.17950562,0.02109936
3221.10831299,0.02103730
3223.03712036,0.02105853
3224.96592773,0.02107640
3226.89473511,0.02094700
3228.82354248,0.02089312
3230.75234985,0.02085806
3232.68115723,0.02086526
3234.60996460,0.02078615
3236.53877197,0.02068400
3238.46757935,0.02089216
3240.39638672,0.02074293
3242.32519409,0.02067940
3244.25400146,0.02067219
3246.18280884,0.02051945
3248.11161621,0.02065424
3250.04042358,0.02056735
3251.96923096,0.02059736
3253.89803833,0.02055576
3255.82684570,0.02040801
3257.75565308,0.02037963
3259.68446045,0.02038701
3261.61326782,0.02048022
3263.54207520,0.02039034
3265.47088257,0.02044550
3267.39968994,0.02031143
3269.32849731,0.02024715
3271.25730469,0.02025722
3273.18611206,0.02007330
3275.11491943,0.02018737
3277.04372681,0.02016954
3278.97253418,0.02029325
3280.90134155,0.02033210
3282.83014893,0.02012241
3284.75895630,0.02009764
3286.68776367,0.02002884
3288.61657104,0.02005204
3290.54537842,0.02003693
3292.47418579,0.02002036
3294.40299316,0.02005957
3296.33180054,0.01997015
3298.26060791,0.01994521
3300.18941528,0.02005451
3302.11822266,0.01995532
3304.04703003,0.01985119
3305.97583740,0.01987915
3307.90464478,0.01980592
3309.83345215,0.01984984
3311.76225952,0.01980716
3313.69106689,0.01981481
3315.61987427,0.01981951
3317.54868164,0.01970724
3319.47748901,0.01967348
3321.40629639,0.01969772
3323.33510376,0.01973812
3325.26391113,0.01954201
3327.19271851,0.01960132
3329.12152588,0.01954450
3331.05033325,0.01945342
3332.97914062,0.01955433
3334.90794800,0.01935535
3336.83675537,0.01947599
3338.76556274,0.01946739
3340.69437012,0.01937719
3342.62317749,0.01934318
3344.55198486,0.01927302
3346.48079224,0.01937240
3348.40959961,0.01930083
3350.33840698,0.01933759
3352.26721436,0.01920529
3354.19602173,0.01915683
3356.12482910,0.01918951
3358.05363647,0.01911173
3359.98244385,0.01910750
3361.91125122,0.01905004
3363.84005859,0.01911650
3365.76886597,0.01892494
3367.69767334,0.01889915
3369.62648071,0.01895053
3371.55528809,0.01886363
3373.48409546,0.01893538
3375.41290283,0.01885452
3377.34171020,0.01875767
3379.27051758,0.01873384
3381.19932495,0.01880630
3383.12813232,0.01865038
3385.05693970,0.01858652
3386.98574707,0.01862203
3388.91455444,0.01855404
3390.84336182,0.01850504
3392.77216919,0.01837138
3394.70097656,0.01851309
3396.62978394,0.01839358
3398.55859131,0.01835045
3400.48739868,0.01835320
3402.41620605,0.01830167
3404.34501343,0.01848329
3406.27382080,0.01821487
3408.20262817,0.01813773
3410.13143555,0.01820744
3412.06024292,0.01829183
3413.98905029,0.01819516
3415.91785767,0.01805353
3417.84666504,0.01816308
3419.77547241,0.01793380
3421.70427979,0.01796248
3423.63308716,0.01793343
3425.56189453,0.01792930
3427.49070190,0.01798392
3429.41950928,0.01789752
3431.34831665,0.01794834
3433.27712402,0.01780303
3435.20593140,0.01784163
3437.13473877,0.01776453
3439.06354614,0.01778531
3440.99235352,0.01776433
3442.92116089,0.01765067
3444.84996826,0.01774856
3446.77877563,0.01742797
3448.70758301,0.01744797
3450.63639038,0.01757651
3452.56519775,0.01747608
3454.49400513,0.01753279
3456.42281250,0.01750651
3458.35161987,0.01747610
3460.28042725,0.01741563
3462.20923462,0.01734650
3464.13804199,0.01732015
3466.06684937,0.01733296
3467.99565674,0.01732941
3469.92446411,0.01736338
3471.85327148,0.01731251
3473.78207886,0.01734904
3475.71088623,0.01731440
3477.63969360,0.01719906
3479.56850098,0.01723590
3481.49730835,0.01701896
3483.42611572,0.01712632
3485.35492310,0.01720445
3487.28373047,0.01710726
3489.21253784,0.01713407
3491.14134521,0.01710149
3493.07015259,0.01724672
3494.99895996,0.01713277
3496.92776733,0.01707209
3498.85657471,0.01703297
3500.78538208,0.01703959
3502.71418945,0.01683649
3504.64299683,0.01671803
3506.57180420,0.01722974
3508.50061157,0.01692215
3510.42941895,0.01673695
3512.35822632,0.01704716
3514.28703369,0.01707094
3516.21584106,0.01707536
3518.14464844,0.01693767
3520.07345581,0.01703514
3522.00226318,0.01689704
3523.93107056,0.01661347
3525.85987793,0.01663759
3527.78868530,0.01663421
3529.71749268,0.01657493
3531.64630005,0.01683102
3533.57510742,0.01706094
3535.50391479,0.01680101
3537.43272217,0.01680800
3539.36152954,0.01695646
3541.29033691,0.01687226
3543.21914429,0.01677737
3545.14795166,0.01642990
3547.07675903,0.01606761
3549.00556641,0.01668216
3550.93437378,0.01689731
3552.86318115,0.01634505
3554.79198853,0.01672947
3556.72079590,0.01685140
3558.64960327,0.01679654
3560.57841064,0.01653862
3562.50721802,0.01644722
3564.43602539,0.01666824
3566.36483276,0.01513775
3568.29364014,0.01481359
3570.22244751,0.01639044
3572.15125488,0.01687851
3574.08006226,0.01669089
3576.00886963,0.01668014
3577.93767700,0.01670539
3579.86648437,0.01667126
3581.79529175,0.01657168
3583.72409912,0.01664232
3585.65290649,0.01623859
3587.58171387,0.01462710
3589.51052124,0.01516446
3591.43932861,0.01678396
3593.36813599,0.01616764
3595.29694336,0.01586792
3597.22575073,0.01619763
3599.15455811,0.01636074
3601.08336548,0.01626483
3603.01217285,0.01643535
3604.94098022,0.01679542
3606.86978760,0.01599962
3608.79859497,0.01485307
3610.72740234,0.01537568
3612.65620972,0.01581175
3614.58501709,0.01517978
3616.51382446,0.01641230
3618.44263184,0.01508761
3620.37143921,0.01440415
3622.30024658,0.01658478
3624.22905395,0.01620126
3626.15786133,0.01694328
3628.08666870,0.01399549
3630.01547607,0.01258546
3631.94428345,0.01641817
3633.87309082,0.01592055
3635.80189819,0.01620790
3637.73070557,0.01658123
3639.65951294,0.01629480
3641.58832031,0.01651277
3643.51712769,0.01626064
3645.44593506,0.01637058
3647.37474243,0.01436944
3649.30354980,0.01300935
3651.23235718,0.01317567
3653.16116455,0.01618906
3655.08997192,0.01609105
3657.01877930,0.01399178
3658.94758667,0.01654224
3660.87639404,0.01619174
3662.80520142,0.01640658
3664.73400879,0.01642677
3666.66281616,0.01612649
3668.59162354,0.01560628
3670.52043091,0.01224723
3672.44923828,0.01532946
3674.37804565,0.01451635
3676.30685303,0.01160488
3678.23566040,0.01528622
3680.16446777,0.01555419
3682.09327515,0.01573617
3684.02208252,0.01632439
3685.95088989,0.01593446
3687.87969727,0.01421309
3689.80850464,0.01273352
3691.73731201,0.01485085
3693.66611938,0.01537608
3695.59492676,0.01589609
3697.52373413,0.01593278
3699.45254150,0.01574162
3701.38134888,0.01530990
3703.31015625,0.01450633
3705.23896362,0.01631154
3707.16777100,0.01537687
3709.09657837,0.01489198
3711.02538574,0.01390616
3712.95419312,0.01282201
3714.88300049,0.01554156
3716.81180786,0.01518211
3718.74061523,0.01540646
3720.66942261,0.01501000
3722.59822998,0.01430066
3724.52703735,0.01507803
3726.45584473,0.01373902
3728.38465210,0.01512524
3730.31345947,0.01491448
3732.24226685,0.01348519
3734.17107422,0.01310754
3736.09988159,0.01230662
3738.02868896,0.01334195
3739.95749634,0.01449057
3741.88630371,0.01532219
3743.81511108,0.01155417
3745.74391846,0.01058454
3747.67272583,0.01443385
3749.60153320,0.01213732
3751.53034058,0.01103857
3753.45914795,0.01307387
3755.38795532,0.01419513
3757.31676270,0.01486428
3759.24557007,0.01346837
3761.17437744,0.01399450
3763.10318481,0.01516651
3765.03199219,0.01396049
3766.96079956,0.01429609
3768.88960693,0.01415027
3770.81841431,0.01334616
3772.74722168,0.01474936
3774.67602905,0.01482011
3776.60483643,0.01477042
3778.53364380,0.01432772
3780.46245117,0.01368611
3782.39125854,0.01472594
3784.32006592,0.01424954
3786.24887329,0.01423119
3788.17768066,0.01460009
3790.10648804,0.01436379
3792.03529541,0.01436118
3793.96410278,0.01467164
3795.89291016,0.01362253
3797.82171753,0.01343030
3799.75052490,0.01429158
3801.67933228,0.01086485
3803.60813965,0.01305189
3805.53694702,0.01449411
3807.46575439,0.01144570
3809.39456177,0.01429375
3811.32336914,0.01400895
3813.25217651,0.01445658
3815.18098389,0.01294905
3817.10979126,0.01113797
3819.03859863,0.01447195
3820.96740601,0.01131963
3822.89621338,0.01197236
3824.82502075,0.01431372
3826.75382812,0.01282696
3828.68263550,0.01396491
3830.61144287,0.01334810
3832.54025024,0.01293813
3834.46905762,0.01321395
3836.39786499,0.01240358
3838.32667236,0.01107409
3840.25547974,0.01208207
3842.18428711,0.01309552
3844.11309448,0.01244223
3846.04190186,0.01370497
3847.97070923,0.01356595
3849.89951660,0.01358824
3851.82832397,0.01194387
3853.75713135,0.00854664
3855.68593872,0.01048170
3857.61474609,0.01352445
3859.54355347,0.01319840
3861.47236084,0.01295136
3863.40116821,0.01251432
3865.32997559,0.01154744
3867.25878296,0.01324762
3869.18759033,0.01193053
3871.11639770,0.01081696
3873.04520508,0.01322994
3874.97401245,0.01193092
3876.90281982,0.01307896
3878.83162720,0.01348355
3880.76043457,0.01125495
3882.68924194,0.01320667
3884.61804932,0.01218319
3886.54685669,0.01105255
3888.47566406,0.01330123
3890.40447144,0.01248743
3892.33327881,0.01154558
3894.26208618,0.01279441
3896.19089355,0.01314782
3898.11970093,0.01237167
3900.04850830,0.01154730
3901.97731567,0.01140066
3903.90612305,0.01122130
3905.83493042,0.01158024
3907.76373779,0.01290850
3909.69254517,0.01281382
3911.62135254,0.01271405
3913.55015991,0.01303100
3915.47896728,0.01249702
3917.40777466,0.01205534
3919.33658203,0.01193827
3921.26538940,0.01247819
3923.19419678,0.01238582
3925.12300415,0.01207441
3927.05181152,0.01243829
3928.98061890,0.01257506
3930.90942627,0.01225344
3932.83823364,0.01179601
3934.76704102,0.01229103
3936.69584839,0.01250837
3938.62465576,0.01237328
3940.55346313,0.01250885
3942.48227051,0.01202775
3944.41107788,0.01202955
3946.33988525,0.01232582
3948.26869263,0.01195872
3950.19750000,0.01188951
3952.12630737,0.01218645
3954.05511475,0.01213808
3955.98392212,0.01212916
3957.91272949,0.01208794
3959.84153687,0.01204352
3961.77034424,0.01204845
3963.69915161,0.01200046
3965.62795898,0.01212538
3967.55676636,0.01205513
3969.48557373,0.01205375
3971.41438110,0.01200119
3973.34318848,0.01196041
3975.27199585,0.01188239
3977.20080322,0.01181877
3979.12961060,0.01202178
3981.05841797,0.01182931
3982.98722534,0.01182101
3984.91603271,0.01181912
3986.84484009,0.01183378
3988.77364746,0.01180684
3990.70245483,0.01159875
3992.63126221,0.01176421
3994.56006958,0.01166396
3996.48887695,0.01169263
3998.41768433,0.01164337
4000.34649170,0.01160282
4002.27529907,0.01163252
4004.20410645,0.01146299
4006.13291382,0.01157130
4008.06172119,0.01145175
4009.99052856,0.01152357
4011.91933594,0.01150814
4013.84814331,0.01140032
4015.77695068,0.01144124
4017.70575806,0.01137518
4019.63456543,0.01142587
4021.56337280,0.01136693
4023.49218018,0.01145587
4025.42098755,0.01131458
4027.34979492,0.01133174
4029.27860229,0.01136949
4031.20740967,0.01116987
4033.13621704,0.01128352
4035.06502441,0.01120559
4036.99383179,0.01126903
4038.92263916,0.01120626
4040.85144653,0.01115387
4042.78025391,0.01115896
4044.70906128,0.01097060
4046.63786865,0.01108230
4048.56667603,0.01109869
4050.49548340,0.01110523
4052.42429077,0.01099916
4054.35309814,0.01093214
4056.28190552,0.01099881
4058.21071289,0.01097910
4060.13952026,0.01099451
4062.06832764,0.01093096
4063.99713501,0.01090522
4065.92594238,0.01078662
4067.85474976,0.01079701
4069.78355713,0.01085772
4071.71236450,0.01078130
4073.64117187,0.01068832
4075.56997925,0.01065655
4077.49878662,0.01076677
4079.42759399,0.01070710
4081.35640137,0.01063575
4083.28520874,0.01062801
4085.21401611,0.01065421
4087.14282349,0.01061499
4089.07163086,0.01053908
4091.00043823,0.01056765
4092.92924561,0.01051579
4094.85805298,0.01048916
4096.78686035,0.01048773
4098.71566772,0.01045831
4100.64447510,0.01045009
4102.57328247,0.01054620
4104.50208984,0.01049146
4106.43089722,0.01041414
4108.35970459,0.01036945
4110.28851196,0.01033750
4112.21731934,0.01047272
4114.14612671,0.01022191
4116.07493408,0.01017990
4118.00374145,0.01026490
4119.93254883,0.01015437
4121.86135620,0.01020751
4123.79016357,0.01012696
4125.71897095,0.01019196
4127.64777832,0.01015955
4129.57658569,0.01013826
4131.50539307,0.01011270
4133.43420044,0.01005434
4135.36300781,0.01012464
4137.29181519,0.00998090
4139.22062256,0.00998157
4141.14942993,0.00988510
4143.07823730,0.00991782
4145.00704468,0.00999833
4146.93585205,0.00989210
4148.86465942,0.00989448
4150.79346680,0.00976806
4152.72227417,0.00988303
4154.65108154,0.00986828
4156.57988892,0.00976350
4158.50869629,0.00986565
4160.43750366,0.00977799
4162.36631103,0.00970645
4164.29511841,0.00969358
4166.22392578,0.00969731
4168.15273315,0.00967754
4170.08154053,0.00962860
4172.01034790,0.00960378
4173.93915527,0.00966278
4175.86796265,0.00959271
4177.79677002,0.00947597
4179.72557739,0.00956507
4181.65438477,0.00957710
4183.58319214,0.00952614
4185.51199951,0.00950793
4187.44080688,0.00951645
4189.36961426,0.00938930
4191.29842163,0.00933693
4193.22722900,0.00939882
4195.15603638,0.00936568
4197.08484375,0.00933670
4199.01365112,0.00931391
4200.94245850,0.00941644
4202.87126587,0.00928239
4204.80007324,0.00919822
4206.72888062,0.00924237
4208.65768799,0.00917706
4210.58649536,0.00924818
4212.51530273,0.00916555
4214.44411011,0.00922292
4216.37291748,0.00918861
4218.30172485,0.00907241
4220.23053223,0.00914311
4222.15933960,0.00903239
4224.08814697,0.00905616
4226.01695435,0.00910028
4227.94576172,0.00902196
4229.87456909,0.00900006
4231.80337646,0.00902541
4233.73218384,0.00891782
4235.66099121,0.00885921
4237.58979858,0.00893270
4239.51860596,0.00890619
4241.44741333,0.00892128
4243.37622070,0.00884321
4245.30502808,0.00885502
4247.23383545,0.00884954
4249.16264282,0.00879433
4251.09145020,0.00882060
4253.02025757,0.00872784
4254.94906494,0.00877774
4256.87787231,0.00876516
4258.80667969,0.00872310
4260.73548706,0.00872058
4262.66429443,0.00871065
4264.59310181,0.00873619
4266.52190918,0.00866066
4268.45071655,0.00868565
4270.37952393,0.00865759
4272.30833130,0.00858601
4274.23713867,0.00858652
4276.16594604,0.00853585
4278.09475342,0.00844099
4280.02356079,0.00847268
4281.95236816,0.00854500
4283.88117554,0.00849085
4285.80998291,0.00845491
4287.73879028,0.00837879
4289.66759766,0.00842881
4291.59640503,0.00842781
4293.52521240,0.00837884
4295.45401978,0.00847923
4297.38282715,0.00840146
4299.31163452,0.00831509
4301.24044189,0.00828952
4303.16924927,0.00828241
4305.09805664,0.00831611
4307.02686401,0.00828177
4308.95567139,0.00821279
4310.88447876,0.00823385
4312.81328613,0.00814091
4314.74209351,0.00807065
4316.67090088,0.00826193
4318.59970825,0.00819748
4320.52851562,0.00810591
4322.45732300,0.00808167
4324.38613037,0.00807379
4326.31493774,0.00805874
4328.24374512,0.00793252
4330.17255249,0.00807500
4332.10135986,0.00804715
4334.03016724,0.00800121
4335.95897461,0.00801334
4337.88778198,0.00790818
4339.81658936,0.00798537
4341.74539673,0.00798894
4343.67420410,0.00794424
4345.60301147,0.00789679
4347.53181885,0.00789336
4349.46062622,0.00780720
4351.38943359,0.00784783
4353.31824097,0.00791478
4355.24704834,0.00776206
4357.17585571,0.00781547
4359.10466309,0.00773506
4361.03347046,0.00771740
4362.96227783,0.00774306
4364.89108520,0.00765293
4366.81989258,0.00771181
4368.74869995,0.00769959
4370.67750732,0.00770629
4372.60631470,0.00768477
4374.53512207,0.00769895
4376.46392944,0.00761477
4378.39273682,0.00761344
4380.32154419,0.00772145
4382.25035156,0.00752609
4384.17915894,0.00748853
4386.10796631,0.00757824
4388.03677368,0.00754952
4389.96558105,0.00748673
4391.89438843,0.00747067
4393.82319580,0.00745258
4395.75200317,0.00749684
4397.68081055,0.00749956
4399.60961792,0.00730768
4401.53842529,0.00738268
4403.46723267,0.00743317
4405.39604004,0.00734618
4407.32484741,0.00735423
4409.25365478,0.00729778
4411.18246216,0.00725958
4413.11126953,0.00729966
4415.04007690,0.00729428
4416.96888428,0.00713107
4418.89769165,0.00711563
4420.82649902,0.00716885
4422.75530640,0.00723430
4424.68411377,0.00723017
4426.61292114,0.00709482
4428.54172852,0.00718057
4430.47053589,0.00717949
4432.39934326,0.00716390
4434.32815063,0.00713803
4436.25695801,0.00701778
4438.18576538,0.00707718
4440.11457275,0.00707617
4442.04338013,0.00697763
4443.97218750,0.00696628
4445.90099487,0.00702035
4447.82980225,0.00700196
4449.75860962,0.00702574
4451.68741699,0.00699887
4453.61622437,0.00694575
4455.54503174,0.00697000
4457.47383911,0.00688117
4459.40264648,0.00686779
4461.33145386,0.00685532
4463.26026123,0.00685215
4465.18906860,0.00686337
4467.11787598,0.00684621
4469.04668335,0.00682303
4470.97549072,0.00675179
4472.90429810,0.00679263
4474.83310547,0.00675035
4476.76191284,0.00678694
4478.69072021,0.00679686
4480.61952759,0.00666326
4482.54833496,0.00668294
4484.47714233,0.00661225
4486.40594971,0.00661655
4488.33475708,0.00670984
4490.26356445,0.00659986
4492.19237183,0.00648175
4494.12117920,0.00659015
4496.04998657,0.00663540
4497.97879395,0.00650973
4499.90760132,0.00654411
4501.83640869,0.00652774
4503.76521606,0.00649217
4505.69402344,0.00653762
4507.62283081,0.00651037
4509.55163818,0.00649582
4511.48044556,0.00644556
4513.40925293,0.00642211
4515.33806030,0.00640099
4517.26686768,0.00636222
4519.19567505,0.00644675
4521.12448242,0.00643949
4523.05328979,0.00634928
4524.98209717,0.00631032
4526.91090454,0.00625350
4528.83971191,0.00631158
4530.76851929,0.00626850
4532.69732666,0.00623620
4534.62613403,0.00632725
4536.55494141,0.00622219
4538.48374878,0.00626615
4540.41255615,0.00628495
4542.34136353,0.00621798
4544.27017090,0.00623689
4546.19897827,0.00613593
4548.12778564,0.00614954
4550.05659302,0.00613681
4551.98540039,0.00609762
4553.91420776,0.00609234
4555.84301514,0.00604016
4557.77182251,0.00601620
4559.70062988,0.00602071
4561.62943726,0.00602075
4563.55824463,0.00595709
4565.48705200,0.00607764
4567.41585937,0.00610886
4569.34466675,0.00602251
4571.27347412,0.00601918
4573.20228149,0.00596948
4575.13108887,0.00597733
4577.05989624,0.00589268
4578.98870361,0.00594109
4580.91751099,0.00599215
4582.84631836,0.00587740
4584.77512573,0.00585968
4586.70393311,0.00582641
4588.63274048,0.00588993
4590.56154785,0.00588944
4592.49035522,0.00581306
4594.41916260,0.00585705
4596.34796997,0.00585433
4598.27677734,0.00581775
4600.20558472,0.00579124
4602.13439209,0.00574441
4604.06319946,0.00576014
4605.99200684,0.00575938
4607.92081421,0.00569902
4609.84962158,0.00568725
4611.77842895,0.00557845
4613.70723633,0.00562167
4615.63604370,0.00564550
4617.56485107,0.00548597
4619.49365845,0.00559078
4621.42246582,0.00559237
4623.35127319,0.00557346
4625.28008057,0.00559475
4627.20888794,0.00553814
4629.13769531,0.00562308
4631.06650269,0.00556192
4632.99531006,0.00554392
4634.92411743,0.00558441
4636.85292480,0.00551242
4638.78173218,0.00547592
4640.71053955,0.00547580
4642.63934692,0.00551790
4644.56815430,0.00550568
4646.49696167,0.00550711
4648.42576904,0.00548027
4650.35457642,0.00536987
4652.28338379,0.00536654
4654.21219116,0.00541215
4656.14099853,0.00542218
4658.06980591,0.00540421
4659.99861328,0.00530980
4661.92742065,0.00533836
4663.85622803,0.00536120
4665.78503540,0.00526149
4667.71384277,0.00534921
4669.64265015,0.00529218
4671.57145752,0.00519468
4673.50026489,0.00529520
4675.42907227,0.00525280
4677.35787964,0.00520742
4679.28668701,0.00521857
4681.21549438,0.00522908
4683.14430176,0.00520886
4685.07310913,0.00519070
4687.00191650,0.00516788
4688.93072388,0.00515452
4690.85953125,0.00515964
4692.78833862,0.00511519
4694.71714600,0.00520801
4696.64595337,0.00516230
4698.57476074,0.00505792
4700.50356812,0.00505341
4702.43237549,0.00501889
4704.36118286,0.00510843
4706.28999023,0.00503064
4708.21879761,0.00499117
4710.14760498,0.00507667
4712.07641235,0.00500121
4714.00521973,0.00501105
4715.93402710,0.00505246
4717.86283447,0.00500965
4719.79164185,0.00501010
4721.72044922,0.00500760
4723.64925659,0.00493263
4725.57806396,0.00500278
4727.50687134,0.00502893
4729.43567871,0.00491201
4731.36448608,0.00491886
4733.29329346,0.00488032
4735.22210083,0.00485353
4737.15090820,0.00482673
4739.07971558,0.00480567
4741.00852295,0.00485440
4742.93733032,0.00481816
4744.86613770,0.00486910
4746.79494507,0.00484081
4748.72375244,0.00474763
4750.65255981,0.00484171
4752.58136719,0.00480820
4754.51017456,0.00474013
4756.43898193,0.00472861
4758.36778931,0.00465131
4760.29659668,0.00475134
4762.22540405,0.00477331
4764.15421143,0.00469194
4766.08301880,0.00471270
4768.01182617,0.00462884
4769.94063354,0.00466213
4771.86944092,0.00471521
4773.79824829,0.00468578
4775.72705566,0.00470762
4777.65586304,0.00462508
4779.58467041,0.00460774
4781.51347778,0.00462783
4783.44228516,0.00456095
4785.37109253,0.00455082
4787.29989990,0.00459549
4789.22870728,0.00454142
4791.15751465,0.00452795
4793.08632202,0.00458919
4795.01512939,0.00451990
4796.94393677,0.00451952
4798.87274414,0.00449206
4800.80155151,0.00448563
4802.73035889,0.00454534
4804.65916626,0.00445740
4806.58797363,0.00448759
4808.51678101,0.00449332
4810.44558838,0.00443244
4812.37439575,0.00446063
4814.30320312,0.00445177
4816.23201050,0.00440143
4818.16081787,0.00437596
4820.08962524,0.00444902
4822.01843262,0.00443612
4823.94723999,0.00439775
4825.87604736,0.00436182
4827.80485474,0.00429583
4829.73366211,0.00436981
4831.66246948,0.00432645
4833.59127686,0.00428734
4835.52008423,0.00439475
4837.44889160,0.00436968
4839.37769897,0.00431062
4841.30650635,0.00424301
4843.23531372,0.00420138
4845.16412109,0.00424602
4847.09292847,0.00425088
4849.02173584,0.00422226
4850.95054321,0.00412798
4852.87935059,0.00418132
4854.80815796,0.00432342
4856.73696533,0.00424301
4858.66577270,0.00420095
4860.59458008,0.00414667
4862.52338745,0.00409080
4864.45219482,0.00414031
4866.38100220,0.00412415
4868.30980957,0.00419631
4870.23861694,0.00418013
4872.16742432,0.00408162
4874.09623169,0.00408588
4876.02503906,0.00405251
4877.95384644,0.00405102
4879.88265381,0.00405218
4881.81146118,0.00407353
4883.74026855,0.00406144
4885.66907593,0.00398612
4887.59788330,0.00400482
4889.52669067,0.00400075
4891.45549805,0.00395599
4893.38430542,0.00392989
4895.31311279,0.00394904
4897.24192017,0.00398431
4899.17072754,0.00393459
4901.09953491,0.00393849
4903.02834228,0.00395018
4904.95714966,0.00388854
4906.88595703,0.00390216
4908.81476440,0.00389452
4910.74357178,0.00385968
4912.67237915,0.00389113
4914.60118652,0.00392924
4916.52999390,0.00394100
4918.45880127,0.00390169
4920.38760864,0.00385661
4922.31641602,0.00381515
4924.24522339,0.00382731
4926.17403076,0.00386338
4928.10283813,0.00385511
4930.03164551,0.00385813
4931.96045288,0.00385134
4933.88926025,0.00383777
4935.81806763,0.00377979
4937.74687500,0.00378559
4939.67568237,0.00379736
4941.60448975,0.00375279
4943.53329712,0.00376008
4945.46210449,0.00372421
4947.39091187,0.00379340
4949.31971924,0.00376839
4951.24852661,0.00367036
4953.17733398,0.00366002
4955.10614136,0.00359102
4957.03494873,0.00373032
4958.96375610,0.00370250
4960.89256348,0.00356001
4962.82137085,0.00363202
4964.75017822,0.00361720
4966.67898560,0.00366838
4968.60779297,0.00367701
4970.53660034,0.00362085
4972.46540771,0.00360867
4974.39421509,0.00352817
4976.32302246,0.00350453
4978.25182983,0.00355980
4980.18063721,0.00355342
4982.10944458,0.00354503
4984.03825195,0.00359121
4985.96705933,0.00348118
4987.89586670,0.00348967
4989.82467407,0.00355558
4991.75348145,0.00344998
4993.68228882,0.00345361
4995.61109619,0.00345118
4997.53990356,0.00351032
4999.46871094,0.00349930
5001.39751831,0.00343172
5003.32632568,0.00349507
5005.25513306,0.00345207
5007.18394043,0.00343897
5009.11274780,0.00340159
5011.04155518,0.00339939
5012.97036255,0.00343279
5014.89916992,0.00338893
5016.82797729,0.00340606
5018.75678467,0.00335062
5020.68559204,0.00337250
5022.61439941,0.00342883
5024.54320679,0.00339496
5026.47201416,0.00335241
5028.40082153,0.00329174
5030.32962891,0.00333287
5032.25843628,0.00334410
5034.18724365,0.00331968
5036.11605103,0.00335585
5038.04485840,0.00328509
5039.97366577,0.00317260
5041.90247314,0.00321179
5043.83128052,0.00323262
5045.76008789,0.00324685
5047.68889526,0.00328785
5049.61770264,0.00315757
5051.54651001,0.00319488
5053.47531738,0.00327034
5055.40412476,0.00318137
5057.33293213,0.00319839
5059.26173950,0.00315787
5061.19054687,0.00317150
5063.11935425,0.00321595
5065.04816162,0.00316266
5066.97696899,0.00317972
5068.90577637,0.00317688
5070.83458374,0.00316353
5072.76339111,0.00316307
5074.69219849,0.00309847
5076.62100586,0.00305862
5078.54981323,0.00308928
5080.47862061,0.00307713
5082.40742798,0.00308116
5084.33623535,0.00307615
5086.26504272,0.00303854
5088.19385010,0.00309005
5090.12265747,0.00307603
5092.05146484,0.00300479
5093.98027222,0.00298780
5095.90907959,0.00303016
5097.83788696,0.00303867
5099.76669434,0.00306392
5101.69550171,0.00308827
5103.62430908,0.00295226
5105.55311645,0.00298148
5107.48192383,0.00302461
5109.41073120,0.00298310
5111.33953857,0.00300096
5113.26834595,0.00294349
5115.19715332,0.00300071
5117.12596069,0.00300097
5119.05476807,0.00295056
5120.98357544,0.00295968
5122.91238281,0.00293342
5124.84119019,0.00294551
5126.76999756,0.00294638
5128.69880493,0.00296862
5130.62761230,0.00292330
5132.55641968,0.00289131
5134.48522705,0.00287632
5136.41403442,0.00284664
5138.34284180,0.00286594
5140.27164917,0.00286547
5142.20045654,0.00291172
5144.12926392,0.00285224
5146.05807129,0.00284535
5147.98687866,0.00287379
5149.91568603,0.00279939
5151.84449341,0.00282055
5153.77330078,0.00279202
5155.70210815,0.00281581
5157.63091553,0.00284429
5159.55972290,0.00275369
5161.48853027,0.00275415
5163.41733765,0.00278682
5165.34614502,0.00275753
5167.27495239,0.00277843
5169.20375977,0.00278847
5171.13256714,0.00266524
5173.06137451,0.00268542
5174.99018188,0.00278058
5176.91898926,0.00268751
5178.84779663,0.00267339
5180.77660400,0.00282479
5182.70541138,0.00276811
5184.63421875,0.00264919
5186.56302612,0.00271511
5188.49183350,0.00266461
5190.42064087,0.00264794
5192.34944824,0.00264383
5194.27825562,0.00263324
5196.20706299,0.00269198
5198.13587036,0.00263462
5200.06467773,0.00268552
5201.99348511,0.00269898
5203.92229248,0.00269230
5205.85109985,0.00261361
5207.77990723,0.00250897
5209.70871460,0.00261799
5211.63752197,0.00256986
5213.56632935,0.00257103
5215.49513672,0.00259334
5217.42394409,0.00259462
5219.35275146,0.00259121
5221.28155884,0.00253795
5223.21036621,0.00259914
5225.13917358,0.00241890
5227.06798096,0.00248259
5228.99678833,0.00260763
5230.92559570,0.00245211
5232.85440308,0.00257219
5234.78321045,0.00253674
5236.71201782,0.00248721
5238.64082520,0.00263301
5240.56963257,0.00260811
5242.49843994,0.00247026
5244.42724731,0.00240395
5246.35605469,0.00244881
5248.28486206,0.00240860
5250.21366943,0.00244817
5252.14247681,0.00248842
5254.07128418,0.00238588
5256.00009155,0.00239976
5257.92889893,0.00243908
5259.85770630,0.00241427
5261.78651367,0.00240448
5263.71532104,0.00238338
5265.64412842,0.00237157
5267.57293579,0.00246995
5269.50174316,0.00244470
5271.43055054,0.00236200
5273.35935791,0.00248667
5275.28816528,0.00246219
5277.21697266,0.00240071
5279.14578003,0.00240912
5281.07458740,0.00234986
5283.00339478,0.00236882
5284.93220215,0.00230331
5286.86100952,0.00229948
5288.78981689,0.00230729
5290.71862427,0.00228504
5292.64743164,0.00242747
5294.57623901,0.00236086
5296.50504639,0.00230905
5298.43385376,0.00236834
5300.36266113,0.00231576
5302.29146851,0.00229869
5304.22027588,0.00228788
5306.14908325,0.00232813
5308.07789062,0.00227852
5310.00669800,0.00226275
5311.93550537,0.00230756
5313.86431274,0.00225547
5315.79312012,0.00226371
5317.72192749,0.00224154
5319.65073486,0.00227375
5321.57954224,0.00229377
5323.50834961,0.00225153
5325.43715698,0.00222729
5327.36596436,0.00222779
5329.29477173,0.00226309
5331.22357910,0.00221578
5333.15238647,0.00224367
5335.08119385,0.00226290
5337.01000122,0.00222233
5338.93880859,0.00213389
5340.86761597,0.00215405
5342.79642334,0.00220620
5344.72523071,0.00204995
5346.65403809,0.00217257
5348.58284546,0.00220581
5350.51165283,0.00214503
5352.44046020,0.00222092
5354.36926758,0.00213545
5356.29807495,0.00219727
5358.22688232,0.00214707
5360.15568970,0.00213730
5362.08449707,0.00219042
5364.01330444,0.00207098
5365.94211182,0.00211157
5367.87091919,0.00214661
5369.79972656,0.00211522
5371.72853394,0.00203174
5373.65734131,0.00208061
5375.58614868,0.00212151
5377.51495605,0.00203081
5379.44376343,0.00207779
5381.37257080,0.00202659
5383.30137817,0.00198886
5385.23018555,0.00201398
5387.15899292,0.00200729
5389.08780029,0.00208621
5391.01660767,0.00210703
5392.94541504,0.00199426
5394.87422241,0.00196089
5396.80302978,0.00204439
5398.73183716,0.00203391
5400.66064453,0.00202561
5402.58945190,0.00198983
5404.51825928,0.00201374
5406.44706665,0.00210177
5408.37587402,0.00198802
5410.30468140,0.00196313
5412.23348877,0.00193990
5414.16229614,0.00182123
5416.09110352,0.00196046
5418.01991089,0.00200817
5419.94871826,0.00189442
5421.87752563,0.00198781
5423.80633301,0.00200244
5425.73514038,0.00200665
5427.66394775,0.00199211
5429.59275513,0.00180210
5431.52156250,0.00186878
5433.45036987,0.00190757
5435.37917725,0.00183781
5437.30798462,0.00192293
5439.23679199,0.00190852
5441.16559936,0.00186612
5443.09440674,0.00192838
5445.02321411,0.00189452
5446.95202148,0.00178970
5448.88082886,0.00188427
5450.80963623,0.00185362
5452.73844360,0.00184078
5454.66725098,0.00193137
5456.59605835,0.00179692
5458.52486572,0.00182017
5460.45367310,0.00181674
5462.38248047,0.00186013
5464.31128784,0.00189054
5466.24009521,0.00180393
5468.16890259,0.00188599
5470.09770996,0.00179519
5472.02651733,0.00185079
5473.95532471,0.00183110
5475.88413208,0.00170317
5477.81293945,0.00180654
5479.74174683,0.00182130
5481.67055420,0.00189742
5483.59936157,0.00183757
5485.52816895,0.00181884
5487.45697632,0.00180400
5489.38578369,0.00171822
5491.31459106,0.00181785
5493.24339844,0.00175573
5495.17220581,0.00178265
5497.10101318,0.00181036
5499.02982056,0.00173651
5500.95862793,0.00173695
5502.88743530,0.00176444
5504.81624268,0.00182540
5506.74505005,0.00173917
5508.67385742,0.00172268
5510.60266479,0.00171045
5512.53147217,0.00170036
5514.46027954,0.00172411
5516.38908691,0.00167931
5518.31789429,0.00174609
5520.24670166,0.00169651
5522.17550903,0.00167274
5524.10431641,0.00173607
5526.03312378,0.00167996
5527.96193115,0.00162530
5529.89073853,0.00166305
5531.81954590,0.00167849
5533.74835327,0.00159267
5535.67716064,0.00166373
5537.60596802,0.00164838
5539.53477539,0.00163043
5541.46358276,0.00173874
5543.39239014,0.00161098
5545.32119751,0.00156747
5547.25000488,0.00160676
5549.17881226,0.00165761
5551.10761963,0.00169689
5553.03642700,0.00164284
5554.96523437,0.00166411
5556.89404175,0.00159660
5558.82284912,0.00160063
5560.75165649,0.00162346
5562.68046387,0.00157718
5564.60927124,0.00161394
5566.53807861,0.00159086
5568.46688599,0.00160591
5570.39569336,0.00160165
5572.32450073,0.00160481
5574.25330811,0.00161107
5576.18211548,0.00156560
5578.11092285,0.00162081
5580.03973022,0.00160271
5581.96853760,0.00158718
5583.89734497,0.00160969
5585.82615234,0.00158052
5587.75495972,0.00157547
5589.68376709,0.00154398
5591.61257446,0.00155904
5593.54138184,0.00152955
5595.47018921,0.00147573
5597.39899658,0.00155698
5599.32780395,0.00153627
5601.25661133,0.00148017
5603.18541870,0.00153603
5605.11422607,0.00148025
5607.04303345,0.00147012
5608.97184082,0.00153341
5610.90064819,0.00152386
5612.82945557,0.00153164
5614.75826294,0.00146088
5616.68707031,0.00146508
5618.61587769,0.00151131
5620.54468506,0.00150228
5622.47349243,0.00152419
5624.40229980,0.00144672
5626.33110718,0.00144584
5628.25991455,0.00145855
5630.18872192,0.00145369
5632.11752930,0.00151389
5634.04633667,0.00147631
5635.97514404,0.00139512
5637.90395142,0.00137335
5639.83275879,0.00147848
5641.76156616,0.00147159
5643.69037353,0.00146407
5645.61918091,0.00148722
5647.54798828,0.00136576
5649.47679565,0.00139744
5651.40560303,0.00136636
5653.33441040,0.00139030
5655.26321777,0.00148189
5657.19202515,0.00136723
5659.12083252,0.00140522
5661.04963989,0.00139641
5662.97844727,0.00134957
5664.90725464,0.00140770
5666.83606201,0.00135706
5668.76486938,0.00144596
5670.69367676,0.00148918
5672.62248413,0.00132656
5674.55129150,0.00136883
5676.48009888,0.00139106
5678.40890625,0.00133029
5680.33771362,0.00142799
5682.26652100,0.00139785
5684.19532837,0.00140330
5686.12413574,0.00141809
5688.05294311,0.00132920
5689.98175049,0.00140200
5691.91055786,0.00137944
5693.83936523,0.00135395
5695.76817261,0.00135905
5697.69697998,0.00129624
5699.62578735,0.00133810
5701.55459473,0.00133314
5703.48340210,0.00134659
5705.41220947,0.00134066
5707.34101685,0.00130952
5709.26982422,0.00133056
5711.19863159,0.00128595
5713.12743896,0.00132308
5715.05624634,0.00132196
5716.98505371,0.00123320
5718.91386108,0.00124029
5720.84266846,0.00123990
5722.77147583,0.00125346
5724.70028320,0.00129537
5726.62909058,0.00130840
5728.55789795,0.00132286
5730.48670532,0.00131343
5732.41551270,0.00129593
5734.34432007,0.00126618
5736.27312744,0.00125130
5738.20193481,0.00127191
5740.13074219,0.00127301
5742.05954956,0.00126605
5743.98835693,0.00123152
5745.91716431,0.00124328
5747.84597168,0.00125642
5749.77477905,0.00119028
5751.70358643,0.00124443
5753.63239380,0.00128058
5755.56120117,0.00118209
5757.49000854,0.00119903
5759.41881592,0.00123663
5761.34762329,0.00116179
5763.27643066,0.00118006
5765.20523804,0.00127803
5767.13404541,0.00126069
5769.06285278,0.00121876
5770.99166016,0.00122385
5772.92046753,0.00119451
5774.84927490,0.00118443
5776.77808228,0.00121360
5778.70688965,0.00118661
5780.63569702,0.00116831
5782.56450439,0.00122415
5784.49331177,0.00123507
5786.42211914,0.00120335
5788.35092651,0.00119527
5790.27973389,0.00117444
5792.20854126,0.00114519
5794.13734863,0.00118272
5796.06615601,0.00121772
5797.99496338,0.00112430
5799.92377075,0.00107677
5801.85257812,0.00112345
5803.78138550,0.00113937
5805.71019287,0.00117992
5807.63900024,0.00112912
5809.56780762,0.00107741
5811.49661499,0.00115952
5813.42542236,0.00112288
5815.35422974,0.00110436
5817.28303711,0.00112349
5819.21184448,0.00106684
5821.14065186,0.00109379
5823.06945923,0.00109439
5824.99826660,0.00109997
5826.92707397,0.00108570
5828.85588135,0.00110118
5830.78468872,0.00115117
5832.71349609,0.00109044
5834.64230347,0.00112902
5836.57111084,0.00109565
5838.49991821,0.00106477
5840.42872559,0.00109929
5842.35753296,0.00107758
5844.28634033,0.00113621
5846.21514770,0.00108214
5848.14395508,0.00110440
5850.07276245,0.00111663
5852.00156982,0.00105099
5853.93037720,0.00109714
5855.85918457,0.00105733
5857.78799194,0.00104574
5859.71679932,0.00103959
5861.64560669,0.00109677
5863.57441406,0.00109583
5865.50322144,0.00101481
5867.43202881,0.00107255
5869.36083618,0.00104979
5871.28964355,0.00108537
5873.21845093,0.00107487
5875.14725830,0.00099720
5877.07606567,0.00105905
5879.00487305,0.00105334
5880.93368042,0.00102122
5882.86248779,0.00100429
5884.79129517,0.00098209
5886.72010254,0.00101026
5888.64890991,0.00106568
5890.57771728,0.00105315
5892.50652466,0.00103345
5894.43533203,0.00101587
5896.36413940,0.00092128
5898.29294678,0.00095207
5900.22175415,0.00102160
5902.15056152,0.00095060
5904.07936890,0.00096029
5906.00817627,0.00101021
5907.93698364,0.00091149
5909.86579102,0.00093088
5911.79459839,0.00101790
5913.72340576,0.00099948
5915.65221313,0.00099718
5917.58102051,0.00095902
5919.50982788,0.00099309
5921.43863525,0.00099087
5923.36744263,0.00094546
5925.29625000,0.00095987
5927.22505737,0.00094849
5929.15386475,0.00097836
5931.08267212,0.00093593
5933.01147949,0.00096007
5934.94028686,0.00098891
5936.86909424,0.00092774
5938.79790161,0.00094697
5940.72670898,0.00089770
5942.65551636,0.00086080
5944.58432373,0.00096268
5946.51313110,0.00101534
5948.44193848,0.00093623
5950.37074585,0.00100710
5952.29955322,0.00103673
5954.22836060,0.00090829
5956.15716797,0.00091575
5958.08597534,0.00090440
5960.01478271,0.00092184
5961.94359009,0.00091172
5963.87239746,0.00088570
5965.80120483,0.00092028
5967.73001221,0.00090596
5969.65881958,0.00089378
5971.58762695,0.00086219
5973.51643433,0.00088863
5975.44524170,0.00089922
5977.37404907,0.00095534
5979.30285645,0.00093462
5981.23166382,0.00086364
5983.16047119,0.00091938
5985.08927856,0.00086888
5987.01808594,0.00089341
5988.94689331,0.00088277
5990.87570068,0.00088865
5992.80450806,0.00087623
5994.73331543,0.00074253
5996.66212280,0.00086181
5998.59093018,0.00087634
6000.51973755,0.00081081
