399.26312622,0.00046232
401.19193359,0.00063520
403.12074097,0.00018921
405.04954834,0.00020400
406.97835571,0.00071538
408.90716309,0.00064426
410.83597046,0.00107496
412.76477783,0.00082756
414.69358521,0.00064540
416.62239258,0.00065163
418.55119995,0.00057453
420.48000732,0.00106156
422.40881470,0.00080511
424.33762207,0.00064249
426.26642944,0.00093482
428.19523682,0.00084185
430.12404419,0.00093167
432.05285156,0.00115149
433.98165894,0.00082550
435.91046631,0.00080591
437.83927368,0.00131036
439.76808105,0.00078624
441.69688843,0.00056606
443.62569580,0.00096780
445.55450317,0.00066833
447.48331055,0.00067870
449.41211792,0.00060020
451.34092529,0.00037200
453.26973267,0.00075898
455.19854004,0.00068990
457.12734741,0.00057222
459.05615479,0.00089889
460.98496216,0.00067183
462.91376953,0.00049165
464.84257690,0.00054491
466.77138428,0.00039597
468.70019165,0.00037881
470.62899902,0.00064832
472.55780640,0.00089029
474.48661377,0.00045956
476.41542114,0.00053301
478.34422852,0.00072818
480.27303589,0.00015199
482.20184326,0.00029883
484.13065063,0.00037709
486.05945801,0.00014874
487.98826538,0.00017007
489.91707275,0.00032811
491.84588013,0.00059699
493.77468750,0.00024949
495.70349487,0.00017579
497.63230225,0.00050339
499.56110962,0.00033431
501.48991699,0.00018398
503.41872437,0.00007228
505.34753174,0.00032591
507.27633911,0.00050883
509.20514648,0.00040132
511.13395386,0.00043510
513.06276123,0.00015737
514.99156860,0.00020437
516.92037598,0.00026527
518.84918335,0.00008850
520.77799072,0.00031199
522.70679810,0.00034738
524.63560547,0.00021656
526.56441284,0.00048925
528.49322021,0.00074682
530.42202759,0.00052762
532.35083496,0.00034814
534.27964233,0.00041678
536.20844971,0.00040222
538.13725708,0.00059125
540.06606445,0.00059573
541.99487183,0.00025217
543.92367920,0.00028552
545.85248657,0.00051990
547.78129395,0.00039184
549.71010132,0.00036618
551.63890869,0.00079824
553.56771606,0.00053067
555.49652344,0.00033556
557.42533081,0.00060145
559.35413818,0.00044523
561.28294556,0.00050254
563.21175293,0.00036110
565.14056030,0.00054390
567.06936768,0.00054323
568.99817505,0.00016561
570.92698242,0.00035011
572.85578979,0.00001696
574.78459717,0.00013351
576.71340454,0.00043683
578.64221191,0.00005114
580.57101929,0.00024348
582.49982666,0.00054300
584.42863403,0.00043578
586.35744141,0.00028779
588.28624878,0.00012175
590.21505615,0.00027410
592.14386353,0.00055418
594.07267090,0.00050753
596.00147827,0.00015601
597.93028564,0.00010387
599.85909302,0.00028355
601.78790039,0.00048177
603.71670776,0.00057262
605.64551514,0.00048949
607.57432251,0.00061901
609.50312988,-0.00009054
611.43193726,-0.00028013
613.36074463,0.00040093
615.28955200,0.00031386
617.21835938,0.00058230
619.14716675,0.00039141
621.07597412,0.00008984
623.00478149,0.00054191
624.93358887,0.00001558
626.86239624,0.00001981
628.79120361,-0.00016935
630.72001099,0.00009708
632.64881836,0.00048034
634.57762573,0.00028266
636.50643311,0.00076716
638.43524048,0.00078501
640.36404785,0.00053643
642.29285522,0.00060731
644.22166260,0.00087436
646.15046997,0.00104727
648.07927734,0.00111194
650.00808472,0.00101096
651.93689209,0.00092135
653.86569946,0.00120309
655.79450684,0.00108395
657.72331421,0.00120333
659.65212158,0.00136232
661.58092896,0.00131824
663.50973633,0.00167919
665.43854370,0.00172989
667.36735107,0.00154526
669.29615845,0.00175368
671.22496582,0.00207232
673.15377319,0.00160555
675.08258057,0.00163074
677.01138794,0.00217351
678.94019531,0.00190573
680.86900269,0.00180917
682.79781006,0.00179080
684.72661743,0.00192778
686.65542480,0.00224093
688.58423218,0.00211092
690.51303955,0.00186831
692.44184692,0.00211685
694.37065430,0.00256073
696.29946167,0.00256815
698.22826904,0.00309100
700.15707642,0.00348824
702.08588379,0.00311299
704.01469116,0.00287919
705.94349854,0.00272781
707.87230591,0.00236413
709.80111328,0.00165828
711.72992065,0.00109558
713.65872803,0.00068308
715.58753540,0.00052766
717.51634277,0.00043295
719.44515015,0.00008888
721.37395752,0.00013436
723.30276489,0.00004678
725.23157227,-0.00008879
727.16037964,0.00018861
729.08918701,0.00025297
731.01799438,0.00005223
732.94680176,0.00041966
734.87560913,0.00036069
736.80441650,0.00003724
738.73322388,0.00024720
740.66203125,0.00006741
742.59083862,0.00011073
744.51964600,0.00017728
746.44845337,0.00032384
748.37726074,0.00057534
750.30606812,0.00028294
752.23487549,0.00014467
754.16368286,0.00016411
756.09249023,0.00029255
758.02129761,0.00032310
759.95010498,0.00022353
761.87891235,0.00023172
763.80771973,0.00008520
765.73652710,0.00043741
767.66533447,0.00042332
769.59414185,0.00023989
771.52294922,0.00061531
773.45175659,0.00041914
775.38056396,0.00027960
777.30937134,0.00013400
779.23817871,0.00011733
781.16698608,0.00026929
783.09579346,0.00011357
785.02460083,0.00028030
786.95340820,0.00050555
788.88221558,0.00037401
790.81102295,0.00025642
792.73983032,0.00027473
794.66863770,0.00024649
796.59744507,0.00022708
798.52625244,0.00039460
800.45505981,0.00051209
802.38386719,0.00048943
804.31267456,0.00047990
806.24148193,0.00035623
808.17028931,0.00069004
810.09909668,0.00075912
812.02790405,0.00004814
813.95671143,0.00007046
815.88551880,0.00029356
817.81432617,0.00019857
819.74313354,0.00018210
821.67194092,0.00006106
823.60074829,0.00030988
825.52955566,0.00042107
827.45836304,0.00036548
829.38717041,0.00072185
831.31597778,0.00073721
833.24478516,0.00079191
835.17359253,0.00081019
837.10239990,0.00063650
839.03120728,0.00075716
840.96001465,0.00057683
842.88882202,0.00054374
844.81762939,0.00068557
846.74643677,0.00076516
848.67524414,0.00083831
850.60405151,0.00077585
852.53285889,0.00061442
854.46166626,0.00025564
856.39047363,0.00046272
858.31928101,0.00029372
860.24808838,0.00008222
862.17689575,0.00054614
864.10570313,0.00030664
866.03451050,0.00028733
867.96331787,0.00035296
869.89212524,0.00019473
871.82093262,0.00026398
873.74973999,0.00040954
875.67854736,0.00057047
877.60735474,0.00020055
879.53616211,0.00022830
881.46496948,0.00057521
883.39377686,0.00046415
885.32258423,0.00038440
887.25139160,0.00009544
889.18019897,0.00009020
891.10900635,0.00050582
893.03781372,0.00017510
894.96662109,0.00010451
896.89542847,0.00048128
898.82423584,0.00026691
900.75304321,0.00036105
902.68185059,0.00043751
904.61065796,0.00037525
906.53946533,0.00053903
908.46827271,0.00026103
910.39708008,0.00029290
912.32588745,0.00068338
914.25469482,0.00064543
916.18350220,0.00048925
918.11230957,0.00063032
920.04111694,0.00091446
921.96992432,0.00086368
923.89873169,0.00072656
925.82753906,0.00089562
927.75634644,0.00119158
929.68515381,0.00102261
931.61396118,0.00093487
933.54276855,0.00108886
935.47157593,0.00093526
937.40038330,0.00109775
939.32919067,0.00131834
941.25799805,0.00138784
943.18680542,0.00119722
945.11561279,0.00107921
947.04442017,0.00129391
948.97322754,0.00112764
950.90203491,0.00110811
952.83084229,0.00101266
954.75964966,0.00113274
956.68845703,0.00134837
958.61726440,0.00116012
960.54607178,0.00132989
962.47487915,0.00119635
964.40368652,0.00127065
966.33249390,0.00134873
968.26130127,0.00105044
970.19010864,0.00143027
972.11891602,0.00159609
974.04772339,0.00144433
975.97653076,0.00162125
977.90533813,0.00192833
979.83414551,0.00190460
981.76295288,0.00192307
983.69176025,0.00231036
985.62056763,0.00239210
987.54937500,0.00267457
989.47818237,0.00312775
991.40698975,0.00334310
993.33579712,0.00372170
995.26460449,0.00412799
997.19341187,0.00432530
999.12221924,0.00456796
1001.05102661,0.00516225
1002.97983398,0.00547307
1004.90864136,0.00571981
1006.83744873,0.00629156
1008.76625610,0.00647405
1010.69506348,0.00704423
1012.62387085,0.00762337
1014.55267822,0.00740507
1016.48148560,0.00790803
1018.41029297,0.00852038
1020.33910034,0.00862706
1022.26790771,0.00916710
1024.19671509,0.00957891
1026.12552246,0.01006025
1028.05432983,0.01042406
1029.98313721,0.01038753
1031.91194458,0.01079687
1033.84075195,0.01105047
1035.76955933,0.01107426
1037.69836670,0.01129447
1039.62717407,0.01151774
1041.55598145,0.01166786
1043.48478882,0.01142135
1045.41359619,0.01112081
1047.34240356,0.01097456
1049.27121094,0.01077567
1051.20001831,0.01054456
1053.12882568,0.01026596
1055.05763306,0.01014501
1056.98644043,0.01005364
1058.91524780,0.00991403
1060.84405518,0.00967053
1062.77286255,0.00927810
1064.70166992,0.00915600
1066.63047729,0.00884415
1068.55928467,0.00835294
1070.48809204,0.00820406
1072.41689941,0.00773959
1074.34570679,0.00727623
1076.27451416,0.00704871
1078.20332153,0.00645932
1080.13212891,0.00614434
1082.06093628,0.00601906
1083.98974365,0.00573881
1085.91855103,0.00568001
1087.84735840,0.00534739
1089.77616577,0.00504507
1091.70497314,0.00498334
1093.63378052,0.00478328
1095.56258789,0.00466496
1097.49139526,0.00430272
1099.42020264,0.00430876
1101.34901001,0.00435149
1103.27781738,0.00406190
1105.20662476,0.00429016
1107.13543213,0.00391473
1109.06423950,0.00376303
1110.99304687,0.00417984
1112.92185425,0.00391321
1114.85066162,0.00377427
1116.77946899,0.00374557
1118.70827637,0.00384805
1120.63708374,0.00387268
1122.56589111,0.00388252
1124.49469849,0.00402845
1126.42350586,0.00384809
1128.35231323,0.00405624
1130.28112061,0.00432450
1132.20992798,0.00432146
1134.13873535,0.00433821
1136.06754272,0.00463519
1137.99635010,0.00499619
1139.92515747,0.00500957
1141.85396484,0.00533157
1143.78277222,0.00576885
1145.71157959,0.00598057
1147.64038696,0.00621858
1149.56919434,0.00674147
1151.49800171,0.00712124
1153.42680908,0.00719396
1155.35561646,0.00764577
1157.28442383,0.00804401
1159.21323120,0.00819559
1161.14203857,0.00861504
1163.07084595,0.00907168
1164.99965332,0.00921931
1166.92846069,0.00961929
1168.85726807,0.01004887
1170.78607544,0.01036881
1172.71488281,0.01098292
1174.64369019,0.01128537
1176.57249756,0.01161408
1178.50130493,0.01205520
1180.43011230,0.01255867
1182.35891968,0.01311267
1184.28772705,0.01364700
1186.21653442,0.01428382
1188.14534180,0.01469635
1190.07414917,0.01553804
1192.00295654,0.01621762
1193.93176392,0.01691574
1195.86057129,0.01790682
1197.78937866,0.01847919
1199.71818604,0.01943971
1201.64699341,0.02022329
1203.57580078,0.02096327
1205.50460815,0.02186227
1207.43341553,0.02260841
1209.36222290,0.02341637
1211.29103027,0.02396778
1213.21983765,0.02489015
1215.14864502,0.02564549
1217.07745239,0.02595702
1219.00625977,0.02641428
1220.93506714,0.02676339
1222.86387451,0.02725585
1224.79268188,0.02755287
1226.72148926,0.02752753
1228.65029663,0.02784944
1230.57910400,0.02788603
1232.50791138,0.02784735
1234.43671875,0.02826965
1236.36552612,0.02812025
1238.29433350,0.02798994
1240.22314087,0.02795966
1242.15194824,0.02785626
1244.08075562,0.02785204
1246.00956299,0.02744545
1247.93837036,0.02740125
1249.86717773,0.02713715
1251.79598511,0.02697325
1253.72479248,0.02689816
1255.65359985,0.02650163
1257.58240723,0.02642168
1259.51121460,0.02564526
1261.44002197,0.02534386
1263.36882935,0.02512164
1265.29763672,0.02447262
1267.22644409,0.02456106
1269.15525146,0.02420073
1271.08405884,0.02379208
1273.01286621,0.02343322
1274.94167358,0.02293069
1276.87048096,0.02261798
1278.79928833,0.02215933
1280.72809570,0.02179131
1282.65690308,0.02135881
1284.58571045,0.02083576
1286.51451782,0.02054966
1288.44332520,0.02044922
1290.37213257,0.02012831
1292.30093994,0.01980628
1294.22974731,0.01961595
1296.15855469,0.01950140
1298.08736206,0.01950689
1300.01616943,0.01948236
1301.94497681,0.01967005
1303.87378418,0.01999546
1305.80259155,0.02019250
1307.73139893,0.02036663
1309.66020630,0.02088821
1311.58901367,0.02101004
1313.51782104,0.02123844
1315.44662842,0.02202605
1317.37543579,0.02204769
1319.30424316,0.02264922
1321.23305054,0.02384810
1323.16185791,0.02459654
1325.09066528,0.02519230
1327.01947266,0.02568687
1328.94828003,0.02648766
1330.87708740,0.02713160
1332.80589478,0.02766547
1334.73470215,0.02818714
1336.66350952,0.02835918
1338.59231689,0.02800590
1340.52112427,0.02854675
1342.44993164,0.02992805
1344.37873901,0.02994652
1346.30754639,0.03001886
1348.23635376,0.02995059
1350.16516113,0.02963932
1352.09396851,0.02978426
1354.02277588,0.02933989
1355.95158325,0.02921254
1357.88039062,0.02887171
1359.80919800,0.02841089
1361.73800537,0.02699124
1363.66681274,0.02629678
1365.59562012,0.02811145
1367.52442749,0.02753466
1369.45323486,0.02730115
1371.38204224,0.02779325
1373.31084961,0.02596295
1375.23965698,0.02623388
1377.16846436,0.02709401
1379.09727173,0.02703573
1381.02607910,0.02718535
1382.95488647,0.02737792
1384.88369385,0.02721070
1386.81250122,0.02547073
1388.74130859,0.02593078
1390.67011597,0.02866196
1392.59892334,0.02777910
1394.52773071,0.02547368
1396.45653809,0.02696603
1398.38534546,0.02697764
1400.31415283,0.02681929
1402.24296021,0.02922387
1404.17176758,0.02735562
1406.10057495,0.02760220
1408.02938232,0.02895639
1409.95818970,0.02796212
1411.88699707,0.02854776
1413.81580444,0.02743174
1415.74461182,0.02811088
1417.67341919,0.02473721
1419.60222656,0.02179635
1421.53103394,0.02605534
1423.45984131,0.02501852
1425.38864868,0.02431300
1427.31745605,0.02495984
1429.24626343,0.02277338
1431.17507080,0.02226889
1433.10387817,0.02279300
1435.03268555,0.02055982
1436.96149292,0.01711138
1438.89030029,0.02001066
1440.81910767,0.02066302
1442.74791504,0.01900415
1444.67672241,0.02016717
1446.60552979,0.01816722
1448.53433716,0.01850658
1450.46314453,0.01923176
1452.39195190,0.01954608
1454.32075928,0.02036430
1456.24956665,0.01619035
1458.17837402,0.01679846
1460.10718140,0.02321099
1462.03598877,0.02494280
1463.96479614,0.02425311
1465.89360352,0.02506828
1467.82241089,0.02933211
1469.75121826,0.03155520
1471.68002563,0.02732733
1473.60883301,0.02852237
1475.53764038,0.03283804
1477.46644775,0.03581280
1479.39525513,0.03960328
1481.32406250,0.03987667
1483.25286987,0.04254242
1485.18167725,0.04383487
1487.11048462,0.04261551
1489.03929199,0.04184532
1490.96809937,0.04208031
1492.89690674,0.05037995
1494.82571411,0.04872509
1496.75452148,0.04267176
1498.68332886,0.04923711
1500.61213623,0.05091573
1502.54094360,0.05497085
1504.46975098,0.05136526
1506.39855835,0.03495657
1508.32736572,0.04435916
1510.25617310,0.05346821
1512.18498047,0.05149628
1514.11378784,0.05664705
1516.04259521,0.04971085
1517.97140259,0.05233108
1519.90020996,0.05067367
1521.82901733,0.04222684
1523.75782471,0.05397455
1525.68663208,0.05286770
1527.61543945,0.05234655
1529.54424683,0.05930822
1531.47305420,0.05645378
1533.40186157,0.05071932
1535.33066895,0.05459438
1537.25947632,0.05927221
1539.18828369,0.03978460
1541.11709106,0.04193664
1543.04589844,0.05185843
1544.97470581,0.04937030
1546.90351318,0.06068497
1548.83232056,0.05566812
1550.76112793,0.05776297
1552.68993530,0.05784513
1554.61874268,0.05144385
1556.54755005,0.05550064
1558.47635742,0.03637669
1560.40516479,0.04040129
1562.33397217,0.06132967
1564.26277954,0.05717630
1566.19158691,0.05931900
1568.12039429,0.05855539
1570.04920166,0.05052040
1571.97800903,0.06000429
1573.90681641,0.06099675
1575.83562378,0.04646697
1577.76443115,0.05387064
1579.69323853,0.06203936
1581.62204590,0.05900135
1583.55085327,0.06063972
1585.47966064,0.05969668
1587.40846802,0.06053168
1589.33727539,0.05979586
1591.26608276,0.05963422
1593.19489014,0.05978687
1595.12369751,0.05911337
1597.05250488,0.06010965
1598.98131226,0.05961902
1600.91011963,0.06017205
1602.83892700,0.05880193
1604.76773437,0.05976929
1606.69654175,0.05890486
1608.62534912,0.05880509
1610.55415649,0.05876777
1612.48296387,0.05929426
1614.41177124,0.06018452
1616.34057861,0.04764760
1618.26938599,0.05258834
1620.19819336,0.06250796
1622.12700073,0.05405650
1624.05580811,0.05452099
1625.98461548,0.05799490
1627.91342285,0.05723832
1629.84223022,0.05697050
1631.77103760,0.06187601
1633.69984497,0.05597729
1635.62865234,0.04430575
1637.55745972,0.05341492
1639.48626709,0.06002177
1641.41507446,0.05825326
1643.34388184,0.06014533
1645.27268921,0.05314782
1647.20149658,0.04531211
1649.13030396,0.05885256
1651.05911133,0.05545074
1652.98791870,0.03262573
1654.91672607,0.04717496
1656.84553345,0.06163887
1658.77434082,0.05897019
1660.70314819,0.06066232
1662.63195557,0.05421924
1664.56076294,0.05770207
1666.48957031,0.06287941
1668.41837769,0.05339230
1670.34718506,0.05135746
1672.27599243,0.05990385
1674.20479980,0.05449086
1676.13360718,0.05178826
1678.06241455,0.06122939
1679.99122192,0.05874028
1681.92002930,0.05752150
1683.84883667,0.04506499
1685.77764404,0.04527987
1687.70645142,0.06498878
1689.63525879,0.05484106
1691.56406616,0.06143654
1693.49287354,0.06280504
1695.42168091,0.04342370
1697.35048828,0.05568316
1699.27929565,0.04768457
1701.20810303,0.04211602
1703.13691040,0.06084427
1705.06571777,0.05490024
1706.99452515,0.05553390
1708.92333252,0.06132773
1710.85213989,0.05870089
1712.78094727,0.05983970
1714.70975464,0.05472322
1716.63856201,0.04836003
1718.56736938,0.04725447
1720.49617676,0.05782251
1722.42498413,0.06068936
1724.35379150,0.05553220
1726.28259888,0.06153009
1728.21140625,0.05621536
1730.14021362,0.05661094
1732.06902100,0.05513082
1733.99782837,0.03967941
1735.92663574,0.05176062
1737.85544312,0.05836178
1739.78425049,0.05068063
1741.71305786,0.05602725
1743.64186523,0.05674791
1745.57067261,0.05658600
1747.49947998,0.05710924
1749.42828735,0.05429497
1751.35709473,0.05150413
1753.28590210,0.05811612
1755.21470947,0.06106011
1757.14351685,0.05480532
1759.07232422,0.06168003
1761.00113159,0.05692859
1762.92993896,0.05473845
1764.85874634,0.06437491
1766.78755371,0.05650775
1768.71636108,0.05741033
1770.64516846,0.05676252
1772.57397583,0.04992250
1774.50278320,0.05710097
1776.43159058,0.06072532
1778.36039795,0.06000032
1780.28920532,0.05898082
1782.21801270,0.05954463
1784.14682007,0.05952346
1786.07562744,0.05806028
1788.00443481,0.06176179
1789.93324219,0.05966551
1791.86204956,0.05291698
1793.79085693,0.05597852
1795.71966431,0.06083930
1797.64847168,0.05982513
1799.57727905,0.05869905
1801.50608643,0.05740607
1803.43489380,0.05983848
1805.36370117,0.06151862
1807.29250854,0.06046648
1809.22131592,0.06067336
1811.15012329,0.05870834
1813.07893066,0.06092691
1815.00773804,0.06115989
1816.93654541,0.06045365
1818.86535278,0.06114297
1820.79416016,0.06080301
1822.72296753,0.06175617
1824.65177490,0.05670240
1826.58058228,0.05949285
1828.50938965,0.05960589
1830.43819702,0.05504604
1832.36700439,0.06106208
1834.29581177,0.06050433
1836.22461914,0.06064734
1838.15342651,0.06032310
1840.08223389,0.06071248
1842.01104126,0.06101643
1843.93984863,0.05276327
1845.86865601,0.05690218
1847.79746338,0.06071230
1849.72627075,0.05927716
1851.65507812,0.06139127
1853.58388550,0.05995762
1855.51269287,0.06061393
1857.44150024,0.06022228
1859.37030762,0.05992839
1861.29911499,0.06020724
1863.22792236,0.05943054
1865.15672974,0.06040685
1867.08553711,0.05791363
1869.01434448,0.05490173
1870.94315186,0.05770507
1872.87195923,0.06052966
1874.80076660,0.05916712
1876.72957397,0.05955476
1878.65838135,0.05944466
1880.58718872,0.05907091
1882.51599609,0.05975857
1884.44480347,0.05849637
1886.37361084,0.05962181
1888.30241821,0.05803860
1890.23122559,0.05660849
1892.16003296,0.05941061
1894.08884033,0.05835197
1896.01764771,0.05794601
1897.94645508,0.05884530
1899.87526245,0.05856799
1901.80406982,0.05868682
1903.73287720,0.05815720
1905.66168457,0.05855177
1907.59049194,0.05797256
1909.51929932,0.05756729
1911.44810669,0.05782031
1913.37691406,0.05797054
1915.30572144,0.05883322
1917.23452881,0.05554809
1919.16333618,0.05555852
1921.09214355,0.05824817
1923.02095093,0.05606717
1924.94975830,0.05747636
1926.87856567,0.05811505
1928.80737305,0.05724827
1930.73618042,0.05811261
1932.66498779,0.05722070
1934.59379517,0.05802193
1936.52260254,0.05744107
1938.45140991,0.05750930
1940.38021729,0.05755709
1942.30902466,0.05528481
1944.23783203,0.05654445
1946.16663940,0.05737057
1948.09544678,0.05709698
1950.02425415,0.05740339
1951.95306152,0.05726427
1953.88186890,0.05729040
1955.81067627,0.05702428
1957.73948364,0.05731694
1959.66829102,0.05739722
1961.59709839,0.05709597
1963.52590576,0.05716049
1965.45471313,0.05682103
1967.38352051,0.05611992
1969.31232788,0.05684032
1971.24113525,0.05717443
1973.16994263,0.05657768
1975.09875000,0.05702164
1977.02755737,0.05669892
1978.95636475,0.05674075
1980.88517212,0.05674836
1982.81397949,0.05635637
1984.74278687,0.05659153
1986.67159424,0.05608359
1988.60040161,0.05623387
1990.52920898,0.05579536
1992.45801636,0.05497825
1994.38682373,0.05582207
1996.31563110,0.05605996
1998.24443848,0.05575996
2000.17324585,0.05592363
2002.10205322,0.05563783
2004.03086060,0.05555784
2005.95966797,0.05568573
2007.88847534,0.05538276
2009.81728271,0.05529567
2011.74609009,0.05506645
2013.67489746,0.05517676
2015.60370483,0.05493857
2017.53251221,0.05422530
2019.46131958,0.05457341
2021.39012695,0.05466441
2023.31893433,0.05454362
2025.24774170,0.05440583
2027.17654907,0.05425841
2029.10535645,0.05430534
2031.03416382,0.05400535
2032.96297119,0.05394591
2034.89177856,0.05384392
2036.82058594,0.05372677
2038.74939331,0.05368875
2040.67820068,0.05349411
2042.60700806,0.05330270
2044.53581543,0.05335701
2046.46462280,0.05327906
2048.39343018,0.05307052
2050.32223755,0.05311988
2052.25104492,0.05290747
2054.17985229,0.05292522
2056.10865967,0.05277888
2058.03746704,0.05253758
2059.96627441,0.05250854
2061.89508179,0.05235984
2063.82388916,0.05223323
2065.75269653,0.05198186
2067.68150391,0.05228450
2069.61031128,0.05215390
2071.53911865,0.05186850
2073.46792603,0.05190711
2075.39673340,0.05167551
2077.32554077,0.05176410
2079.25434814,0.05165198
2081.18315552,0.05163743
2083.11196289,0.05149237
2085.04077026,0.05140252
2086.96957764,0.05133280
2088.89838501,0.05106098
2090.82719238,0.05113329
2092.75599976,0.05095742
2094.68480713,0.05108306
2096.61361450,0.05090088
2098.54242187,0.05069189
2100.47122925,0.05083741
2102.40003662,0.05059662
2104.32884399,0.05055128
2106.25765137,0.05037715
2108.18645874,0.05034813
2110.11526611,0.05038882
2112.04407349,0.05030375
2113.97288086,0.05014141
2115.90168823,0.05003594
2117.83049561,0.05008198
2119.75930298,0.04983523
2121.68811035,0.04982397
2123.61691772,0.04975641
2125.54572510,0.04962701
2127.47453247,0.04964029
2129.40333984,0.04958978
2131.33214722,0.04950536
2133.26095459,0.04941018
2135.18976196,0.04938529
2137.11856934,0.04936799
2139.04737671,0.04936105
2140.97618408,0.04907177
2142.90499146,0.04917436
2144.83379883,0.04921406
2146.76260620,0.04897350
2148.69141357,0.04904194
2150.62022095,0.04886990
2152.54902832,0.04892894
2154.47783569,0.04885320
2156.40664307,0.04872341
2158.33545044,0.04876525
2160.26425781,0.04864077
2162.19306519,0.04862002
2164.12187256,0.04859174
2166.05067993,0.04849707
2167.97948730,0.04833831
2169.90829468,0.04847251
2171.83710205,0.04829444
2173.76590942,0.04825649
2175.69471680,0.04840149
2177.62352417,0.04804657
2179.55233154,0.04810929
2181.48113892,0.04812530
2183.40994629,0.04803861
2185.33875366,0.04789504
2187.26756104,0.04789079
2189.19636841,0.04794369
2191.12517578,0.04766250
2193.05398315,0.04770833
2194.98279053,0.04764723
2196.91159790,0.04766214
2198.84040527,0.04771447
2200.76921265,0.04762267
2202.69802002,0.04752184
2204.62682739,0.04744782
2206.55563477,0.04743730
2208.48444214,0.04726397
2210.41324951,0.04732912
2212.34205688,0.04720056
2214.27086426,0.04710754
2216.19967163,0.04710311
2218.12847900,0.04705093
2220.05728638,0.04709677
2221.98609375,0.04696266
2223.91490112,0.04694486
2225.84370850,0.04673311
2227.77251587,0.04672688
2229.70132324,0.04664116
2231.63013062,0.04655254
2233.55893799,0.04664391
2235.48774536,0.04635346
2237.41655273,0.04642280
2239.34536011,0.04640844
2241.27416748,0.04639868
2243.20297485,0.04628645
2245.13178223,0.04609335
2247.06058960,0.04622675
2248.98939697,0.04604637
2250.91820435,0.04598688
2252.84701172,0.04584989
2254.77581909,0.04575209
2256.70462646,0.04579636
2258.63343384,0.04569649
2260.56224121,0.04568638
2262.49104858,0.04562425
2264.41985596,0.04550894
2266.34866333,0.04541589
2268.27747070,0.04548434
2270.20627808,0.04535627
2272.13508545,0.04528039
2274.06389282,0.04529581
2275.99270020,0.04515427
2277.92150757,0.04509333
2279.85031494,0.04496718
2281.77912231,0.04496273
2283.70792969,0.04496314
2285.63673706,0.04497935
2287.56554443,0.04483828
2289.49435181,0.04467139
2291.42315918,0.04474173
2293.35196655,0.04454535
2295.28077393,0.04428798
2297.20958130,0.04419196
2299.13838867,0.04410799
2301.06719604,0.04397014
2302.99600342,0.04382039
2304.92481079,0.04350163
2306.85361816,0.04336189
2308.78242554,0.04314863
2310.71123291,0.04262625
2312.64004028,0.04238481
2314.56884766,0.04190079
2316.49765503,0.04151249
2318.42646240,0.04109068
2320.35526978,0.04035881
2322.28407715,0.03981913
2324.21288452,0.03940200
2326.14169189,0.03911129
2328.07049927,0.03861900
2329.99930664,0.03824498
2331.92811401,0.03793148
2333.85692139,0.03775952
2335.78572876,0.03768052
2337.71453613,0.03753052
2339.64334351,0.03741745
2341.57215088,0.03752440
2343.50095825,0.03835265
2345.42976562,0.03880081
2347.35857300,0.04023592
2349.28738037,0.04157060
2351.21618774,0.04007697
2353.14499512,0.03838977
2355.07380249,0.03708031
2357.00260986,0.03590112
2358.93141724,0.03521609
2360.86022461,0.03490889
2362.78903198,0.03490998
2364.71783936,0.03500292
2366.64664673,0.03554232
2368.57545410,0.03600600
2370.50426147,0.03691088
2372.43306885,0.03793008
2374.36187622,0.03880165
2376.29068359,0.03985504
2378.21949097,0.04056635
2380.14829834,0.04120348
2382.07710571,0.04163077
2384.00591309,0.04192721
2385.93472046,0.04196917
2387.86352783,0.04204670
2389.79233521,0.04210975
2391.72114258,0.04200091
2393.64994995,0.04200443
2395.57875732,0.04178458
2397.50756470,0.04177206
2399.43637207,0.04166573
2401.36517944,0.04168428
2403.29398682,0.04168849
2405.22279419,0.04154541
2407.15160156,0.04162646
2409.08040894,0.04139677
2411.00921631,0.04151487
2412.93802368,0.04145125
2414.86683105,0.04127179
2416.79563843,0.04139775
2418.72444580,0.04124244
2420.65325317,0.04120251
2422.58206055,0.04114774
2424.51086792,0.04120392
2426.43967529,0.04119004
2428.36848267,0.04102518
2430.29729004,0.04095530
2432.22609741,0.04090234
2434.15490479,0.04089127
2436.08371216,0.04077860
2438.01251953,0.04069709
2439.94132690,0.04072748
2441.87013428,0.04071017
2443.79894165,0.04049588
2445.72774902,0.04059202
2447.65655640,0.04058880
2449.58536377,0.04030481
2451.51417114,0.04028293
2453.44297852,0.04027506
2455.37178589,0.04035056
2457.30059326,0.04010709
2459.22940063,0.04010313
2461.15820801,0.04019067
2463.08701538,0.03991146
2465.01582275,0.03998042
2466.94463013,0.03994924
2468.87343750,0.03995580
2470.80224487,0.03984902
2472.73105225,0.03983207
2474.65985962,0.03988970
2476.58866699,0.03963953
2478.51747437,0.03972090
2480.44628174,0.03960026
2482.37508911,0.03942053
2484.30389648,0.03942178
2486.23270386,0.03943525
2488.16151123,0.03937200
2490.09031860,0.03919375
2492.01912598,0.03932025
2493.94793335,0.03922439
2495.87674072,0.03909113
2497.80554810,0.03916125
2499.73435547,0.03907141
2501.66316284,0.03899610
2503.59197021,0.03899206
2505.52077759,0.03899084
2507.44958496,0.03897092
2509.37839233,0.03890000
2511.30719971,0.03877843
2513.23600708,0.03880614
2515.16481445,0.03871885
2517.09362183,0.03865030
2519.02242920,0.03864758
2520.95123657,0.03839592
2522.88004395,0.03840248
2524.80885132,0.03843559
2526.73765869,0.03833687
2528.66646606,0.03832528
2530.59527344,0.03829793
2532.52408081,0.03830988
2534.45288818,0.03823385
2536.38169556,0.03815696
2538.31050293,0.03807836
2540.23931030,0.03800240
2542.16811768,0.03800432
2544.09692505,0.03796477
2546.02573242,0.03795627
2547.95453979,0.03790364
2549.88334717,0.03778160
2551.81215454,0.03776449
2553.74096191,0.03771973
2555.66976929,0.03763656
2557.59857666,0.03759050
2559.52738403,0.03749387
2561.45619141,0.03741603
2563.38499878,0.03732672
2565.31380615,0.03738301
2567.24261353,0.03745142
2569.17142090,0.03727951
2571.10022827,0.03726202
2573.02903564,0.03728697
2574.95784302,0.03715014
2576.88665039,0.03707921
2578.81545776,0.03701503
2580.74426514,0.03693740
2582.67307251,0.03700250
2584.60187988,0.03695301
2586.53068726,0.03677066
2588.45949463,0.03676619
2590.38830200,0.03681254
2592.31710937,0.03676309
2594.24591675,0.03656267
2596.17472412,0.03659990
2598.10353149,0.03664998
2600.03233887,0.03644725
2601.96114624,0.03652148
2603.88995361,0.03648230
2605.81876099,0.03633358
2607.74756836,0.03624232
2609.67637573,0.03619871
2611.60518311,0.03632124
2613.53399048,0.03623016
2615.46279785,0.03609871
2617.39160522,0.03608059
2619.32041260,0.03606217
2621.24921997,0.03587354
2623.17802734,0.03578214
2625.10683472,0.03589634
2627.03564209,0.03582514
2628.96444946,0.03580616
2630.89325684,0.03575073
2632.82206421,0.03565983
2634.75087158,0.03566651
2636.67967895,0.03564063
2638.60848633,0.03557764
2640.53729370,0.03549542
2642.46610107,0.03543188
2644.39490845,0.03538073
2646.32371582,0.03544887
2648.25252319,0.03538942
2650.18133057,0.03522949
2652.11013794,0.03514428
2654.03894531,0.03515957
2655.96775269,0.03511304
2657.89656006,0.03493293
2659.82536743,0.03502225
2661.75417480,0.03493276
2663.68298218,0.03483949
2665.61178955,0.03488538
2667.54059692,0.03471274
2669.46940430,0.03470947
2671.39821167,0.03466488
2673.32701904,0.03467915
2675.25582642,0.03463265
2677.18463379,0.03447367
2679.11344116,0.03457518
2681.04224854,0.03447990
2682.97105591,0.03436288
2684.89986328,0.03440736
2686.82867065,0.03422661
2688.75747803,0.03408749
2690.68628540,0.03418491
2692.61509277,0.03412543
2694.54390015,0.03408720
2696.47270752,0.03412154
2698.40151489,0.03394296
2700.33032227,0.03388089
2702.25912964,0.03395046
2704.18793701,0.03392376
2706.11674438,0.03376697
2708.04555176,0.03377255
2709.97435913,0.03375673
2711.90316650,0.03354399
2713.83197388,0.03360772
2715.76078125,0.03357110
2717.68958862,0.03343899
2719.61839600,0.03350201
2721.54720337,0.03345798
2723.47601074,0.03335816
2725.40481812,0.03338097
2727.33362549,0.03335302
2729.26243286,0.03315847
2731.19124023,0.03307281
2733.12004761,0.03305412
2735.04885498,0.03306889
2736.97766235,0.03295243
2738.90646973,0.03283889
2740.83527710,0.03299427
2742.76408447,0.03292866
2744.69289185,0.03273653
2746.62169922,0.03262954
2748.55050659,0.03271008
2750.47931396,0.03273002
2752.40812134,0.03257219
2754.33692871,0.03256721
2756.26573608,0.03242667
2758.19454346,0.03242498
2760.12335083,0.03236250
2762.05215820,0.03217001
2763.98096558,0.03228714
2765.90977295,0.03218610
2767.83858032,0.03208647
2769.76738770,0.03216939
2771.69619507,0.03207559
2773.62500244,0.03191522
2775.55380981,0.03187557
2777.48261719,0.03183432
2779.41142456,0.03172985
2781.34023193,0.03172454
2783.26903931,0.03164075
2785.19784668,0.03159752
2787.12665405,0.03156551
2789.05546143,0.03142611
2790.98426880,0.03132764
2792.91307617,0.03125499
2794.84188354,0.03131542
2796.77069092,0.03125221
2798.69949829,0.03118590
2800.62830566,0.03118673
2802.55711304,0.03108257
2804.48592041,0.03112819
2806.41472778,0.03099571
2808.34353516,0.03086516
2810.27234253,0.03089168
2812.20114990,0.03078617
2814.12995728,0.03082821
2816.05876465,0.03073706
2817.98757202,0.03057655
2819.91637939,0.03058777
2821.84518677,0.03048887
2823.77399414,0.03049090
2825.70280151,0.03048117
2827.63160889,0.03033763
2829.56041626,0.03019806
2831.48922363,0.03003170
2833.41803101,0.03002882
2835.34683838,0.03009939
2837.27564575,0.03002792
2839.20445312,0.02983250
2841.13326050,0.02975228
2843.06206787,0.02969061
2844.99087524,0.02944186
2846.91968262,0.02937660
2848.84848999,0.02922470
2850.77729736,0.02905666
2852.70610474,0.02922760
2854.63491211,0.02916029
2856.56371948,0.02906129
2858.49252686,0.02909691
2860.42133423,0.02903833
2862.35014160,0.02901641
2864.27894897,0.02896916
2866.20775635,0.02901642
2868.13656372,0.02899321
2870.06537109,0.02884636
2871.99417847,0.02880373
2873.92298584,0.02876596
2875.85179321,0.02864568
2877.78060059,0.02854706
2879.70940796,0.02867182
2881.63821533,0.02864745
2883.56702270,0.02848345
2885.49583008,0.02847983
2887.42463745,0.02837830
2889.35344482,0.02838290
2891.28225220,0.02834138
2893.21105957,0.02805864
2895.13986694,0.02805174
2897.06867432,0.02816490
2898.99748169,0.02801797
2900.92628906,0.02794307
2902.85509644,0.02796201
2904.78390381,0.02778411
2906.71271118,0.02767066
2908.64151855,0.02767701
2910.57032593,0.02767609
2912.49913330,0.02758892
2914.42794067,0.02740778
2916.35674805,0.02730607
2918.28555542,0.02723065
2920.21436279,0.02719332
2922.14317017,0.02714850
2924.07197754,0.02721048
2926.00078491,0.02723948
2927.92959229,0.02716739
2929.85839966,0.02720548
2931.78720703,0.02711798
2933.71601440,0.02720256
2935.64482178,0.02717010
2937.57362915,0.02702432
2939.50243652,0.02715211
2941.43124390,0.02705923
2943.36005127,0.02712144
2945.28885864,0.02711664
2947.21766602,0.02703107
2949.14647339,0.02712803
2951.07528076,0.02694429
2953.00408813,0.02690784
2954.93289551,0.02681700
2956.86170288,0.02667489
2958.79051025,0.02666816
2960.71931763,0.02657649
2962.64812500,0.02665374
2964.57693237,0.02652143
2966.50573975,0.02641790
2968.43454712,0.02652869
2970.36335449,0.02644941
2972.29216187,0.02649229
2974.22096924,0.02648578
2976.14977661,0.02642660
2978.07858398,0.02652824
2980.00739136,0.02644824
2981.93619873,0.02640623
2983.86500610,0.02645561
2985.79381348,0.02639210
2987.72262085,0.02636550
2989.65142822,0.02632400
2991.58023560,0.02624119
2993.50904297,0.02612537
2995.43785034,0.02611502
2997.36665771,0.02606897
2999.29546509,0.02602227
3001.22427246,0.02613456
3003.15307983,0.02596263
3005.08188721,0.02585765
3007.01069458,0.02587502
3008.93950195,0.02582292
3010.86830933,0.02580693
3012.79711670,0.02567469
3014.72592407,0.02568217
3016.65473145,0.02557269
3018.58353882,0.02551735
3020.51234619,0.02553991
3022.44115356,0.02540223
3024.36996094,0.02544832
3026.29876831,0.02532189
3028.22757568,0.02510248
3030.15638306,0.02505093
3032.08519043,0.02515963
3034.01399780,0.02509225
3035.94280518,0.02495451
3037.87161255,0.02510531
3039.80041992,0.02503959
3041.72922729,0.02499089
3043.65803467,0.02489069
3045.58684204,0.02481946
3047.51564941,0.02479608
3049.44445679,0.02454538
3051.37326416,0.02462319
3053.30207153,0.02464405
3055.23087891,0.02456360
3057.15968628,0.02442296
3059.08849365,0.02431750
3061.01730103,0.02447424
3062.94610840,0.02432623
3064.87491577,0.02418594
3066.80372314,0.02417018
3068.73253052,0.02423022
3070.66133789,0.02427690
3072.59014526,0.02419031
3074.51895264,0.02414030
3076.44776001,0.02396154
3078.37656738,0.02396723
3080.30537476,0.02393474
3082.23418213,0.02376841
3084.16298950,0.02384903
3086.09179687,0.02383029
3088.02060425,0.02370411
3089.94941162,0.02371196
3091.87821899,0.02366703
3093.80702637,0.02348077
3095.73583374,0.02344111
3097.66464111,0.02347542
3099.59344849,0.02340329
3101.52225586,0.02335396
3103.45106323,0.02338637
3105.37987061,0.02333451
3107.30867798,0.02316769
3109.23748535,0.02313966
3111.16629272,0.02308270
3113.09510010,0.02301777
3115.02390747,0.02301663
3116.95271484,0.02291394
3118.88152222,0.02293527
3120.81032959,0.02293459
3122.73913696,0.02270807
3124.66794434,0.02258550
3126.59675171,0.02257500
3128.52555908,0.02253799
3130.45436645,0.02261845
3132.38317383,0.02257116
3134.31198120,0.02240430
3136.24078857,0.02234941
3138.16959595,0.02232408
3140.09840332,0.02228754
3142.02721069,0.02212162
3143.95601807,0.02213934
3145.88482544,0.02216192
3147.81363281,0.02198945
3149.74244019,0.02198258
3151.67124756,0.02192506
3153.60005493,0.02184120
3155.52886230,0.02174883
3157.45766968,0.02165018
3159.38647705,0.02162091
3161.31528442,0.02161388
3163.24409180,0.02158523
3165.17289917,0.02148074
3167.10170654,0.02148117
3169.03051392,0.02142225
3170.95932129,0.02141715
3172.88812866,0.02138583
3174.81693604,0.02119554
3176.74574341,0.02119215
3178.67455078,0.02109138
3180.60335815,0.02095850
3182.53216553,0.02096650
3184.46097290,0.02090762
3186.38978027,0.02086775
3188.31858765,0.02083541
3190.24739502,0.02075036
3192.17620239,0.02074825
3194.10500977,0.02071182
3196.03381714,0.02057433
3197.96262451,0.02049565
3199.89143188,0.02044057
3201.82023926,0.02048768
3203.74904663,0.02043688
3205.67785400,0.02036609
3207.60666138,0.02032982
3209.53546875,0.02019738
3211.46427612,0.02020898
3213.39308350,0.02008113
3215.32189087,0.02003216
3217.25069824,0.02007850
3219.17950562,0.02006532
3221.10831299,0.02009620
3223.03712036,0.01996223
3224.96592773,0.01995388
3226.89473511,0.01988592
3228.82354248,0.01984384
3230.75234985,0.01989266
3232.68115723,0.01978491
3234.60996460,0.01973440
3236.53877197,0.01973122
3238.46757935,0.01971671
3240.39638672,0.01962481
3242.32519409,0.01968132
3244.25400146,0.01962651
3246.18280884,0.01955595
3248.11161621,0.01965837
3250.04042358,0.01963140
3251.96923096,0.01963047
3253.89803833,0.01945749
3255.82684570,0.01944166
3257.75565308,0.01944634
3259.68446045,0.01932266
3261.61326782,0.01934416
3263.54207520,0.01926085
3265.47088257,0.01929582
3267.39968994,0.01930971
3269.32849731,0.01930803
3271.25730469,0.01926158
3273.18611206,0.01921191
3275.11491943,0.01920610
3277.04372681,0.01912386
3278.97253418,0.01913230
3280.90134155,0.01901703
3282.83014893,0.01902064
3284.75895630,0.01905233
3286.68776367,0.01905049
3288.61657104,0.01902817
3290.54537842,0.01896268
3292.47418579,0.01896318
3294.40299316,0.01892183
3296.33180054,0.01901982
3298.26060791,0.01881961
3300.18941528,0.01884392
3302.11822266,0.01893475
3304.04703003,0.01875311
3305.97583740,0.01886990
3307.90464478,0.01869987
3309.83345215,0.01871675
3311.76225952,0.01873681
3313.69106689,0.01867395
3315.61987427,0.01875092
3317.54868164,0.01855670
3319.47748901,0.01862679
3321.40629639,0.01861393
3323.33510376,0.01856716
3325.26391113,0.01857573
3327.19271851,0.01851927
3329.12152588,0.01850372
3331.05033325,0.01837602
3332.97914062,0.01837101
3334.90794800,0.01835014
3336.83675537,0.01831880
3338.76556274,0.01825609
3340.69437012,0.01826436
3342.62317749,0.01825522
3344.55198486,0.01820361
3346.48079224,0.01823751
3348.40959961,0.01816541
3350.33840698,0.01818288
3352.26721436,0.01814622
3354.19602173,0.01809557
3356.12482910,0.01800618
3358.05363647,0.01797532
3359.98244385,0.01793830
3361.91125122,0.01782891
3363.84005859,0.01790798
3365.76886597,0.01781266
3367.69767334,0.01788951
3369.62648071,0.01788507
3371.55528809,0.01772025
3373.48409546,0.01773284
3375.41290283,0.01764120
3377.34171020,0.01765638
3379.27051758,0.01763172
3381.19932495,0.01760564
3383.12813232,0.01752610
3385.05693970,0.01745969
3386.98574707,0.01747945
3388.91455444,0.01751843
3390.84336182,0.01750876
3392.77216919,0.01731320
3394.70097656,0.01732466
3396.62978394,0.01729343
3398.55859131,0.01729165
3400.48739868,0.01722269
3402.41620605,0.01711455
3404.34501343,0.01719388
3406.27382080,0.01716525
3408.20262817,0.01722831
3410.13143555,0.01708402
3412.06024292,0.01703642
3413.98905029,0.01704194
3415.91785767,0.01702004
3417.84666504,0.01706415
3419.77547241,0.01677460
3421.70427979,0.01680967
3423.63308716,0.01695681
3425.56189453,0.01687252
3427.49070190,0.01675178
3429.41950928,0.01678150
3431.34831665,0.01673527
3433.27712402,0.01661957
3435.20593140,0.01674068
3437.13473877,0.01660649
3439.06354614,0.01664284
3440.99235352,0.01655723
3442.92116089,0.01642564
3444.84996826,0.01650707
3446.77877563,0.01618610
3448.70758301,0.01627181
3450.63639038,0.01651918
3452.56519775,0.01647405
3454.49400513,0.01648245
3456.42281250,0.01634069
3458.35161987,0.01627852
3460.28042725,0.01636157
3462.20923462,0.01617071
3464.13804199,0.01616996
3466.06684937,0.01624890
3467.99565674,0.01611968
3469.92446411,0.01625952
3471.85327148,0.01613287
3473.78207886,0.01613693
3475.71088623,0.01609273
3477.63969360,0.01600085
3479.56850098,0.01613492
3481.49730835,0.01576876
3483.42611572,0.01599817
3485.35492310,0.01611182
3487.28373047,0.01590459
3489.21253784,0.01600906
3491.14134521,0.01601999
3493.07015259,0.01612293
3494.99895996,0.01586999
3496.92776733,0.01586795
3498.85657471,0.01588888
3500.78538208,0.01587001
3502.71418945,0.01563299
3504.64299683,0.01552650
3506.57180420,0.01612427
3508.50061157,0.01580421
3510.42941895,0.01566899
3512.35822632,0.01582212
3514.28703369,0.01584465
3516.21584106,0.01601540
3518.14464844,0.01572666
3520.07345581,0.01581716
3522.00226318,0.01568962
3523.93107056,0.01544613
3525.85987793,0.01552697
3527.78868530,0.01555085
3529.71749268,0.01552921
3531.64630005,0.01563545
3533.57510742,0.01590485
3535.50391479,0.01563922
3537.43272217,0.01551421
3539.36152954,0.01566887
3541.29033691,0.01566361
3543.21914429,0.01556554
3545.14795166,0.01511402
3547.07675903,0.01493218
3549.00556641,0.01552760
3550.93437378,0.01560841
3552.86318115,0.01518525
3554.79198853,0.01551275
3556.72079590,0.01562393
3558.64960327,0.01563218
3560.57841064,0.01539890
3562.50721802,0.01522379
3564.43602539,0.01537971
3566.36483276,0.01407924
3568.29364014,0.01376125
3570.22244751,0.01508889
3572.15125488,0.01549573
3574.08006226,0.01536999
3576.00886963,0.01533067
3577.93767700,0.01534018
3579.86648437,0.01546145
3581.79529175,0.01541885
3583.72409912,0.01541618
3585.65290649,0.01502444
3587.58171387,0.01356480
3589.51052124,0.01401225
3591.43932861,0.01544932
3593.36813599,0.01491437
3595.29694336,0.01462124
3597.22575073,0.01498109
3599.15455811,0.01514992
3601.08336548,0.01495584
3603.01217285,0.01503710
3604.94098022,0.01541125
3606.86978760,0.01491497
3608.79859497,0.01378822
3610.72740234,0.01416481
3612.65620972,0.01464204
3614.58501709,0.01394692
3616.51382446,0.01511906
3618.44263184,0.01377226
3620.37143921,0.01316839
3622.30024658,0.01534565
3624.22905395,0.01482154
3626.15786133,0.01562429
3628.08666870,0.01285477
3630.01547607,0.01147160
3631.94428345,0.01508442
3633.87309082,0.01454019
3635.80189819,0.01495041
3637.73070557,0.01530885
3639.65951294,0.01502547
3641.58832031,0.01521423
3643.51712769,0.01489722
3645.44593506,0.01508791
3647.37474243,0.01326465
3649.30354980,0.01201288
3651.23235718,0.01213674
3653.16116455,0.01486248
3655.08997192,0.01475530
3657.01877930,0.01288532
3658.94758667,0.01530178
3660.87639404,0.01493447
3662.80520142,0.01511795
3664.73400879,0.01514954
3666.66281616,0.01485579
3668.59162354,0.01428237
3670.52043091,0.01124474
3672.44923828,0.01418117
3674.37804565,0.01339997
3676.30685303,0.01061341
3678.23566040,0.01400854
3680.16446777,0.01438126
3682.09327515,0.01444213
3684.02208252,0.01500889
3685.95088989,0.01463552
3687.87969727,0.01303582
3689.80850464,0.01171349
3691.73731201,0.01360494
3693.66611938,0.01427256
3695.59492676,0.01452659
3697.52373413,0.01449950
3699.45254150,0.01440846
3701.38134888,0.01393375
3703.31015625,0.01336822
3705.23896362,0.01480154
3707.16777100,0.01400461
3709.09657837,0.01357508
3711.02538574,0.01256378
3712.95419312,0.01173715
3714.88300049,0.01416581
3716.81180786,0.01399335
3718.74061523,0.01400101
3720.66942261,0.01362868
3722.59822998,0.01323543
3724.52703735,0.01379629
3726.45584473,0.01260364
3728.38465210,0.01376494
3730.31345947,0.01365603
3732.24226685,0.01244354
3734.17107422,0.01200112
3736.09988159,0.01119556
3738.02868896,0.01202854
3739.95749634,0.01331809
3741.88630371,0.01400438
3743.81511108,0.01046736
3745.74391846,0.00979497
3747.67272583,0.01323958
3749.60153320,0.01108182
3751.53034058,0.01004315
3753.45914795,0.01186858
3755.38795532,0.01291104
3757.31676270,0.01357492
3759.24557007,0.01238033
3761.17437744,0.01286795
3763.10318481,0.01393715
3765.03199219,0.01278950
3766.96079956,0.01303407
3768.88960693,0.01287237
3770.81841431,0.01212290
3772.74722168,0.01343204
3774.67602905,0.01345328
3776.60483643,0.01331527
3778.53364380,0.01301678
3780.46245117,0.01247336
3782.39125854,0.01340995
3784.32006592,0.01307787
3786.24887329,0.01291701
3788.17768066,0.01326968
3790.10648804,0.01323383
3792.03529541,0.01314316
3793.96410278,0.01343272
3795.89291016,0.01247624
3797.82171753,0.01222363
3799.75052490,0.01305320
3801.67933228,0.00991071
3803.60813965,0.01183672
3805.53694702,0.01317318
3807.46575439,0.01040743
3809.39456177,0.01299568
3811.32336914,0.01275951
3813.25217651,0.01308111
3815.18098389,0.01165589
3817.10979126,0.01017042
3819.03859863,0.01318307
3820.96740601,0.01012680
3822.89621338,0.01091132
3824.82502075,0.01315146
3826.75382812,0.01162605
3828.68263550,0.01273258
3830.61144287,0.01211943
3832.54025024,0.01158859
3834.46905762,0.01190700
3836.39786499,0.01120725
3838.32667236,0.01003293
3840.25547974,0.01098144
3842.18428711,0.01188641
3844.11309448,0.01132783
3846.04190186,0.01253478
3847.97070923,0.01231787
3849.89951660,0.01223573
3851.82832397,0.01081359
3853.75713135,0.00768597
3855.68593872,0.00943255
3857.61474609,0.01223458
3859.54355347,0.01184593
3861.47236084,0.01169112
3863.40116821,0.01135014
3865.32997559,0.01046233
3867.25878296,0.01201655
3869.18759033,0.01071334
3871.11639770,0.00972122
3873.04520508,0.01196372
3874.97401245,0.01076813
3876.90281982,0.01183696
3878.83162720,0.01209327
3880.76043457,0.00996515
3882.68924194,0.01183401
3884.61804932,0.01100035
3886.54685669,0.00997053
3888.47566406,0.01200806
3890.40447144,0.01129457
3892.33327881,0.01054736
3894.26208618,0.01164188
3896.19089355,0.01180059
3898.11970093,0.01124801
3900.04850830,0.01052712
3901.97731567,0.01030004
3903.90612305,0.01021170
3905.83493042,0.01036563
3907.76373779,0.01157122
3909.69254517,0.01164891
3911.62135254,0.01148139
3913.55015991,0.01170793
3915.47896728,0.01119840
3917.40777466,0.01090996
3919.33658203,0.01081636
3921.26538940,0.01123634
3923.19419678,0.01131822
3925.12300415,0.01095402
3927.05181152,0.01110819
3928.98061890,0.01131579
3930.90942627,0.01100873
3932.83823364,0.01060050
3934.76704102,0.01112977
3936.69584839,0.01123601
3938.62465576,0.01112307
3940.55346313,0.01127579
3942.48227051,0.01072119
3944.41107788,0.01078814
3946.33988525,0.01110689
3948.26869263,0.01074047
3950.19750000,0.01075863
3952.12630737,0.01099795
3954.05511475,0.01089299
3955.98392212,0.01093280
3957.91272949,0.01095467
3959.84153687,0.01088565
3961.77034424,0.01078497
3963.69915161,0.01078107
3965.62795898,0.01097236
3967.55676636,0.01077364
3969.48557373,0.01070945
3971.41438110,0.01074887
3973.34318848,0.01066397
3975.27199585,0.01065893
3977.20080322,0.01066892
3979.12961060,0.01069609
3981.05841797,0.01054752
3982.98722534,0.01064680
3984.91603271,0.01062073
3986.84484009,0.01053401
3988.77364746,0.01051419
3990.70245483,0.01041695
3992.63126221,0.01048619
3994.56006958,0.01043163
3996.48887695,0.01055356
3998.41768433,0.01047082
4000.34649170,0.01042199
4002.27529907,0.01046013
4004.20410645,0.01031162
4006.13291382,0.01040382
4008.06172119,0.01034765
4009.99052856,0.01031314
4011.91933594,0.01025903
4013.84814331,0.01030939
4015.77695068,0.01025206
4017.70575806,0.01011598
4019.63456543,0.01021746
4021.56337280,0.01018899
4023.49218018,0.01024445
4025.42098755,0.01010135
4027.34979492,0.01017001
4029.27860229,0.01020047
4031.20740967,0.01004674
4033.13621704,0.01014529
4035.06502441,0.01001580
4036.99383179,0.01001857
4038.92263916,0.00998639
4040.85144653,0.00998777
4042.78025391,0.00991587
4044.70906128,0.00984110
4046.63786865,0.00999114
4048.56667603,0.00985965
4050.49548340,0.00993591
4052.42429077,0.00991000
4054.35309814,0.00967396
4056.28190552,0.00973419
4058.21071289,0.00984708
4060.13952026,0.00978448
4062.06832764,0.00973819
4063.99713501,0.00971309
4065.92594238,0.00963082
4067.85474976,0.00970484
4069.78355713,0.00963160
4071.71236450,0.00963470
4073.64117187,0.00960688
4075.56997925,0.00950777
4077.49878662,0.00954709
4079.42759399,0.00948906
4081.35640137,0.00952105
4083.28520874,0.00947881
4085.21401611,0.00955866
4087.14282349,0.00950358
4089.07163086,0.00939707
4091.00043823,0.00945069
4092.92924561,0.00935554
4094.85805298,0.00941193
4096.78686035,0.00933635
4098.71566772,0.00932976
4100.64447510,0.00933245
4102.57328247,0.00928853
4104.50208984,0.00929747
4106.43089722,0.00920596
4108.35970459,0.00924011
4110.28851196,0.00918214
4112.21731934,0.00922975
4114.14612671,0.00915429
4116.07493408,0.00908821
4118.00374145,0.00913688
4119.93254883,0.00905177
4121.86135620,0.00907682
4123.79016357,0.00898510
4125.71897095,0.00902299
4127.64777832,0.00901759
4129.57658569,0.00897328
4131.50539307,0.00893697
4133.43420044,0.00887131
4135.36300781,0.00893606
4137.29181519,0.00880886
4139.22062256,0.00888249
4141.14942993,0.00887879
4143.07823730,0.00878071
4145.00704468,0.00882995
4146.93585205,0.00871900
4148.86465942,0.00872126
4150.79346680,0.00874106
4152.72227417,0.00865958
4154.65108154,0.00863756
4156.57988892,0.00871447
4158.50869629,0.00865115
4160.43750366,0.00857900
4162.36631103,0.00856128
4164.29511841,0.00857290
4166.22392578,0.00863738
4168.15273315,0.00852663
4170.08154053,0.00855002
4172.01034790,0.00850185
4173.93915527,0.00844448
4175.86796265,0.00850408
4177.79677002,0.00847354
4179.72557739,0.00846975
4181.65438477,0.00840785
4183.58319214,0.00842701
4185.51199951,0.00828822
4187.44080688,0.00823410
4189.36961426,0.00832596
4191.29842163,0.00821922
4193.22722900,0.00822123
4195.15603638,0.00826322
4197.08484375,0.00829660
4199.01365112,0.00825312
4200.94245850,0.00820060
4202.87126587,0.00819880
4204.80007324,0.00820719
4206.72888062,0.00818556
4208.65768799,0.00810817
4210.58649536,0.00810215
4212.51530273,0.00802498
4214.44411011,0.00803420
4216.37291748,0.00809875
4218.30172485,0.00807699
4220.23053223,0.00802380
4222.15933960,0.00802246
4224.08814697,0.00797562
4226.01695435,0.00790789
4227.94576172,0.00801706
4229.87456909,0.00792965
4231.80337646,0.00795105
4233.73218384,0.00795399
4235.66099121,0.00779890
4237.58979858,0.00792623
4239.51860596,0.00786998
4241.44741333,0.00779343
4243.37622070,0.00779920
4245.30502808,0.00775719
4247.23383545,0.00780022
4249.16264282,0.00778218
4251.09145020,0.00770483
4253.02025757,0.00762601
4254.94906494,0.00766547
4256.87787231,0.00774845
4258.80667969,0.00771524
4260.73548706,0.00761722
4262.66429443,0.00761358
4264.59310181,0.00755764
4266.52190918,0.00753269
4268.45071655,0.00756694
4270.37952393,0.00747237
4272.30833130,0.00748248
4274.23713867,0.00750052
4276.16594604,0.00751474
4278.09475342,0.00743909
4280.02356079,0.00743045
4281.95236816,0.00747746
4283.88117554,0.00734102
4285.80998291,0.00745344
4287.73879028,0.00747325
4289.66759766,0.00737353
4291.59640503,0.00737565
4293.52521240,0.00733843
4295.45401978,0.00734921
4297.38282715,0.00734909
4299.31163452,0.00734064
4301.24044189,0.00722775
4303.16924927,0.00721944
4305.09805664,0.00721957
4307.02686401,0.00716617
4308.95567139,0.00719041
4310.88447876,0.00715395
4312.81328613,0.00712366
4314.74209351,0.00707786
4316.67090088,0.00716510
4318.59970825,0.00716706
4320.52851562,0.00705683
4322.45732300,0.00699772
4324.38613037,0.00692111
4326.31493774,0.00697202
4328.24374512,0.00701458
4330.17255249,0.00705944
4332.10135986,0.00704933
4334.03016724,0.00698860
4335.95897461,0.00696392
4337.88778198,0.00695775
4339.81658936,0.00688753
4341.74539673,0.00678910
4343.67420410,0.00685472
4345.60301147,0.00680544
4347.53181885,0.00678159
4349.46062622,0.00680083
4351.38943359,0.00677547
4353.31824097,0.00682319
4355.24704834,0.00676889
4357.17585571,0.00673664
4359.10466309,0.00670789
4361.03347046,0.00667363
4362.96227783,0.00664382
4364.89108520,0.00671922
4366.81989258,0.00671380
4368.74869995,0.00653950
4370.67750732,0.00666040
4372.60631470,0.00670325
4374.53512207,0.00660220
4376.46392944,0.00664105
4378.39273682,0.00659395
4380.32154419,0.00649875
4382.25035156,0.00650698
4384.17915894,0.00652370
4386.10796631,0.00653589
4388.03677368,0.00655726
4389.96558105,0.00648267
4391.89438843,0.00653169
4393.82319580,0.00651917
4395.75200317,0.00642643
4397.68081055,0.00649334
4399.60961792,0.00644697
4401.53842529,0.00637090
4403.46723267,0.00639627
4405.39604004,0.00642976
4407.32484741,0.00631814
4409.25365478,0.00628048
4411.18246216,0.00631639
4413.11126953,0.00622469
4415.04007690,0.00628595
4416.96888428,0.00625935
4418.89769165,0.00616460
4420.82649902,0.00620089
4422.75530640,0.00621370
4424.68411377,0.00620409
4426.61292114,0.00615874
4428.54172852,0.00618696
4430.47053589,0.00614542
4432.39934326,0.00605149
4434.32815063,0.00611968
4436.25695801,0.00611140
4438.18576538,0.00607755
4440.11457275,0.00610700
4442.04338013,0.00605810
4443.97218750,0.00610314
4445.90099487,0.00604348
4447.82980225,0.00597708
4449.75860962,0.00605228
4451.68741699,0.00592204
4453.61622437,0.00597488
4455.54503174,0.00599553
4457.47383911,0.00588922
4459.40264648,0.00599597
4461.33145386,0.00591677
4463.26026123,0.00584342
4465.18906860,0.00588570
4467.11787598,0.00587306
4469.04668335,0.00582786
4470.97549072,0.00588362
4472.90429810,0.00588632
4474.83310547,0.00578521
4476.76191284,0.00586547
4478.69072021,0.00580742
4480.61952759,0.00579197
4482.54833496,0.00579959
4484.47714233,0.00565561
4486.40594971,0.00564942
4488.33475708,0.00572564
4490.26356445,0.00574979
4492.19237183,0.00558047
4494.12117920,0.00562986
4496.04998657,0.00572113
4497.97879395,0.00562375
4499.90760132,0.00561547
4501.83640869,0.00554118
4503.76521606,0.00553716
4505.69402344,0.00553074
4507.62283081,0.00557515
4509.55163818,0.00560440
4511.48044556,0.00553417
4513.40925293,0.00557298
4515.33806030,0.00552111
4517.26686768,0.00548942
4519.19567505,0.00549991
4521.12448242,0.00546769
4523.05328979,0.00546253
4524.98209717,0.00548693
4526.91090454,0.00547814
4528.83971191,0.00537657
4530.76851929,0.00533161
4532.69732666,0.00532759
4534.62613403,0.00532907
4536.55494141,0.00535890
4538.48374878,0.00535425
4540.41255615,0.00533998
4542.34136353,0.00531372
4544.27017090,0.00523411
4546.19897827,0.00527788
4548.12778564,0.00530539
4550.05659302,0.00526528
4551.98540039,0.00528115
4553.91420776,0.00518187
4555.84301514,0.00526470
4557.77182251,0.00527491
4559.70062988,0.00519499
4561.62943726,0.00527224
4563.55824463,0.00517320
4565.48705200,0.00516086
4567.41585937,0.00506468
4569.34466675,0.00503496
4571.27347412,0.00515710
4573.20228149,0.00510298
4575.13108887,0.00512479
4577.05989624,0.00512125
4578.98870361,0.00508570
4580.91751099,0.00499558
4582.84631836,0.00505444
4584.77512573,0.00508686
4586.70393311,0.00496994
4588.63274048,0.00511704
4590.56154785,0.00506952
4592.49035522,0.00494633
4594.41916260,0.00494119
4596.34796997,0.00488753
4598.27677734,0.00491131
4600.20558472,0.00484417
4602.13439209,0.00478399
4604.06319946,0.00483840
4605.99200684,0.00483645
4607.92081421,0.00481654
4609.84962158,0.00485360
4611.77842895,0.00481333
4613.70723633,0.00483656
4615.63604370,0.00484983
4617.56485107,0.00475098
4619.49365845,0.00475066
4621.42246582,0.00475954
4623.35127319,0.00477579
4625.28008057,0.00474403
4627.20888794,0.00473584
4629.13769531,0.00471350
4631.06650269,0.00468591
4632.99531006,0.00469497
4634.92411743,0.00463351
4636.85292480,0.00470280
4638.78173218,0.00462170
4640.71053955,0.00461883
4642.63934692,0.00467886
4644.56815430,0.00452139
4646.49696167,0.00460423
4648.42576904,0.00457134
4650.35457642,0.00452708
4652.28338379,0.00459803
4654.21219116,0.00448537
4656.14099853,0.00449764
4658.06980591,0.00451822
4659.99861328,0.00449638
4661.92742065,0.00452837
4663.85622803,0.00443842
4665.78503540,0.00438812
4667.71384277,0.00448904
4669.64265015,0.00449150
4671.57145752,0.00450855
4673.50026489,0.00451058
4675.42907227,0.00438341
4677.35787964,0.00439011
4679.28668701,0.00438688
4681.21549438,0.00436954
4683.14430176,0.00442374
4685.07310913,0.00440614
4687.00191650,0.00434713
4688.93072388,0.00435035
4690.85953125,0.00435293
4692.78833862,0.00429475
4694.71714600,0.00435162
4696.64595337,0.00431728
4698.57476074,0.00422634
4700.50356812,0.00426252
4702.43237549,0.00424472
4704.36118286,0.00426215
4706.28999023,0.00423633
4708.21879761,0.00422619
4710.14760498,0.00425679
4712.07641235,0.00415794
4714.00521973,0.00424238
4715.93402710,0.00431945
4717.86283447,0.00415714
4719.79164185,0.00414607
4721.72044922,0.00417862
4723.64925659,0.00421397
4725.57806396,0.00422051
4727.50687134,0.00407781
4729.43567871,0.00412147
4731.36448608,0.00413519
4733.29329346,0.00407438
4735.22210083,0.00407699
4737.15090820,0.00403623
4739.07971558,0.00406267
4741.00852295,0.00404739
4742.93733032,0.00411428
4744.86613770,0.00406878
4746.79494507,0.00395365
4748.72375244,0.00406892
4750.65255981,0.00400845
4752.58136719,0.00395908
4754.51017456,0.00401975
4756.43898193,0.00399065
4758.36778931,0.00393622
4760.29659668,0.00390195
4762.22540405,0.00399135
4764.15421143,0.00395033
4766.08301880,0.00388977
4768.01182617,0.00396877
4769.94063354,0.00388406
4771.86944092,0.00386238
4773.79824829,0.00386064
4775.72705566,0.00378558
4777.65586304,0.00392583
4779.58467041,0.00386690
4781.51347778,0.00382434
4783.44228516,0.00392919
4785.37109253,0.00374311
4787.29989990,0.00380032
4789.22870728,0.00384039
4791.15751465,0.00375433
4793.08632202,0.00390089
4795.01512939,0.00381388
4796.94393677,0.00375364
4798.87274414,0.00382825
4800.80155151,0.00375809
4802.73035889,0.00369102
4804.65916626,0.00368723
4806.58797363,0.00371929
4808.51678101,0.00374401
4810.44558838,0.00373045
4812.37439575,0.00368605
4814.30320312,0.00364795
4816.23201050,0.00363224
4818.16081787,0.00364566
4820.08962524,0.00357935
4822.01843262,0.00359925
4823.94723999,0.00370166
4825.87604736,0.00365744
4827.80485474,0.00363874
4829.73366211,0.00359054
4831.66246948,0.00357395
4833.59127686,0.00363134
4835.52008423,0.00359696
4837.44889160,0.00354355
4839.37769897,0.00357989
4841.30650635,0.00359099
4843.23531372,0.00348346
4845.16412109,0.00347946
4847.09292847,0.00350274
4849.02173584,0.00350933
4850.95054321,0.00344719
4852.87935059,0.00342218
4854.80815796,0.00354232
4856.73696533,0.00347979
4858.66577270,0.00341687
4860.59458008,0.00341536
4862.52338745,0.00346156
4864.45219482,0.00345239
4866.38100220,0.00337268
4868.30980957,0.00339666
4870.23861694,0.00334343
4872.16742432,0.00338003
4874.09623169,0.00334998
4876.02503906,0.00329789
4877.95384644,0.00334641
4879.88265381,0.00332927
4881.81146118,0.00333065
4883.74026855,0.00328469
4885.66907593,0.00333420
4887.59788330,0.00329652
4889.52669067,0.00327175
4891.45549805,0.00335426
4893.38430542,0.00327088
4895.31311279,0.00323515
4897.24192017,0.00327959
4899.17072754,0.00328766
4901.09953491,0.00323171
4903.02834228,0.00328306
4904.95714966,0.00324316
4906.88595703,0.00317587
4908.81476440,0.00321632
4910.74357178,0.00315319
4912.67237915,0.00323472
4914.60118652,0.00318334
4916.52999390,0.00313293
4918.45880127,0.00320090
4920.38760864,0.00314039
4922.31641602,0.00314252
4924.24522339,0.00315266
4926.17403076,0.00317487
4928.10283813,0.00308376
4930.03164551,0.00307590
4931.96045288,0.00310482
4933.88926025,0.00309745
4935.81806763,0.00313606
4937.74687500,0.00304817
4939.67568237,0.00313165
4941.60448975,0.00306648
4943.53329712,0.00297578
4945.46210449,0.00304646
4947.39091187,0.00298288
4949.31971924,0.00303176
4951.24852661,0.00299156
4953.17733398,0.00295586
4955.10614136,0.00301416
4957.03494873,0.00298276
4958.96375610,0.00294665
4960.89256348,0.00297314
4962.82137085,0.00301414
4964.75017822,0.00292809
4966.67898560,0.00288038
4968.60779297,0.00288783
4970.53660034,0.00291277
4972.46540771,0.00291133
4974.39421509,0.00291266
4976.32302246,0.00295655
4978.25182983,0.00290565
4980.18063721,0.00292384
4982.10944458,0.00294814
4984.03825195,0.00289620
4985.96705933,0.00287041
4987.89586670,0.00286617
4989.82467407,0.00287237
4991.75348145,0.00286472
4993.68228882,0.00280184
4995.61109619,0.00276998
4997.53990356,0.00281374
4999.46871094,0.00277843
5001.39751831,0.00279590
5003.32632568,0.00278954
5005.25513306,0.00280708
5007.18394043,0.00283087
5009.11274780,0.00271431
5011.04155518,0.00276712
5012.97036255,0.00272954
5014.89916992,0.00274129
5016.82797729,0.00280261
5018.75678467,0.00271980
5020.68559204,0.00278131
5022.61439941,0.00270283
5024.54320679,0.00270849
5026.47201416,0.00274760
5028.40082153,0.00269173
5030.32962891,0.00270786
5032.25843628,0.00264352
5034.18724365,0.00270164
5036.11605103,0.00266274
5038.04485840,0.00265615
5039.97366577,0.00272675
5041.90247314,0.00263151
5043.83128052,0.00266495
5045.76008789,0.00268273
5047.68889526,0.00261827
5049.61770264,0.00258214
5051.54651001,0.00261814
5053.47531738,0.00262129
5055.40412476,0.00259248
5057.33293213,0.00262095
5059.26173950,0.00253760
5061.19054687,0.00255092
5063.11935425,0.00258836
5065.04816162,0.00249729
5066.97696899,0.00247089
5068.90577637,0.00250841
5070.83458374,0.00255318
5072.76339111,0.00252724
5074.69219849,0.00246377
5076.62100586,0.00247281
5078.54981323,0.00252492
5080.47862061,0.00247511
5082.40742798,0.00245232
5084.33623535,0.00248113
5086.26504272,0.00247360
5088.19385010,0.00248635
5090.12265747,0.00243506
5092.05146484,0.00246211
5093.98027222,0.00245660
5095.90907959,0.00246148
5097.83788696,0.00255095
5099.76669434,0.00246493
5101.69550171,0.00246644
5103.62430908,0.00245007
5105.55311645,0.00238729
5107.48192383,0.00247160
5109.41073120,0.00246980
5111.33953857,0.00239694
5113.26834595,0.00235626
5115.19715332,0.00239207
5117.12596069,0.00242569
5119.05476807,0.00241792
5120.98357544,0.00234514
5122.91238281,0.00229036
5124.84119019,0.00231298
5126.76999756,0.00228633
5128.69880493,0.00234349
5130.62761230,0.00240370
5132.55641968,0.00241536
5134.48522705,0.00236406
5136.41403442,0.00226168
5138.34284180,0.00229967
5140.27164917,0.00232029
5142.20045654,0.00227262
5144.12926392,0.00221431
5146.05807129,0.00224370
5147.98687866,0.00230178
5149.91568603,0.00226783
5151.84449341,0.00227226
5153.77330078,0.00221271
5155.70210815,0.00218309
5157.63091553,0.00228931
5159.55972290,0.00227714
5161.48853027,0.00220411
5163.41733765,0.00223916
5165.34614502,0.00221225
5167.27495239,0.00218773
5169.20375977,0.00222620
5171.13256714,0.00218521
5173.06137451,0.00219674
5174.99018188,0.00218798
5176.91898926,0.00215406
5178.84779663,0.00210933
5180.77660400,0.00208194
5182.70541138,0.00217067
5184.63421875,0.00212591
5186.56302612,0.00208985
5188.49183350,0.00216068
5190.42064087,0.00216536
5192.34944824,0.00211219
5194.27825562,0.00207450
5196.20706299,0.00207165
5198.13587036,0.00208469
5200.06467773,0.00210402
5201.99348511,0.00207902
5203.92229248,0.00216141
5205.85109985,0.00207502
5207.77990723,0.00190902
5209.70871460,0.00201814
5211.63752197,0.00207136
5213.56632935,0.00208083
5215.49513672,0.00204215
5217.42394409,0.00205242
5219.35275146,0.00205476
5221.28155884,0.00201003
5223.21036621,0.00206465
5225.13917358,0.00199074
5227.06798096,0.00203820
5228.99678833,0.00206374
5230.92559570,0.00201071
5232.85440308,0.00201530
5234.78321045,0.00194271
5236.71201782,0.00196287
5238.64082520,0.00194926
5240.56963257,0.00202269
5242.49843994,0.00197732
5244.42724731,0.00181538
5246.35605469,0.00192382
5248.28486206,0.00192301
5250.21366943,0.00188082
5252.14247681,0.00190260
5254.07128418,0.00184187
5256.00009155,0.00183419
5257.92889893,0.00190293
5259.85770630,0.00193171
5261.78651367,0.00188228
5263.71532104,0.00184838
5265.64412842,0.00184780
5267.57293579,0.00184691
5269.50174316,0.00185058
5271.43055054,0.00189788
5273.35935791,0.00191060
5275.28816528,0.00192524
5277.21697266,0.00190527
5279.14578003,0.00184914
5281.07458740,0.00189831
5283.00339478,0.00185647
5284.93220215,0.00182672
5286.86100952,0.00188213
5288.78981689,0.00182818
5290.71862427,0.00173742
5292.64743164,0.00180541
5294.57623901,0.00192982
5296.50504639,0.00184502
5298.43385376,0.00177903
5300.36266113,0.00181413
5302.29146851,0.00183883
5304.22027588,0.00182990
5306.14908325,0.00177833
5308.07789062,0.00177793
5310.00669800,0.00179322
5311.93550537,0.00182332
5313.86431274,0.00181606
5315.79312012,0.00177259
5317.72192749,0.00177012
5319.65073486,0.00183123
5321.57954224,0.00179209
5323.50834961,0.00173073
5325.43715698,0.00177969
5327.36596436,0.00165414
5329.29477173,0.00165158
5331.22357910,0.00173188
5333.15238647,0.00166474
5335.08119385,0.00174248
5337.01000122,0.00169275
5338.93880859,0.00155427
5340.86761597,0.00172510
5342.79642334,0.00179315
5344.72523071,0.00154331
5346.65403809,0.00157561
5348.58284546,0.00167508
5350.51165283,0.00164514
5352.44046020,0.00167952
5354.36926758,0.00156131
5356.29807495,0.00158963
5358.22688232,0.00159459
5360.15568970,0.00158036
5362.08449707,0.00164997
5364.01330444,0.00157192
5365.94211182,0.00163970
5367.87091919,0.00164645
5369.79972656,0.00162772
5371.72853394,0.00162187
5373.65734131,0.00161550
5375.58614868,0.00162735
5377.51495605,0.00153540
5379.44376343,0.00160621
5381.37257080,0.00161769
5383.30137817,0.00166623
5385.23018555,0.00167273
5387.15899292,0.00155762
5389.08780029,0.00158905
5391.01660767,0.00158615
5392.94541504,0.00160848
5394.87422241,0.00148846
5396.80302978,0.00147405
5398.73183716,0.00156986
5400.66064453,0.00155717
5402.58945190,0.00159783
5404.51825928,0.00150131
5406.44706665,0.00154074
5408.37587402,0.00151766
5410.30468140,0.00146781
5412.23348877,0.00154219
5414.16229614,0.00141577
5416.09110352,0.00146155
5418.01991089,0.00147718
5419.94871826,0.00146758
5421.87752563,0.00154560
5423.80633301,0.00143413
5425.73514038,0.00149517
5427.66394775,0.00152343
5429.59275513,0.00138540
5431.52156250,0.00146892
5433.45036987,0.00148698
5435.37917725,0.00140973
5437.30798462,0.00153742
5439.23679199,0.00150437
5441.16559936,0.00134622
5443.09440674,0.00143194
5445.02321411,0.00147850
5446.95202148,0.00140059
5448.88082886,0.00137983
5450.80963623,0.00140676
5452.73844360,0.00146508
5454.66725098,0.00145348
5456.59605835,0.00134133
5458.52486572,0.00137094
5460.45367310,0.00140342
5462.38248047,0.00133401
5464.31128784,0.00142983
5466.24009521,0.00141236
5468.16890259,0.00130877
5470.09770996,0.00133768
5472.02651733,0.00139671
5473.95532471,0.00142874
5475.88413208,0.00130557
5477.81293945,0.00131867
5479.74174683,0.00138200
5481.67055420,0.00138363
5483.59936157,0.00144354
5485.52816895,0.00132775
5487.45697632,0.00131074
5489.38578369,0.00138917
5491.31459106,0.00136686
5493.24339844,0.00130872
5495.17220581,0.00131225
5497.10101318,0.00141238
5499.02982056,0.00133975
5500.95862793,0.00128994
5502.88743530,0.00130797
5504.81624268,0.00133215
5506.74505005,0.00138754
5508.67385742,0.00131786
5510.60266479,0.00132817
5512.53147217,0.00133354
5514.46027954,0.00129670
5516.38908691,0.00126979
5518.31789429,0.00126815
5520.24670166,0.00135066
5522.17550903,0.00131205
5524.10431641,0.00131770
5526.03312378,0.00134987
5527.96193115,0.00131636
5529.89073853,0.00128228
5531.81954590,0.00120460
5533.74835327,0.00120378
5535.67716064,0.00122785
5537.60596802,0.00129133
5539.53477539,0.00128809
5541.46358276,0.00125432
5543.39239014,0.00134300
5545.32119751,0.00128228
5547.25000488,0.00120141
5549.17881226,0.00120768
5551.10761963,0.00118427
5553.03642700,0.00120324
5554.96523437,0.00118847
5556.89404175,0.00119727
5558.82284912,0.00123248
5560.75165649,0.00123238
5562.68046387,0.00127715
5564.60927124,0.00119985
5566.53807861,0.00112851
5568.46688599,0.00119210
5570.39569336,0.00118353
5572.32450073,0.00122800
5574.25330811,0.00121272
5576.18211548,0.00116126
5578.11092285,0.00119610
5580.03973022,0.00111475
5581.96853760,0.00112804
5583.89734497,0.00118326
5585.82615234,0.00114298
5587.75495972,0.00112789
5589.68376709,0.00111656
5591.61257446,0.00115435
5593.54138184,0.00117153
5595.47018921,0.00112174
5597.39899658,0.00115125
5599.32780395,0.00120515
5601.25661133,0.00113455
5603.18541870,0.00114946
5605.11422607,0.00113862
5607.04303345,0.00111573
5608.97184082,0.00119712
5610.90064819,0.00109760
5612.82945557,0.00114259
5614.75826294,0.00114935
5616.68707031,0.00108488
5618.61587769,0.00116785
5620.54468506,0.00105597
5622.47349243,0.00109889
5624.40229980,0.00113716
5626.33110718,0.00110990
5628.25991455,0.00116948
5630.18872192,0.00110669
5632.11752930,0.00110912
5634.04633667,0.00109719
5635.97514404,0.00115870
5637.90395142,0.00114236
5639.83275879,0.00103822
5641.76156616,0.00110865
5643.69037353,0.00111029
5645.61918091,0.00104527
5647.54798828,0.00104524
5649.47679565,0.00111803
5651.40560303,0.00106458
5653.33441040,0.00100606
5655.26321777,0.00102437
5657.19202515,0.00105033
5659.12083252,0.00112587
5661.04963989,0.00104398
5662.97844727,0.00104693
5664.90725464,0.00103936
5666.83606201,0.00095543
5668.76486938,0.00104155
5670.69367676,0.00105468
5672.62248413,0.00103936
5674.55129150,0.00103376
5676.48009888,0.00100282
5678.40890625,0.00101424
5680.33771362,0.00103930
5682.26652100,0.00101179
5684.19532837,0.00100384
5686.12413574,0.00103214
5688.05294311,0.00100720
5689.98175049,0.00104659
5691.91055786,0.00101230
5693.83936523,0.00098315
5695.76817261,0.00100793
5697.69697998,0.00096734
5699.62578735,0.00102616
5701.55459473,0.00098049
5703.48340210,0.00092754
5705.41220947,0.00101787
5707.34101685,0.00097774
5709.26982422,0.00096263
5711.19863159,0.00101119
5713.12743896,0.00093169
5715.05624634,0.00094557
5716.98505371,0.00096670
5718.91386108,0.00088373
5720.84266846,0.00092379
5722.77147583,0.00091699
5724.70028320,0.00097714
5726.62909058,0.00103060
5728.55789795,0.00087301
5730.48670532,0.00086034
5732.41551270,0.00093671
5734.34432007,0.00097795
5736.27312744,0.00093571
5738.20193481,0.00091980
5740.13074219,0.00095124
5742.05954956,0.00088443
5743.98835693,0.00093235
5745.91716431,0.00093787
5747.84597168,0.00090584
5749.77477905,0.00097990
5751.70358643,0.00098142
5753.63239380,0.00094180
5755.56120117,0.00090711
5757.49000854,0.00083632
5759.41881592,0.00081665
5761.34762329,0.00091819
5763.27643066,0.00089237
5765.20523804,0.00083597
5767.13404541,0.00089821
5769.06285278,0.00087094
5770.99166016,0.00084742
5772.92046753,0.00089271
5774.84927490,0.00092475
5776.77808228,0.00089866
5778.70688965,0.00088971
5780.63569702,0.00083793
5782.56450439,0.00079411
5784.49331177,0.00089130
5786.42211914,0.00085217
5788.35092651,0.00082087
5790.27973389,0.00085539
5792.20854126,0.00080651
5794.13734863,0.00082172
5796.06615601,0.00083036
5797.99496338,0.00085628
5799.92377075,0.00085817
5801.85257812,0.00084543
5803.78138550,0.00087247
5805.71019287,0.00080446
5807.63900024,0.00081762
5809.56780762,0.00086790
5811.49661499,0.00076985
5813.42542236,0.00075479
5815.35422974,0.00083199
5817.28303711,0.00081811
5819.21184448,0.00081805
5821.14065186,0.00083498
5823.06945923,0.00080259
5824.99826660,0.00078690
5826.92707397,0.00077587
5828.85588135,0.00078176
5830.78468872,0.00076740
5832.71349609,0.00075911
5834.64230347,0.00078796
5836.57111084,0.00079268
5838.49991821,0.00080282
5840.42872559,0.00074260
5842.35753296,0.00069973
5844.28634033,0.00080517
5846.21514770,0.00090539
5848.14395508,0.00085327
5850.07276245,0.00076917
5852.00156982,0.00077987
5853.93037720,0.00075614
5855.85918457,0.00074752
5857.78799194,0.00068703
5859.71679932,0.00064401
5861.64560669,0.00079061
5863.57441406,0.00080021
5865.50322144,0.00073752
5867.43202881,0.00073352
5869.36083618,0.00074213
5871.28964355,0.00073867
5873.21845093,0.00069095
5875.14725830,0.00074123
5877.07606567,0.00074777
5879.00487305,0.00074720
5880.93368042,0.00069079
5882.86248779,0.00067036
5884.79129517,0.00080890
5886.72010254,0.00072159
5888.64890991,0.00069978
5890.57771728,0.00074778
5892.50652466,0.00072488
5894.43533203,0.00072620
5896.36413940,0.00065844
5898.29294678,0.00076382
5900.22175415,0.00076802
5902.15056152,0.00070130
5904.07936890,0.00071053
5906.00817627,0.00067549
5907.93698364,0.00075211
5909.86579102,0.00072765
5911.79459839,0.00068145
5913.72340576,0.00065640
5915.65221313,0.00068147
5917.58102051,0.00075399
5919.50982788,0.00066216
5921.43863525,0.00062686
5923.36744263,0.00066411
5925.29625000,0.00073850
5927.22505737,0.00068574
5929.15386475,0.00061727
5931.08267212,0.00071958
5933.01147949,0.00066827
5934.94028686,0.00066289
5936.86909424,0.00066558
5938.79790161,0.00059816
5940.72670898,0.00067341
5942.65551636,0.00069293
5944.58432373,0.00066867
5946.51313110,0.00065526
5948.44193848,0.00063830
5950.37074585,0.00065736
5952.29955322,0.00065076
5954.22836060,0.00061896
5956.15716797,0.00063368
5958.08597534,0.00066862
5960.01478271,0.00063666
5961.94359009,0.00062557
5963.87239746,0.00064595
5965.80120483,0.00061359
5967.73001221,0.00066231
5969.65881958,0.00070444
5971.58762695,0.00059978
5973.51643433,0.00062405
5975.44524170,0.00063719
5977.37404907,0.00054668
5979.30285645,0.00061235
5981.23166382,0.00061300
5983.16047119,0.00059082
5985.08927856,0.00062570
5987.01808594,0.00057233
5988.94689331,0.00055048
5990.87570068,0.00058350
5992.80450806,0.00058997
5994.73331543,0.00058122
5996.66212280,0.00063777
5998.59093018,0.00062059
6000.51973755,0.00061358
