399.26312622,0.00051580
401.19193359,0.00114734
403.12074097,0.00114151
405.04954834,0.00068237
406.97835571,0.00122951
408.90716309,0.00106278
410.83597046,0.00089053
412.76477783,0.00125457
414.69358521,0.00128558
416.62239258,0.00130877
418.55119995,0.00072959
420.48000732,0.00038156
422.40881470,0.00097424
424.33762207,0.00112284
426.26642944,0.00125879
428.19523682,0.00116580
430.12404419,0.00069725
432.05285156,0.00127977
433.98165894,0.00078147
435.91046631,0.00030779
437.83927368,0.00111777
439.76808105,0.00075460
441.69688843,0.00112419
443.62569580,0.00099621
445.55450317,0.00022475
447.48331055,0.00101406
449.41211792,0.00059893
451.34092529,0.00046563
453.26973267,0.00127414
455.19854004,0.00055780
457.12734741,0.00041247
459.05615479,0.00093104
460.98496216,0.00066534
462.91376953,0.00078010
464.84257690,0.00063642
466.77138428,0.00042782
468.70019165,0.00084448
470.62899902,0.00054165
472.55780640,0.00039520
474.48661377,0.00048361
476.41542114,0.00023202
478.34422852,0.00027368
480.27303589,0.00057640
482.20184326,0.00076871
484.13065063,0.00032892
486.05945801,0.00027396
487.98826538,0.00032567
489.91707275,0.00011368
491.84588013,0.00057674
493.77468750,0.00047137
495.70349487,-0.00007359
497.63230225,0.00017017
499.56110962,0.00017465
501.48991699,0.00007829
503.41872437,0.00036250
505.34753174,0.00022400
507.27633911,-0.00006931
509.20514648,-0.00019949
511.13395386,0.00007662
513.06276123,0.00037029
514.99156860,0.00046491
516.92037598,0.00042599
518.84918335,0.00042020
520.77799072,0.00036123
522.70679810,-0.00005354
524.63560547,0.00013299
526.56441284,0.00032089
528.49322021,0.00062346
530.42202759,0.00064868
532.35083496,0.00023886
534.27964233,0.00025262
536.20844971,0.00016983
538.13725708,0.00059356
540.06606445,0.00025566
541.99487183,-0.00025310
543.92367920,-0.00006400
545.85248657,-0.00010867
547.78129395,-0.00000559
549.71010132,-0.00034318
551.63890869,-0.00003650
553.56771606,0.00027688
555.49652344,0.00020470
557.42533081,0.00023574
559.35413818,0.00030355
561.28294556,0.00060037
563.21175293,0.00008451
565.14056030,0.00033272
567.06936768,0.00044485
568.99817505,-0.00019958
570.92698242,0.00035189
572.85578979,0.00058492
574.78459717,0.00047749
576.71340454,0.00011176
578.64221191,-0.00003503
580.57101929,0.00048948
582.49982666,0.00005570
584.42863403,0.00019346
586.35744141,0.00063719
588.28624878,0.00020274
590.21505615,0.00024789
592.14386353,0.00025305
594.07267090,0.00043163
596.00147827,0.00046139
597.93028564,-0.00013880
599.85909302,-0.00000129
601.78790039,0.00022095
603.71670776,-0.00005923
605.64551514,-0.00023261
607.57432251,0.00002192
609.50312988,-0.00018271
611.43193726,-0.00021039
613.36074463,-0.00024442
615.28955200,-0.00012548
617.21835938,0.00006576
619.14716675,-0.00034206
621.07597412,0.00020870
623.00478149,0.00042486
624.93358887,0.00038261
626.86239624,0.00022375
628.79120361,0.00037583
630.72001099,0.00054398
632.64881836,0.00028688
634.57762573,0.00054882
636.50643311,0.00053876
638.43524048,0.00103683
640.36404785,0.00087754
642.29285522,0.00041370
644.22166260,0.00099437
646.15046997,0.00110643
648.07927734,0.00127457
650.00808472,0.00137332
651.93689209,0.00121752
653.86569946,0.00125154
655.79450684,0.00124090
657.72331421,0.00130787
659.65212158,0.00168929
661.58092896,0.00156667
663.50973633,0.00145599
665.43854370,0.00165075
667.36735107,0.00118472
669.29615845,0.00158237
671.22496582,0.00183201
673.15377319,0.00164979
675.08258057,0.00201481
677.01138794,0.00208802
678.94019531,0.00209832
680.86900269,0.00195963
682.79781006,0.00214839
684.72661743,0.00190534
686.65542480,0.00195178
688.58423218,0.00227753
690.51303955,0.00192311
692.44184692,0.00221372
694.37065430,0.00227105
696.29946167,0.00280335
698.22826904,0.00338565
700.15707642,0.00325116
702.08588379,0.00319038
704.01469116,0.00271779
705.94349854,0.00254652
707.87230591,0.00242729
709.80111328,0.00188409
711.72992065,0.00098754
713.65872803,0.00077652
715.58753540,0.00049541
717.51634277,-0.00013603
719.44515015,0.00029699
721.37395752,0.00018855
723.30276489,0.00010761
725.23157227,0.00008026
727.16037964,-0.00014781
729.08918701,0.00011957
731.01799438,0.00019784
732.94680176,0.00046311
734.87560913,0.00017523
736.80441650,0.00002010
738.73322388,0.00003803
740.66203125,0.00009168
742.59083862,0.00071056
744.51964600,0.00032013
746.44845337,0.00007554
748.37726074,0.00045171
750.30606812,0.00020189
752.23487549,0.00027048
754.16368286,0.00060386
756.09249023,0.00035289
758.02129761,0.00019961
759.95010498,0.00027189
761.87891235,0.00027615
763.80771973,0.00013550
765.73652710,0.00005429
767.66533447,0.00053640
769.59414185,0.00038247
771.52294922,0.00007634
773.45175659,0.00039557
775.38056396,0.00027327
777.30937134,0.00018538
779.23817871,0.00024759
781.16698608,0.00017576
783.09579346,0.00025993
785.02460083,0.00033183
786.95340820,0.00021291
788.88221558,0.00027687
790.81102295,0.00031242
792.73983032,0.00007249
794.66863770,0.00014043
796.59744507,0.00025947
798.52625244,0.00046392
800.45505981,0.00052650
802.38386719,0.00043238
804.31267456,0.00050260
806.24148193,0.00020781
808.17028931,0.00011992
810.09909668,0.00024852
812.02790405,0.00036139
813.95671143,0.00041191
815.88551880,0.00027259
817.81432617,0.00035770
819.74313354,0.00035429
821.67194092,0.00024705
823.60074829,0.00032150
825.52955566,0.00033651
827.45836304,0.00026065
829.38717041,0.00055854
831.31597778,0.00063231
833.24478516,0.00047582
835.17359253,0.00069157
837.10239990,0.00075426
839.03120728,0.00079514
840.96001465,0.00067201
842.88882202,0.00072710
844.81762939,0.00077268
846.74643677,0.00055626
848.67524414,0.00071865
850.60405151,0.00067646
852.53285889,0.00041122
854.46166626,0.00030529
856.39047363,0.00069218
858.31928101,0.00062569
860.24808838,0.00029840
862.17689575,0.00064700
864.10570313,0.00048389
866.03451050,0.00024825
867.96331787,0.00018224
869.89212524,0.00027501
871.82093262,0.00041696
873.74973999,0.00035851
875.67854736,0.00034721
877.60735474,0.00006607
879.53616211,0.00028301
881.46496948,0.00058688
883.39377686,0.00031937
885.32258423,0.00015980
887.25139160,0.00028628
889.18019897,0.00040423
891.10900635,0.00025689
893.03781372,0.00050459
894.96662109,0.00074020
896.89542847,0.00037134
898.82423584,0.00034738
900.75304321,0.00051030
902.68185059,0.00043519
904.61065796,0.00048936
906.53946533,0.00037019
908.46827271,0.00042432
910.39708008,0.00068566
912.32588745,0.00043018
914.25469482,0.00052241
916.18350220,0.00073247
918.11230957,0.00050577
920.04111694,0.00065126
921.96992432,0.00071608
923.89873169,0.00071327
925.82753906,0.00102431
927.75634644,0.00100371
929.68515381,0.00080271
931.61396118,0.00106960
933.54276855,0.00110376
935.47157593,0.00110050
937.40038330,0.00141786
939.32919067,0.00106981
941.25799805,0.00091713
943.18680542,0.00121366
945.11561279,0.00134900
947.04442017,0.00137678
948.97322754,0.00121628
950.90203491,0.00112697
952.83084229,0.00113561
954.75964966,0.00131596
956.68845703,0.00124660
958.61726440,0.00125427
960.54607178,0.00131193
962.47487915,0.00111540
964.40368652,0.00123555
966.33249390,0.00123486
968.26130127,0.00121265
970.19010864,0.00111034
972.11891602,0.00120703
974.04772339,0.00155613
975.97653076,0.00157148
977.90533813,0.00163429
979.83414551,0.00160042
981.76295288,0.00188273
983.69176025,0.00229049
985.62056763,0.00224320
987.54937500,0.00239474
989.47818237,0.00289470
991.40698975,0.00322901
993.33579712,0.00339112
995.26460449,0.00380318
997.19341187,0.00412703
999.12221924,0.00440508
1001.05102661,0.00483875
1002.97983398,0.00503524
1004.90864136,0.00516236
1006.83744873,0.00557742
1008.76625610,0.00596347
1010.69506348,0.00643759
1012.62387085,0.00691720
1014.55267822,0.00694827
1016.48148560,0.00745918
1018.41029297,0.00778978
1020.33910034,0.00783224
1022.26790771,0.00854819
1024.19671509,0.00884907
1026.12552246,0.00903657
1028.05432983,0.00942536
1029.98313721,0.00978369
1031.91194458,0.01015497
1033.84075195,0.01010486
1035.76955933,0.01007887
1037.69836670,0.01038235
1039.62717407,0.01046548
1041.55598145,0.01031336
1043.48478882,0.01036641
1045.41359619,0.01025426
1047.34240356,0.01010640
1049.27121094,0.00991863
1051.20001831,0.00970102
1053.12882568,0.00962490
1055.05763306,0.00933143
1056.98644043,0.00908035
1058.91524780,0.00873350
1060.84405518,0.00870904
1062.77286255,0.00843945
1064.70166992,0.00792832
1066.63047729,0.00798627
1068.55928467,0.00763550
1070.48809204,0.00736347
1072.41689941,0.00701669
1074.34570679,0.00662662
1076.27451416,0.00643858
1078.20332153,0.00598953
1080.13212891,0.00575101
1082.06093628,0.00560645
1083.98974365,0.00547784
1085.91855103,0.00495188
1087.84735840,0.00480432
1089.77616577,0.00464686
1091.70497314,0.00407857
1093.63378052,0.00421259
1095.56258789,0.00400502
1097.49139526,0.00395567
1099.42020264,0.00404353
1101.34901001,0.00376408
1103.27781738,0.00376978
1105.20662476,0.00376988
1107.13543213,0.00382924
1109.06423950,0.00367196
1110.99304687,0.00347641
1112.92185425,0.00346208
1114.85066162,0.00351473
1116.77946899,0.00354684
1118.70827637,0.00356452
1120.63708374,0.00342403
1122.56589111,0.00339170
1124.49469849,0.00375376
1126.42350586,0.00349090
1128.35231323,0.00355923
1130.28112061,0.00398626
1132.20992798,0.00388431
1134.13873535,0.00396422
1136.06754272,0.00397645
1137.99635010,0.00420447
1139.92515747,0.00462583
1141.85396484,0.00495232
1143.78277222,0.00510546
1145.71157959,0.00521536
1147.64038696,0.00563605
1149.56919434,0.00609224
1151.49800171,0.00651319
1153.42680908,0.00668768
1155.35561646,0.00703427
1157.28442383,0.00718317
1159.21323120,0.00712840
1161.14203857,0.00777844
1163.07084595,0.00813884
1164.99965332,0.00813932
1166.92846069,0.00849682
1168.85726807,0.00908143
1170.78607544,0.00946035
1172.71488281,0.00954020
1174.64369019,0.00989542
1176.57249756,0.01040065
1178.50130493,0.01087838
1180.43011230,0.01115258
1182.35891968,0.01152580
1184.28772705,0.01229928
1186.21653442,0.01262461
1188.14534180,0.01320144
1190.07414917,0.01403218
1192.00295654,0.01447362
1193.93176392,0.01529967
1195.86057129,0.01582919
1197.78937866,0.01658849
1199.71818604,0.01755337
1201.64699341,0.01803110
1203.57580078,0.01891651
1205.50460815,0.01934157
1207.43341553,0.02000085
1209.36222290,0.02102371
1211.29103027,0.02158998
1213.21983765,0.02226873
1215.14864502,0.02270095
1217.07745239,0.02324025
1219.00625977,0.02351028
1220.93506714,0.02381924
1222.86387451,0.02419409
1224.79268188,0.02428116
1226.72148926,0.02463676
1228.65029663,0.02441620
1230.57910400,0.02455679
1232.50791138,0.02493764
1234.43671875,0.02483501
1236.36552612,0.02497958
1238.29433350,0.02484884
1240.22314087,0.02458445
1242.15194824,0.02451133
1244.08075562,0.02457408
1246.00956299,0.02451078
1247.93837036,0.02419735
1249.86717773,0.02389787
1251.79598511,0.02392431
1253.72479248,0.02375178
1255.65359985,0.02328525
1257.58240723,0.02314084
1259.51121460,0.02250421
1261.44002197,0.02216137
1263.36882935,0.02216671
1265.29763672,0.02175337
1267.22644409,0.02164040
1269.15525146,0.02126874
1271.08405884,0.02079759
1273.01286621,0.02054254
1274.94167358,0.02021112
1276.87048096,0.01986278
1278.79928833,0.01951007
1280.72809570,0.01907441
1282.65690308,0.01873582
1284.58571045,0.01849296
1286.51451782,0.01809839
1288.44332520,0.01790453
1290.37213257,0.01741024
1292.30093994,0.01716211
1294.22974731,0.01723946
1296.15855469,0.01702555
1298.08736206,0.01724260
1300.01616943,0.01729790
1301.94497681,0.01731254
1303.87378418,0.01741840
1305.80259155,0.01754914
1307.73139893,0.01784610
1309.66020630,0.01805368
1311.58901367,0.01834403
1313.51782104,0.01854560
1315.44662842,0.01925142
1317.37543579,0.01960243
1319.30424316,0.01978147
1321.23305054,0.02087465
1323.16185791,0.02145748
1325.09066528,0.02189963
1327.01947266,0.02258230
1328.94828003,0.02302220
1330.87708740,0.02362595
1332.80589478,0.02430078
1334.73470215,0.02484047
1336.66350952,0.02498750
1338.59231689,0.02463774
1340.52112427,0.02504656
1342.44993164,0.02605586
1344.37873901,0.02602236
1346.30754639,0.02613743
1348.23635376,0.02624148
1350.16516113,0.02584191
1352.09396851,0.02583006
1354.02277588,0.02546571
1355.95158325,0.02526164
1357.88039062,0.02520168
1359.80919800,0.02484582
1361.73800537,0.02347946
1363.66681274,0.02318257
1365.59562012,0.02486395
1367.52442749,0.02400839
1369.45323486,0.02379935
1371.38204224,0.02439439
1373.31084961,0.02274219
1375.23965698,0.02291249
1377.16846436,0.02358533
1379.09727173,0.02379955
1381.02607910,0.02384868
1382.95488647,0.02361811
1384.88369385,0.02372784
1386.81250122,0.02239198
1388.74130859,0.02268558
1390.67011597,0.02492921
1392.59892334,0.02418083
1394.52773071,0.02218755
1396.45653809,0.02332634
1398.38534546,0.02349598
1400.31415283,0.02338111
1402.24296021,0.02546176
1404.17176758,0.02388037
1406.10057495,0.02403318
1408.02938232,0.02532926
1409.95818970,0.02416785
1411.88699707,0.02464412
1413.81580444,0.02388990
1415.74461182,0.02424838
1417.67341919,0.02149999
1419.60222656,0.01898009
1421.53103394,0.02256288
1423.45984131,0.02168854
1425.38864868,0.02105357
1427.31745605,0.02180503
1429.24626343,0.01970818
1431.17507080,0.01938420
1433.10387817,0.01990614
1435.03268555,0.01767014
1436.96149292,0.01487444
1438.89030029,0.01727424
1440.81910767,0.01792983
1442.74791504,0.01656920
1444.67672241,0.01741542
1446.60552979,0.01579906
1448.53433716,0.01592220
1450.46314453,0.01674216
1452.39195190,0.01716655
1454.32075928,0.01767737
1456.24956665,0.01405212
1458.17837402,0.01460843
1460.10718140,0.02012219
1462.03598877,0.02149776
1463.96479614,0.02108414
1465.89360352,0.02180835
1467.82241089,0.02550109
1469.75121826,0.02728489
1471.68002563,0.02322312
1473.60883301,0.02470154
1475.53764038,0.02863692
1477.46644775,0.03092495
1479.39525513,0.03409848
1481.32406250,0.03430489
1483.25286987,0.03683724
1485.18167725,0.03779951
1487.11048462,0.03679445
1489.03929199,0.03630575
1490.96809937,0.03622318
1492.89690674,0.04333365
1494.82571411,0.04181994
1496.75452148,0.03673540
1498.68332886,0.04243106
1500.61213623,0.04374813
1502.54094360,0.04736647
1504.46975098,0.04403521
1506.39855835,0.03011407
1508.32736572,0.03814165
1510.25617310,0.04585522
1512.18498047,0.04462168
1514.11378784,0.04869068
1516.04259521,0.04291012
1517.97140259,0.04500765
1519.90020996,0.04308707
1521.82901733,0.03667615
1523.75782471,0.04647124
1525.68663208,0.04521117
1527.61543945,0.04535136
1529.54424683,0.05113116
1531.47305420,0.04849686
1533.40186157,0.04362776
1535.33066895,0.04700447
1537.25947632,0.05067148
1539.18828369,0.03394298
1541.11709106,0.03629497
1543.04589844,0.04473368
1544.97470581,0.04257844
1546.90351318,0.05209156
1548.83232056,0.04772828
1550.76112793,0.04969559
1552.68993530,0.04928960
1554.61874268,0.04390427
1556.54755005,0.04762179
1558.47635742,0.03105772
1560.40516479,0.03478152
1562.33397217,0.05269780
1564.26277954,0.04908098
1566.19158691,0.05088830
1568.12039429,0.05006915
1570.04920166,0.04354250
1571.97800903,0.05172373
1573.90681641,0.05219382
1575.83562378,0.03968944
1577.76443115,0.04624598
1579.69323853,0.05318692
1581.62204590,0.05044694
1583.55085327,0.05201043
1585.47966064,0.05100964
1587.40846802,0.05145381
1589.33727539,0.05092533
1591.26608276,0.05096272
1593.19489014,0.05098829
1595.12369751,0.05032367
1597.05250488,0.05152180
1598.98131226,0.05102969
1600.91011963,0.05117925
1602.83892700,0.05014181
1604.76773437,0.05127069
1606.69654175,0.05050007
1608.62534912,0.05009071
1610.55415649,0.05006507
1612.48296387,0.05067388
1614.41177124,0.05127707
1616.34057861,0.04051170
1618.26938599,0.04507700
1620.19819336,0.05338605
1622.12700073,0.04595060
1624.05580811,0.04654521
1625.98461548,0.04928852
1627.91342285,0.04883441
1629.84223022,0.04882331
1631.77103760,0.05253405
1633.69984497,0.04746949
1635.62865234,0.03796290
1637.55745972,0.04568667
1639.48626709,0.05098473
1641.41507446,0.04967086
1643.34388184,0.05124932
1645.27268921,0.04504516
1647.20149658,0.03863496
1649.13030396,0.05021175
1651.05911133,0.04693153
1652.98791870,0.02769185
1654.91672607,0.04047536
1656.84553345,0.05250137
1658.77434082,0.05030701
1660.70314819,0.05165456
1662.63195557,0.04588736
1664.56076294,0.04925190
1666.48957031,0.05352260
1668.41837769,0.04534468
1670.34718506,0.04396341
1672.27599243,0.05106968
1674.20479980,0.04622066
1676.13360718,0.04415625
1678.06241455,0.05211742
1679.99122192,0.04985002
1681.92002930,0.04900049
1683.84883667,0.03821921
1685.77764404,0.03853200
1687.70645142,0.05521642
1689.63525879,0.04660500
1691.56406616,0.05254959
1693.49287354,0.05315524
1695.42168091,0.03701813
1697.35048828,0.04767273
1699.27929565,0.04029032
1701.20810303,0.03593538
1703.13691040,0.05178721
1705.06571777,0.04644270
1706.99452515,0.04721281
1708.92333252,0.05198991
1710.85213989,0.04967822
1712.78094727,0.05081221
1714.70975464,0.04634102
1716.63856201,0.04080615
1718.56736938,0.04017766
1720.49617676,0.04933384
1722.42498413,0.05148254
1724.35379150,0.04713707
1726.28259888,0.05227571
1728.21140625,0.04763142
1730.14021362,0.04798967
1732.06902100,0.04642658
1733.99782837,0.03369106
1735.92663574,0.04413615
1737.85544312,0.04916961
1739.78425049,0.04298050
1741.71305786,0.04746686
1743.64186523,0.04807965
1745.57067261,0.04836202
1747.49947998,0.04836181
1749.42828735,0.04567336
1751.35709473,0.04362150
1753.28590210,0.04948981
1755.21470947,0.05188721
1757.14351685,0.04653597
1759.07232422,0.05194477
1761.00113159,0.04805592
1762.92993896,0.04670570
1764.85874634,0.05436837
1766.78755371,0.04804411
1768.71636108,0.04876458
1770.64516846,0.04759605
1772.57397583,0.04226964
1774.50278320,0.04839835
1776.43159058,0.05133876
1778.36039795,0.05070017
1780.28920532,0.04983745
1782.21801270,0.05043826
1784.14682007,0.05041005
1786.07562744,0.04918513
1788.00443481,0.05223387
1789.93324219,0.05053387
1791.86204956,0.04471938
1793.79085693,0.04711885
1795.71966431,0.05130142
1797.64847168,0.05043556
1799.57727905,0.04956504
1801.50608643,0.04857401
1803.43489380,0.05049116
1805.36370117,0.05193679
1807.29250854,0.05118950
1809.22131592,0.05112167
1811.15012329,0.04946028
1813.07893066,0.05162581
1815.00773804,0.05177769
1816.93654541,0.05094583
1818.86535278,0.05149918
1820.79416016,0.05136288
1822.72296753,0.05219183
1824.65177490,0.04805992
1826.58058228,0.05019400
1828.50938965,0.05010504
1830.43819702,0.04664252
1832.36700439,0.05168562
1834.29581177,0.05104781
1836.22461914,0.05109816
1838.15342651,0.05092353
1840.08223389,0.05126992
1842.01104126,0.05119868
1843.93984863,0.04451426
1845.86865601,0.04826950
1847.79746338,0.05123348
1849.72627075,0.04988602
1851.65507812,0.05174410
1853.58388550,0.05068129
1855.51269287,0.05117347
1857.44150024,0.05066033
1859.37030762,0.05044259
1861.29911499,0.05084798
1863.22792236,0.05011804
1865.15672974,0.05079766
1867.08553711,0.04863418
1869.01434448,0.04628000
1870.94315186,0.04876962
1872.87195923,0.05076813
1874.80076660,0.04982236
1876.72957397,0.05047643
1878.65838135,0.05013996
1880.58718872,0.04968148
1882.51599609,0.05014745
1884.44480347,0.04926164
1886.37361084,0.05018304
1888.30241821,0.04871216
1890.23122559,0.04766676
1892.16003296,0.04973515
1894.08884033,0.04886726
1896.01764771,0.04877886
1897.94645508,0.04937036
1899.87526245,0.04923307
1901.80406982,0.04941643
1903.73287720,0.04889637
1905.66168457,0.04923052
1907.59049194,0.04866652
1909.51929932,0.04840131
1911.44810669,0.04859821
1913.37691406,0.04851628
1915.30572144,0.04918793
1917.23452881,0.04652470
1919.16333618,0.04680590
1921.09214355,0.04886647
1923.02095093,0.04676605
1924.94975830,0.04822524
1926.87856567,0.04876889
1928.80737305,0.04817814
1930.73618042,0.04891944
1932.66498779,0.04788813
1934.59379517,0.04870719
1936.52260254,0.04832092
1938.45140991,0.04835706
1940.38021729,0.04833109
1942.30902466,0.04649546
1944.23783203,0.04757866
1946.16663940,0.04818190
1948.09544678,0.04796397
1950.02425415,0.04811875
1951.95306152,0.04814118
1953.88186890,0.04809067
1955.81067627,0.04771587
1957.73948364,0.04799940
1959.66829102,0.04794832
1961.59709839,0.04771990
1963.52590576,0.04783494
1965.45471313,0.04775364
1967.38352051,0.04709043
1969.31232788,0.04750330
1971.24113525,0.04795185
1973.16994263,0.04750889
1975.09875000,0.04783831
1977.02755737,0.04751484
1978.95636475,0.04749306
1980.88517212,0.04734229
1982.81397949,0.04716191
1984.74278687,0.04744761
1986.67159424,0.04697422
1988.60040161,0.04715806
1990.52920898,0.04649263
1992.45801636,0.04609830
1994.38682373,0.04695761
1996.31563110,0.04698362
1998.24443848,0.04688730
2000.17324585,0.04667773
2002.10205322,0.04651015
2004.03086060,0.04669525
2005.95966797,0.04656394
2007.88847534,0.04635423
2009.81728271,0.04644634
2011.74609009,0.04613489
2013.67489746,0.04611471
2015.60370483,0.04593452
2017.53251221,0.04534454
2019.46131958,0.04580995
2021.39012695,0.04570162
2023.31893433,0.04538461
2025.24774170,0.04555292
2027.17654907,0.04548351
2029.10535645,0.04537430
2031.03416382,0.04519302
2032.96297119,0.04523785
2034.89177856,0.04507271
2036.82058594,0.04507346
2038.74939331,0.04494236
2040.67820068,0.04465425
2042.60700806,0.04463665
2044.53581543,0.04461882
2046.46462280,0.04453167
2048.39343018,0.04420574
2050.32223755,0.04445238
2052.25104492,0.04434295
2054.17985229,0.04408149
2056.10865967,0.04421195
2058.03746704,0.04387973
2059.96627441,0.04386333
2061.89508179,0.04384597
2063.82388916,0.04362377
2065.75269653,0.04354237
2067.68150391,0.04358705
2069.61031128,0.04352738
2071.53911865,0.04338420
2073.46792603,0.04331239
2075.39673340,0.04318610
2077.32554077,0.04315605
2079.25434814,0.04311032
2081.18315552,0.04314068
2083.11196289,0.04284467
2085.04077026,0.04278075
2086.96957764,0.04289194
2088.89838501,0.04266040
2090.82719238,0.04268959
2092.75599976,0.04255365
2094.68480713,0.04253489
2096.61361450,0.04251485
2098.54242187,0.04241275
2100.47122925,0.04230011
2102.40003662,0.04214129
2104.32884399,0.04223016
2106.25765137,0.04209450
2108.18645874,0.04194082
2110.11526611,0.04186105
2112.04407349,0.04197085
2113.97288086,0.04184792
2115.90168823,0.04171094
2117.83049561,0.04176340
2119.75930298,0.04153037
2121.68811035,0.04153484
2123.61691772,0.04142139
2125.54572510,0.04137360
2127.47453247,0.04119607
2129.40333984,0.04122060
2131.33214722,0.04142169
2133.26095459,0.04117113
2135.18976196,0.04128459
2137.11856934,0.04105709
2139.04737671,0.04101886
2140.97618408,0.04118583
2142.90499146,0.04097279
2144.83379883,0.04095999
2146.76260620,0.04087311
2148.69141357,0.04082830
2150.62022095,0.04073148
2152.54902832,0.04079165
2154.47783569,0.04061805
2156.40664307,0.04048350
2158.33545044,0.04057574
2160.26425781,0.04037922
2162.19306519,0.04050481
2164.12187256,0.04044594
2166.05067993,0.04027663
2167.97948730,0.04028637
2169.90829468,0.04036381
2171.83710205,0.04031137
2173.76590942,0.04008041
2175.69471680,0.04011633
2177.62352417,0.04004969
2179.55233154,0.04002360
2181.48113892,0.04003663
2183.40994629,0.03996767
2185.33875366,0.03992487
2187.26756104,0.03996266
2189.19636841,0.03987978
2191.12517578,0.03974506
2193.05398315,0.03983038
2194.98279053,0.03965326
2196.91159790,0.03952114
2198.84040527,0.03942877
2200.76921265,0.03951570
2202.69802002,0.03961799
2204.62682739,0.03947020
2206.55563477,0.03948445
2208.48444214,0.03928634
2210.41324951,0.03936678
2212.34205688,0.03936317
2214.27086426,0.03911535
2216.19967163,0.03913260
2218.12847900,0.03910085
2220.05728638,0.03911263
2221.98609375,0.03895590
2223.91490112,0.03892286
2225.84370850,0.03897973
2227.77251587,0.03884275
2229.70132324,0.03869262
2231.63013062,0.03866688
2233.55893799,0.03868653
2235.48774536,0.03863731
2237.41655273,0.03856038
2239.34536011,0.03835604
2241.27416748,0.03842618
2243.20297485,0.03841624
2245.13178223,0.03833371
2247.06058960,0.03831902
2248.98939697,0.03820821
2250.91820435,0.03829926
2252.84701172,0.03817213
2254.77581909,0.03811356
2256.70462646,0.03803936
2258.63343384,0.03796409
2260.56224121,0.03805140
2262.49104858,0.03788000
2264.41985596,0.03778578
2266.34866333,0.03780215
2268.27747070,0.03777437
2270.20627808,0.03760515
2272.13508545,0.03759920
2274.06389282,0.03759723
2275.99270020,0.03749078
2277.92150757,0.03752083
2279.85031494,0.03749898
2281.77912231,0.03747217
2283.70792969,0.03734712
2285.63673706,0.03731409
2287.56554443,0.03717960
2289.49435181,0.03719955
2291.42315918,0.03716762
2293.35196655,0.03687533
2295.28077393,0.03692491
2297.20958130,0.03678354
2299.13838867,0.03670766
2301.06719604,0.03650546
2302.99600342,0.03625374
2304.92481079,0.03620456
2306.85361816,0.03601089
2308.78242554,0.03587504
2310.71123291,0.03541356
2312.64004028,0.03515073
2314.56884766,0.03494029
2316.49765503,0.03449008
2318.42646240,0.03400662
2320.35526978,0.03358448
2322.28407715,0.03323745
2324.21288452,0.03268835
2326.14169189,0.03256687
2328.07049927,0.03215103
2329.99930664,0.03163309
2331.92811401,0.03153262
2333.85692139,0.03132727
2335.78572876,0.03125527
2337.71453613,0.03110401
2339.64334351,0.03111471
2341.57215088,0.03121513
2343.50095825,0.03158172
2345.42976562,0.03225781
2347.35857300,0.03351429
2349.28738037,0.03452904
2351.21618774,0.03344285
2353.14499512,0.03185551
2355.07380249,0.03068162
2357.00260986,0.02982489
2358.93141724,0.02930996
2360.86022461,0.02896758
2362.78903198,0.02906870
2364.71783936,0.02914261
2366.64664673,0.02949437
2368.57545410,0.02992436
2370.50426147,0.03064318
2372.43306885,0.03155747
2374.36187622,0.03220209
2376.29068359,0.03316403
2378.21949097,0.03379951
2380.14829834,0.03421006
2382.07710571,0.03465214
2384.00591309,0.03479647
2385.93472046,0.03488527
2387.86352783,0.03488947
2389.79233521,0.03475313
2391.72114258,0.03471330
2393.64994995,0.03475802
2395.57875732,0.03468929
2397.50756470,0.03481880
2399.43637207,0.03476940
2401.36517944,0.03455943
2403.29398682,0.03459665
2405.22279419,0.03451516
2407.15160156,0.03444686
2409.08040894,0.03436888
2411.00921631,0.03428346
2412.93802368,0.03431090
2414.86683105,0.03428367
2416.79563843,0.03421029
2418.72444580,0.03417625
2420.65325317,0.03412891
2422.58206055,0.03404644
2424.51086792,0.03397734
2426.43967529,0.03391840
2428.36848267,0.03394532
2430.29729004,0.03392917
2432.22609741,0.03387360
2434.15490479,0.03383941
2436.08371216,0.03380214
2438.01251953,0.03365629
2439.94132690,0.03358382
2441.87013428,0.03363679
2443.79894165,0.03352199
2445.72774902,0.03366237
2447.65655640,0.03360405
2449.58536377,0.03336573
2451.51417114,0.03348601
2453.44297852,0.03333644
2455.37178589,0.03322162
2457.30059326,0.03331454
2459.22940063,0.03328512
2461.15820801,0.03320168
2463.08701538,0.03316217
2465.01582275,0.03312079
2466.94463013,0.03308965
2468.87343750,0.03312952
2470.80224487,0.03305643
2472.73105225,0.03291594
2474.65985962,0.03279360
2476.58866699,0.03286204
2478.51747437,0.03280732
2480.44628174,0.03267286
2482.37508911,0.03277669
2484.30389648,0.03284125
2486.23270386,0.03277083
2488.16151123,0.03254339
2490.09031860,0.03258416
2492.01912598,0.03260705
2493.94793335,0.03254988
2495.87674072,0.03246392
2497.80554810,0.03226889
2499.73435547,0.03237506
2501.66316284,0.03227367
2503.59197021,0.03238726
2505.52077759,0.03232861
2507.44958496,0.03203641
2509.37839233,0.03220540
2511.30719971,0.03208373
2513.23600708,0.03208583
2515.16481445,0.03197831
2517.09362183,0.03190304
2519.02242920,0.03207194
2520.95123657,0.03188926
2522.88004395,0.03186984
2524.80885132,0.03175964
2526.73765869,0.03170937
2528.66646606,0.03184817
2530.59527344,0.03175892
2532.52408081,0.03161735
2534.45288818,0.03161675
2536.38169556,0.03165450
2538.31050293,0.03147937
2540.23931030,0.03137639
2542.16811768,0.03140977
2544.09692505,0.03137103
2546.02573242,0.03132880
2547.95453979,0.03136637
2549.88334717,0.03125528
2551.81215454,0.03119144
2553.74096191,0.03117926
2555.66976929,0.03103318
2557.59857666,0.03121648
2559.52738403,0.03110167
2561.45619141,0.03081238
2563.38499878,0.03093353
2565.31380615,0.03094868
2567.24261353,0.03085800
2569.17142090,0.03083537
2571.10022827,0.03096561
2573.02903564,0.03089256
2574.95784302,0.03075239
2576.88665039,0.03077981
2578.81545776,0.03068761
2580.74426514,0.03062798
2582.67307251,0.03054116
2584.60187988,0.03046250
2586.53068726,0.03044172
2588.45949463,0.03042024
2590.38830200,0.03040258
2592.31710937,0.03037664
2594.24591675,0.03032808
2596.17472412,0.03017714
2598.10353149,0.03010896
2600.03233887,0.03021926
2601.96114624,0.03019254
2603.88995361,0.03008736
2605.81876099,0.03016932
2607.74756836,0.03005888
2609.67637573,0.03001733
2611.60518311,0.03003073
2613.53399048,0.02986864
2615.46279785,0.02996740
2617.39160522,0.02983712
2619.32041260,0.02972384
2621.24921997,0.02974679
2623.17802734,0.02955587
2625.10683472,0.02960685
2627.03564209,0.02964609
2628.96444946,0.02952461
2630.89325684,0.02951215
2632.82206421,0.02956348
2634.75087158,0.02950564
2636.67967895,0.02950485
2638.60848633,0.02935853
2640.53729370,0.02919683
2642.46610107,0.02933555
2644.39490845,0.02917137
2646.32371582,0.02911667
2648.25252319,0.02918168
2650.18133057,0.02910712
2652.11013794,0.02910542
2654.03894531,0.02891109
2655.96775269,0.02892980
2657.89656006,0.02907891
2659.82536743,0.02898408
2661.75417480,0.02880357
2663.68298218,0.02877172
2665.61178955,0.02878946
2667.54059692,0.02864129
2669.46940430,0.02853924
2671.39821167,0.02859088
2673.32701904,0.02870066
2675.25582642,0.02858424
2677.18463379,0.02850169
2679.11344116,0.02851220
2681.04224854,0.02841587
2682.97105591,0.02843215
2684.89986328,0.02842532
2686.82867065,0.02837406
2688.75747803,0.02822850
2690.68628540,0.02817883
2692.61509277,0.02824342
2694.54390015,0.02813718
2696.47270752,0.02810040
2698.40151489,0.02807362
2700.33032227,0.02795054
2702.25912964,0.02793475
2704.18793701,0.02798348
2706.11674438,0.02791184
2708.04555176,0.02783582
2709.97435913,0.02778108
2711.90316650,0.02776304
2713.83197388,0.02775764
2715.76078125,0.02764677
2717.68958862,0.02765115
2719.61839600,0.02766708
2721.54720337,0.02762625
2723.47601074,0.02752585
2725.40481812,0.02736882
2727.33362549,0.02734052
2729.26243286,0.02739913
2731.19124023,0.02737839
2733.12004761,0.02725643
2735.04885498,0.02722829
2736.97766235,0.02712606
2738.90646973,0.02714721
2740.83527710,0.02727834
2742.76408447,0.02715926
2744.69289185,0.02703933
2746.62169922,0.02699028
2748.55050659,0.02700900
2750.47931396,0.02688473
2752.40812134,0.02683460
2754.33692871,0.02684741
2756.26573608,0.02672432
2758.19454346,0.02671626
2760.12335083,0.02662643
2762.05215820,0.02663730
2763.98096558,0.02652911
2765.90977295,0.02646596
2767.83858032,0.02655685
2769.76738770,0.02638953
2771.69619507,0.02645672
2773.62500244,0.02637844
2775.55380981,0.02620467
2777.48261719,0.02625966
2779.41142456,0.02613234
2781.34023193,0.02612067
2783.26903931,0.02624244
2785.19784668,0.02613113
2787.12665405,0.02593676
2789.05546143,0.02590905
2790.98426880,0.02588212
2792.91307617,0.02595013
2794.84188354,0.02594061
2796.77069092,0.02574513
2798.69949829,0.02575126
2800.62830566,0.02572793
2802.55711304,0.02561653
2804.48592041,0.02555102
2806.41472778,0.02553016
2808.34353516,0.02545651
2810.27234253,0.02548000
2812.20114990,0.02551969
2814.12995728,0.02532385
2816.05876465,0.02535203
2817.98757202,0.02526470
2819.91637939,0.02510959
2821.84518677,0.02515429
2823.77399414,0.02503138
2825.70280151,0.02511832
2827.63160889,0.02510489
2829.56041626,0.02490419
2831.48922363,0.02493173
2833.41803101,0.02482441
2835.34683838,0.02468228
2837.27564575,0.02466922
2839.20445312,0.02460809
2841.13326050,0.02455413
2843.06206787,0.02452074
2844.99087524,0.02436457
2846.91968262,0.02418224
2848.84848999,0.02420700
2850.77729736,0.02421083
2852.70610474,0.02406189
2854.63491211,0.02397932
2856.56371948,0.02397827
2858.49252686,0.02398874
2860.42133423,0.02394052
2862.35014160,0.02401321
2864.27894897,0.02405470
2866.20775635,0.02387934
2868.13656372,0.02389149
2870.06537109,0.02384073
2871.99417847,0.02368533
2873.92298584,0.02365002
2875.85179321,0.02364591
2877.78060059,0.02366230
2879.70940796,0.02349904
2881.63821533,0.02347674
2883.56702270,0.02354262
2885.49583008,0.02344496
2887.42463745,0.02335886
2889.35344482,0.02330983
2891.28225220,0.02336929
2893.21105957,0.02330424
2895.13986694,0.02318181
2897.06867432,0.02311816
2898.99748169,0.02306657
2900.92628906,0.02302982
2902.85509644,0.02292477
2904.78390381,0.02289211
2906.71271118,0.02287637
2908.64151855,0.02281566
2910.57032593,0.02274613
2912.49913330,0.02275513
2914.42794067,0.02271597
2916.35674805,0.02260501
2918.28555542,0.02257280
2920.21436279,0.02253304
2922.14317017,0.02250379
2924.07197754,0.02240553
2926.00078491,0.02240784
2927.92959229,0.02244184
2929.85839966,0.02246243
2931.78720703,0.02244635
2933.71601440,0.02230824
2935.64482178,0.02242470
2937.57362915,0.02244667
2939.50243652,0.02236746
2941.43124390,0.02229565
2943.36005127,0.02228985
2945.28885864,0.02240612
2947.21766602,0.02221571
2949.14647339,0.02220641
2951.07528076,0.02223580
2953.00408813,0.02214011
2954.93289551,0.02213063
2956.86170288,0.02196951
2958.79051025,0.02192641
2960.71931763,0.02190146
2962.64812500,0.02181682
2964.57693237,0.02177484
2966.50573975,0.02175830
2968.43454712,0.02172360
2970.36335449,0.02177694
2972.29216187,0.02189679
2974.22096924,0.02180453
2976.14977661,0.02177757
2978.07858398,0.02183414
2980.00739136,0.02187861
2981.93619873,0.02179838
2983.86500610,0.02166791
2985.79381348,0.02172007
2987.72262085,0.02161765
2989.65142822,0.02156821
2991.58023560,0.02167129
2993.50904297,0.02152529
2995.43785034,0.02141197
2997.36665771,0.02154634
2999.29546509,0.02150249
3001.22427246,0.02144366
3003.15307983,0.02148001
3005.08188721,0.02133637
3007.01069458,0.02127605
3008.93950195,0.02122951
3010.86830933,0.02117511
3012.79711670,0.02110975
3014.72592407,0.02109551
3016.65473145,0.02112146
3018.58353882,0.02102214
3020.51234619,0.02107814
3022.44115356,0.02091270
3024.36996094,0.02076767
3026.29876831,0.02087592
3028.22757568,0.02081247
3030.15638306,0.02076535
3032.08519043,0.02063287
3034.01399780,0.02052918
3035.94280518,0.02055776
3037.87161255,0.02057510
3039.80041992,0.02054772
3041.72922729,0.02058182
3043.65803467,0.02054885
3045.58684204,0.02039110
3047.51564941,0.02041807
3049.44445679,0.02027006
3051.37326416,0.02029172
3053.30207153,0.02040540
3055.23087891,0.02011357
3057.15968628,0.02006744
3059.08849365,0.02007413
3061.01730103,0.01999187
3062.94610840,0.02002518
3064.87491577,0.01997200
3066.80372314,0.01995357
3068.73253052,0.02001070
3070.66133789,0.01991880
3072.59014526,0.01984707
3074.51895264,0.01986358
3076.44776001,0.01970907
3078.37656738,0.01967934
3080.30537476,0.01964329
3082.23418213,0.01953264
3084.16298950,0.01959788
3086.09179687,0.01956909
3088.02060425,0.01943102
3089.94941162,0.01937031
3091.87821899,0.01945181
3093.80702637,0.01937248
3095.73583374,0.01927896
3097.66464111,0.01929513
3099.59344849,0.01921246
3101.52225586,0.01919800
3103.45106323,0.01907664
3105.37987061,0.01903556
3107.30867798,0.01906934
3109.23748535,0.01896983
3111.16629272,0.01894133
3113.09510010,0.01887937
3115.02390747,0.01886818
3116.95271484,0.01880647
3118.88152222,0.01865410
3120.81032959,0.01867754
3122.73913696,0.01863354
3124.66794434,0.01852755
3126.59675171,0.01857072
3128.52555908,0.01851350
3130.45436645,0.01848255
3132.38317383,0.01842725
3134.31198120,0.01833845
3136.24078857,0.01853059
3138.16959595,0.01843005
3140.09840332,0.01825553
3142.02721069,0.01823100
3143.95601807,0.01809314
3145.88482544,0.01814106
3147.81363281,0.01806757
3149.74244019,0.01810619
3151.67124756,0.01812330
3153.60005493,0.01788315
3155.52886230,0.01792498
3157.45766968,0.01785345
3159.38647705,0.01768300
3161.31528442,0.01768463
3163.24409180,0.01765823
3165.17289917,0.01761714
3167.10170654,0.01757064
3169.03051392,0.01754523
3170.95932129,0.01758990
3172.88812866,0.01749528
3174.81693604,0.01734688
3176.74574341,0.01742407
3178.67455078,0.01732748
3180.60335815,0.01725052
3182.53216553,0.01724507
3184.46097290,0.01709773
3186.38978027,0.01720720
3188.31858765,0.01719418
3190.24739502,0.01709705
3192.17620239,0.01699912
3194.10500977,0.01680156
3196.03381714,0.01685774
3197.96262451,0.01685243
3199.89143188,0.01683120
3201.82023926,0.01685524
3203.74904663,0.01677259
3205.67785400,0.01666379
3207.60666138,0.01657464
3209.53546875,0.01664963
3211.46427612,0.01660883
3213.39308350,0.01652435
3215.32189087,0.01647904
3217.25069824,0.01637222
3219.17950562,0.01644473
3221.10831299,0.01642201
3223.03712036,0.01635166
3224.96592773,0.01643125
3226.89473511,0.01642358
3228.82354248,0.01630562
3230.75234985,0.01624269
3232.68115723,0.01623670
3234.60996460,0.01613768
3236.53877197,0.01622559
3238.46757935,0.01621787
3240.39638672,0.01607009
3242.32519409,0.01616437
3244.25400146,0.01605571
3246.18280884,0.01603654
3248.11161621,0.01605361
3250.04042358,0.01595436
3251.96923096,0.01602258
3253.89803833,0.01594165
3255.82684570,0.01589366
3257.75565308,0.01586521
3259.68446045,0.01586592
3261.61326782,0.01584767
3263.54207520,0.01581984
3265.47088257,0.01589100
3267.39968994,0.01576703
3269.32849731,0.01574662
3271.25730469,0.01574804
3273.18611206,0.01571964
3275.11491943,0.01565929
3277.04372681,0.01565712
3278.97253418,0.01573601
3280.90134155,0.01555089
3282.83014893,0.01556774
3284.75895630,0.01560254
3286.68776367,0.01557249
3288.61657104,0.01553335
3290.54537842,0.01549146
3292.47418579,0.01553130
3294.40299316,0.01543458
3296.33180054,0.01554018
3298.26060791,0.01538969
3300.18941528,0.01536873
3302.11822266,0.01552001
3304.04703003,0.01540462
3305.97583740,0.01550617
3307.90464478,0.01530044
3309.83345215,0.01528105
3311.76225952,0.01534261
3313.69106689,0.01523315
3315.61987427,0.01534291
3317.54868164,0.01520116
3319.47748901,0.01522350
3321.40629639,0.01525052
3323.33510376,0.01521276
3325.26391113,0.01522029
3327.19271851,0.01514502
3329.12152588,0.01522116
3331.05033325,0.01512324
3332.97914062,0.01502248
3334.90794800,0.01503492
3336.83675537,0.01501106
3338.76556274,0.01496927
3340.69437012,0.01492446
3342.62317749,0.01494206
3344.55198486,0.01486537
3346.48079224,0.01484878
3348.40959961,0.01496421
3350.33840698,0.01484038
3352.26721436,0.01471166
3354.19602173,0.01474737
3356.12482910,0.01465369
3358.05363647,0.01471708
3359.98244385,0.01472708
3361.91125122,0.01469114
3363.84005859,0.01470632
3365.76886597,0.01452391
3367.69767334,0.01461681
3369.62648071,0.01459526
3371.55528809,0.01445945
3373.48409546,0.01451245
3375.41290283,0.01454530
3377.34171020,0.01451366
3379.27051758,0.01437060
3381.19932495,0.01444844
3383.12813232,0.01438750
3385.05693970,0.01429990
3386.98574707,0.01434535
3388.91455444,0.01430378
3390.84336182,0.01423252
3392.77216919,0.01408745
3394.70097656,0.01421691
3396.62978394,0.01414650
3398.55859131,0.01401770
3400.48739868,0.01412276
3402.41620605,0.01405870
3404.34501343,0.01401267
3406.27382080,0.01401650
3408.20262817,0.01406922
3410.13143555,0.01394970
3412.06024292,0.01385737
3413.98905029,0.01393557
3415.91785767,0.01393447
3417.84666504,0.01384026
3419.77547241,0.01380298
3421.70427979,0.01383509
3423.63308716,0.01373450
3425.56189453,0.01372812
3427.49070190,0.01364913
3429.41950928,0.01368374
3431.34831665,0.01370039
3433.27712402,0.01357482
3435.20593140,0.01366193
3437.13473877,0.01352856
3439.06354614,0.01352132
3440.99235352,0.01352795
3442.92116089,0.01349583
3444.84996826,0.01347387
3446.77877563,0.01320351
3448.70758301,0.01329738
3450.63639038,0.01346905
3452.56519775,0.01346804
3454.49400513,0.01343654
3456.42281250,0.01334225
3458.35161987,0.01326620
3460.28042725,0.01333075
3462.20923462,0.01327430
3464.13804199,0.01315117
3466.06684937,0.01327681
3467.99565674,0.01315215
3469.92446411,0.01312515
3471.85327148,0.01317322
3473.78207886,0.01314741
3475.71088623,0.01318621
3477.63969360,0.01318027
3479.56850098,0.01323125
3481.49730835,0.01298913
3483.42611572,0.01303604
3485.35492310,0.01312305
3487.28373047,0.01302183
3489.21253784,0.01309542
3491.14134521,0.01303964
3493.07015259,0.01309062
3494.99895996,0.01299088
3496.92776733,0.01296264
3498.85657471,0.01302724
3500.78538208,0.01292607
3502.71418945,0.01269399
3504.64299683,0.01268818
3506.57180420,0.01301525
3508.50061157,0.01279449
3510.42941895,0.01276136
3512.35822632,0.01294899
3514.28703369,0.01290519
3516.21584106,0.01299880
3518.14464844,0.01294020
3520.07345581,0.01289286
3522.00226318,0.01278894
3523.93107056,0.01264425
3525.85987793,0.01260488
3527.78868530,0.01263242
3529.71749268,0.01268818
3531.64630005,0.01281170
3533.57510742,0.01289121
3535.50391479,0.01266746
3537.43272217,0.01259928
3539.36152954,0.01286011
3541.29033691,0.01290837
3543.21914429,0.01257676
3545.14795166,0.01227740
3547.07675903,0.01217071
3549.00556641,0.01268748
3550.93437378,0.01283697
3552.86318115,0.01230200
3554.79198853,0.01260589
3556.72079590,0.01273278
3558.64960327,0.01264207
3560.57841064,0.01255983
3562.50721802,0.01245744
3564.43602539,0.01254921
3566.36483276,0.01149755
3568.29364014,0.01113744
3570.22244751,0.01231573
3572.15125488,0.01274802
3574.08006226,0.01244700
3576.00886963,0.01254301
3577.93767700,0.01259394
3579.86648437,0.01244367
3581.79529175,0.01249583
3583.72409912,0.01252598
3585.65290649,0.01214454
3587.58171387,0.01102813
3589.51052124,0.01138419
3591.43932861,0.01255274
3593.36813599,0.01214526
3595.29694336,0.01185922
3597.22575073,0.01220555
3599.15455811,0.01237610
3601.08336548,0.01215226
3603.01217285,0.01236817
3604.94098022,0.01263472
3606.86978760,0.01201515
3608.79859497,0.01123235
3610.72740234,0.01155370
3612.65620972,0.01175342
3614.58501709,0.01131246
3616.51382446,0.01239215
3618.44263184,0.01119881
3620.37143921,0.01077253
3622.30024658,0.01256773
3624.22905395,0.01205891
3626.15786133,0.01271760
3628.08666870,0.01040215
3630.01547607,0.00928769
3631.94428345,0.01231187
3633.87309082,0.01188434
3635.80189819,0.01207595
3637.73070557,0.01236458
3639.65951294,0.01224889
3641.58832031,0.01226135
3643.51712769,0.01209172
3645.44593506,0.01229953
3647.37474243,0.01069571
3649.30354980,0.00975012
3651.23235718,0.00983950
3653.16116455,0.01208540
3655.08997192,0.01197591
3657.01877930,0.01040523
3658.94758667,0.01236527
3660.87639404,0.01205941
3662.80520142,0.01223719
3664.73400879,0.01222559
3666.66281616,0.01210326
3668.59162354,0.01163165
3670.52043091,0.00912861
3672.44923828,0.01149194
3674.37804565,0.01075896
3676.30685303,0.00865390
3678.23566040,0.01136248
3680.16446777,0.01165034
3682.09327515,0.01172046
3684.02208252,0.01209850
3685.95088989,0.01188994
3687.87969727,0.01043066
3689.80850464,0.00938570
3691.73731201,0.01099919
3693.66611938,0.01145049
3695.59492676,0.01178795
3697.52373413,0.01176931
3699.45254150,0.01171036
3701.38134888,0.01125300
3703.31015625,0.01078379
3705.23896362,0.01212818
3707.16777100,0.01141693
3709.09657837,0.01111072
3711.02538574,0.01027511
3712.95419312,0.00948442
3714.88300049,0.01153447
3716.81180786,0.01133020
3718.74061523,0.01136223
3720.66942261,0.01113830
3722.59822998,0.01064174
3724.52703735,0.01108935
3726.45584473,0.01021366
3728.38465210,0.01111261
3730.31345947,0.01102496
3732.24226685,0.01007399
3734.17107422,0.00970831
3736.09988159,0.00908056
3738.02868896,0.00985781
3739.95749634,0.01086822
3741.88630371,0.01139580
3743.81511108,0.00858508
3745.74391846,0.00793938
3747.67272583,0.01072384
3749.60153320,0.00897221
3751.53034058,0.00809840
3753.45914795,0.00965953
3755.38795532,0.01046832
3757.31676270,0.01094805
3759.24557007,0.00998403
3761.17437744,0.01041626
3763.10318481,0.01126937
3765.03199219,0.01037439
3766.96079956,0.01060143
3768.88960693,0.01038543
3770.81841431,0.00987229
3772.74722168,0.01086623
3774.67602905,0.01085819
3776.60483643,0.01091651
3778.53364380,0.01052955
3780.46245117,0.01006470
3782.39125854,0.01084481
3784.32006592,0.01054279
3786.24887329,0.01049299
3788.17768066,0.01069930
3790.10648804,0.01065843
3792.03529541,0.01056039
3793.96410278,0.01077222
3795.89291016,0.01010478
3797.82171753,0.00987943
3799.75052490,0.01047962
3801.67933228,0.00794840
3803.60813965,0.00962327
3805.53694702,0.01070528
3807.46575439,0.00842488
3809.39456177,0.01047623
3811.32336914,0.01022521
3813.25217651,0.01066601
3815.18098389,0.00946824
3817.10979126,0.00819210
3819.03859863,0.01077499
3820.96740601,0.00821696
3822.89621338,0.00882418
3824.82502075,0.01061223
3826.75382812,0.00931891
3828.68263550,0.01023139
3830.61144287,0.00978214
3832.54025024,0.00946947
3834.46905762,0.00963827
3836.39786499,0.00903951
3838.32667236,0.00810868
3840.25547974,0.00883598
3842.18428711,0.00971276
3844.11309448,0.00925490
3846.04190186,0.01005814
3847.97070923,0.00983264
3849.89951660,0.00988531
3851.82832397,0.00871969
3853.75713135,0.00613128
3855.68593872,0.00769627
3857.61474609,0.00984898
3859.54355347,0.00948791
3861.47236084,0.00952540
3863.40116821,0.00916011
3865.32997559,0.00843320
3867.25878296,0.00968532
3869.18759033,0.00862889
3871.11639770,0.00791296
3873.04520508,0.00966204
3874.97401245,0.00875211
3876.90281982,0.00965481
3878.83162720,0.00982563
3880.76043457,0.00815598
3882.68924194,0.00960264
3884.61804932,0.00890214
3886.54685669,0.00799708
3888.47566406,0.00953760
3890.40447144,0.00900047
3892.33327881,0.00842779
3894.26208618,0.00938605
3896.19089355,0.00950047
3898.11970093,0.00894551
3900.04850830,0.00837188
3901.97731567,0.00827473
3903.90612305,0.00827205
3905.83493042,0.00838839
3907.76373779,0.00932537
3909.69254517,0.00932792
3911.62135254,0.00916215
3913.55015991,0.00945453
3915.47896728,0.00913504
3917.40777466,0.00875018
3919.33658203,0.00866024
3921.26538940,0.00907576
3923.19419678,0.00892223
3925.12300415,0.00873631
3927.05181152,0.00902894
3928.98061890,0.00906848
3930.90942627,0.00887787
3932.83823364,0.00853962
3934.76704102,0.00895444
3936.69584839,0.00908217
3938.62465576,0.00891441
3940.55346313,0.00895688
3942.48227051,0.00854914
3944.41107788,0.00871235
3946.33988525,0.00893101
3948.26869263,0.00868465
3950.19750000,0.00868281
3952.12630737,0.00878531
3954.05511475,0.00877158
3955.98392212,0.00871121
3957.91272949,0.00872193
3959.84153687,0.00878531
3961.77034424,0.00867989
3963.69915161,0.00865339
3965.62795898,0.00880501
3967.55676636,0.00869403
3969.48557373,0.00868418
3971.41438110,0.00868892
3973.34318848,0.00862310
3975.27199585,0.00858299
3977.20080322,0.00853671
3979.12961060,0.00861830
3981.05841797,0.00850155
3982.98722534,0.00852556
3984.91603271,0.00855103
3986.84484009,0.00852800
3988.77364746,0.00845872
3990.70245483,0.00835606
3992.63126221,0.00851113
3994.56006958,0.00839080
3996.48887695,0.00838256
3998.41768433,0.00840659
4000.34649170,0.00839391
4002.27529907,0.00842344
4004.20410645,0.00824551
4006.13291382,0.00826936
4008.06172119,0.00823874
4009.99052856,0.00820944
4011.91933594,0.00824647
4013.84814331,0.00833069
4015.77695068,0.00829697
4017.70575806,0.00818162
4019.63456543,0.00820293
4021.56337280,0.00810563
4023.49218018,0.00810488
4025.42098755,0.00803363
4027.34979492,0.00806827
4029.27860229,0.00814716
4031.20740967,0.00809694
4033.13621704,0.00801056
4035.06502441,0.00793962
4036.99383179,0.00808811
4038.92263916,0.00795678
4040.85144653,0.00798786
4042.78025391,0.00800139
4044.70906128,0.00787631
4046.63786865,0.00801783
4048.56667603,0.00789572
4050.49548340,0.00791777
4052.42429077,0.00791567
4054.35309814,0.00783939
4056.28190552,0.00787039
4058.21071289,0.00774697
4060.13952026,0.00775493
4062.06832764,0.00777051
4063.99713501,0.00772377
4065.92594238,0.00772668
4067.85474976,0.00773308
4069.78355713,0.00769165
4071.71236450,0.00768118
4073.64117187,0.00763824
4075.56997925,0.00768269
4077.49878662,0.00773979
4079.42759399,0.00759595
4081.35640137,0.00758923
4083.28520874,0.00760823
4085.21401611,0.00756075
4087.14282349,0.00747871
4089.07163086,0.00750652
4091.00043823,0.00756088
4092.92924561,0.00754327
4094.85805298,0.00754659
4096.78686035,0.00745631
4098.71566772,0.00754454
4100.64447510,0.00741978
4102.57328247,0.00733514
4104.50208984,0.00748480
4106.43089722,0.00738844
4108.35970459,0.00739996
4110.28851196,0.00734545
4112.21731934,0.00732127
4114.14612671,0.00732842
4116.07493408,0.00725006
4118.00374145,0.00724132
4119.93254883,0.00721667
4121.86135620,0.00727177
4123.79016357,0.00720475
4125.71897095,0.00712123
4127.64777832,0.00716550
4129.57658569,0.00723735
4131.50539307,0.00711613
4133.43420044,0.00695985
4135.36300781,0.00712071
4137.29181519,0.00714888
4139.22062256,0.00701946
4141.14942993,0.00707040
4143.07823730,0.00707854
4145.00704468,0.00695423
4146.93585205,0.00698020
4148.86465942,0.00697223
4150.79346680,0.00696078
4152.72227417,0.00699424
4154.65108154,0.00692894
4156.57988892,0.00699646
4158.50869629,0.00691723
4160.43750366,0.00685476
4162.36631103,0.00685528
4164.29511841,0.00680429
4166.22392578,0.00684808
4168.15273315,0.00679715
4170.08154053,0.00684881
4172.01034790,0.00682071
4173.93915527,0.00679033
4175.86796265,0.00681213
4177.79677002,0.00667473
4179.72557739,0.00662934
4181.65438477,0.00664968
4183.58319214,0.00668067
4185.51199951,0.00668866
4187.44080688,0.00666765
4189.36961426,0.00662916
4191.29842163,0.00665015
4193.22722900,0.00656294
4195.15603638,0.00656311
4197.08484375,0.00663286
4199.01365112,0.00644779
4200.94245850,0.00648799
4202.87126587,0.00643894
4204.80007324,0.00642806
4206.72888062,0.00651972
4208.65768799,0.00638675
4210.58649536,0.00644975
4212.51530273,0.00643113
4214.44411011,0.00643636
4216.37291748,0.00646252
4218.30172485,0.00641621
4220.23053223,0.00642556
4222.15933960,0.00637939
4224.08814697,0.00638108
4226.01695435,0.00631310
4227.94576172,0.00629430
4229.87456909,0.00625136
4231.80337646,0.00624678
4233.73218384,0.00630538
4235.66099121,0.00626565
4237.58979858,0.00630874
4239.51860596,0.00625423
4241.44741333,0.00619192
4243.37622070,0.00626759
4245.30502808,0.00619943
4247.23383545,0.00609072
4249.16264282,0.00617722
4251.09145020,0.00617059
4253.02025757,0.00614084
4254.94906494,0.00610453
4256.87787231,0.00601577
4258.80667969,0.00609851
4260.73548706,0.00602295
4262.66429443,0.00599092
4264.59310181,0.00599525
4266.52190918,0.00598878
4268.45071655,0.00604228
4270.37952393,0.00593810
4272.30833130,0.00596937
4274.23713867,0.00594118
4276.16594604,0.00590996
4278.09475342,0.00590701
4280.02356079,0.00590075
4281.95236816,0.00592255
4283.88117554,0.00585377
4285.80998291,0.00586282
4287.73879028,0.00579896
4289.66759766,0.00580767
4291.59640503,0.00572427
4293.52521240,0.00575972
4295.45401978,0.00582640
4297.38282715,0.00567826
4299.31163452,0.00582318
4301.24044189,0.00576104
4303.16924927,0.00571151
4305.09805664,0.00572605
4307.02686401,0.00569421
4308.95567139,0.00576967
4310.88447876,0.00557691
4312.81328613,0.00559572
4314.74209351,0.00565802
4316.67090088,0.00559308
4318.59970825,0.00559544
4320.52851562,0.00554203
4322.45732300,0.00554670
4324.38613037,0.00559369
4326.31493774,0.00553178
4328.24374512,0.00549871
4330.17255249,0.00557853
4332.10135986,0.00547681
4334.03016724,0.00554341
4335.95897461,0.00553046
4337.88778198,0.00543152
4339.81658936,0.00553159
4341.74539673,0.00544264
4343.67420410,0.00549162
4345.60301147,0.00546707
4347.53181885,0.00550630
4349.46062622,0.00550098
4351.38943359,0.00534546
4353.31824097,0.00543498
4355.24704834,0.00530655
4357.17585571,0.00533891
4359.10466309,0.00536153
4361.03347046,0.00526473
4362.96227783,0.00532034
4364.89108520,0.00527845
4366.81989258,0.00531997
4368.74869995,0.00529180
4370.67750732,0.00527201
4372.60631470,0.00527366
4374.53512207,0.00527496
4376.46392944,0.00522394
4378.39273682,0.00521097
4380.32154419,0.00526291
4382.25035156,0.00510209
4384.17915894,0.00514528
4386.10796631,0.00512396
4388.03677368,0.00506889
4389.96558105,0.00513484
4391.89438843,0.00505393
4393.82319580,0.00513023
4395.75200317,0.00509637
4397.68081055,0.00505458
4399.60961792,0.00506607
4401.53842529,0.00502153
4403.46723267,0.00509380
4405.39604004,0.00495802
4407.32484741,0.00489235
4409.25365478,0.00503401
4411.18246216,0.00504646
4413.11126953,0.00497272
4415.04007690,0.00484643
4416.96888428,0.00494000
4418.89769165,0.00502944
4420.82649902,0.00486847
4422.75530640,0.00495220
4424.68411377,0.00491862
4426.61292114,0.00477576
4428.54172852,0.00489445
4430.47053589,0.00488580
4432.39934326,0.00485042
4434.32815063,0.00476201
4436.25695801,0.00474961
4438.18576538,0.00478833
4440.11457275,0.00472668
4442.04338013,0.00482145
4443.97218750,0.00474579
4445.90099487,0.00471350
4447.82980225,0.00475985
4449.75860962,0.00470574
4451.68741699,0.00475289
4453.61622437,0.00466809
4455.54503174,0.00466820
4457.47383911,0.00469539
4459.40264648,0.00462917
4461.33145386,0.00469658
4463.26026123,0.00466465
4465.18906860,0.00459202
4467.11787598,0.00462192
4469.04668335,0.00461070
4470.97549072,0.00457494
4472.90429810,0.00457541
4474.83310547,0.00452023
4476.76191284,0.00446296
4478.69072021,0.00449615
4480.61952759,0.00452122
4482.54833496,0.00454513
4484.47714233,0.00452548
4486.40594971,0.00443059
4488.33475708,0.00439634
4490.26356445,0.00441571
4492.19237183,0.00445445
4494.12117920,0.00445086
4496.04998657,0.00439531
4497.97879395,0.00445555
4499.90760132,0.00447459
4501.83640869,0.00436578
4503.76521606,0.00438679
4505.69402344,0.00443600
4507.62283081,0.00433951
4509.55163818,0.00429224
4511.48044556,0.00430141
4513.40925293,0.00427459
4515.33806030,0.00432150
4517.26686768,0.00429597
4519.19567505,0.00428073
4521.12448242,0.00428705
4523.05328979,0.00416683
4524.98209717,0.00421065
4526.91090454,0.00424777
4528.83971191,0.00425292
4530.76851929,0.00428000
4532.69732666,0.00419279
4534.62613403,0.00419199
4536.55494141,0.00417201
4538.48374878,0.00418305
4540.41255615,0.00414682
4542.34136353,0.00405508
4544.27017090,0.00417159
4546.19897827,0.00421055
4548.12778564,0.00413516
4550.05659302,0.00410218
4551.98540039,0.00409200
4553.91420776,0.00411439
4555.84301514,0.00410048
4557.77182251,0.00405978
4559.70062988,0.00404919
4561.62943726,0.00399546
4563.55824463,0.00398263
4565.48705200,0.00406346
4567.41585937,0.00407568
4569.34466675,0.00405385
4571.27347412,0.00397236
4573.20228149,0.00396402
4575.13108887,0.00404203
4577.05989624,0.00400893
4578.98870361,0.00399234
4580.91751099,0.00396825
4582.84631836,0.00392483
4584.77512573,0.00386996
4586.70393311,0.00385198
4588.63274048,0.00386856
4590.56154785,0.00383844
4592.49035522,0.00386408
4594.41916260,0.00389205
4596.34796997,0.00386550
4598.27677734,0.00378850
4600.20558472,0.00382210
4602.13439209,0.00386846
4604.06319946,0.00378695
4605.99200684,0.00375986
4607.92081421,0.00376467
4609.84962158,0.00381247
4611.77842895,0.00378187
4613.70723633,0.00378389
4615.63604370,0.00383124
4617.56485107,0.00371716
4619.49365845,0.00371453
4621.42246582,0.00369939
4623.35127319,0.00364430
4625.28008057,0.00372456
4627.20888794,0.00372717
4629.13769531,0.00370872
4631.06650269,0.00372387
4632.99531006,0.00366772
4634.92411743,0.00361197
4636.85292480,0.00362149
4638.78173218,0.00364547
4640.71053955,0.00362783
4642.63934692,0.00358463
4644.56815430,0.00355863
4646.49696167,0.00360207
4648.42576904,0.00361700
4650.35457642,0.00351290
4652.28338379,0.00353135
4654.21219116,0.00357885
4656.14099853,0.00354287
4658.06980591,0.00355188
4659.99861328,0.00349127
4661.92742065,0.00350960
4663.85622803,0.00351385
4665.78503540,0.00348237
4667.71384277,0.00351014
4669.64265015,0.00343638
4671.57145752,0.00346058
4673.50026489,0.00345750
4675.42907227,0.00342701
4677.35787964,0.00342818
4679.28668701,0.00337275
4681.21549438,0.00343985
4683.14430176,0.00344199
4685.07310913,0.00337362
4687.00191650,0.00339405
4688.93072388,0.00339466
4690.85953125,0.00334683
4692.78833862,0.00334570
4694.71714600,0.00335040
4696.64595337,0.00339614
4698.57476074,0.00340782
4700.50356812,0.00328488
4702.43237549,0.00327321
4704.36118286,0.00326296
4706.28999023,0.00323720
4708.21879761,0.00318873
4710.14760498,0.00324747
4712.07641235,0.00335904
4714.00521973,0.00319959
4715.93402710,0.00324236
4717.86283447,0.00327501
4719.79164185,0.00323358
4721.72044922,0.00330434
4723.64925659,0.00323306
4725.57806396,0.00324819
4727.50687134,0.00323372
4729.43567871,0.00318982
4731.36448608,0.00315849
4733.29329346,0.00314771
4735.22210083,0.00313905
4737.15090820,0.00314211
4739.07971558,0.00320376
4741.00852295,0.00313499
4742.93733032,0.00315047
4744.86613770,0.00310268
4746.79494507,0.00305147
4748.72375244,0.00305556
4750.65255981,0.00307055
4752.58136719,0.00320415
4754.51017456,0.00311548
4756.43898193,0.00306168
4758.36778931,0.00309017
4760.29659668,0.00309559
4762.22540405,0.00304624
4764.15421143,0.00301165
4766.08301880,0.00310603
4768.01182617,0.00301854
4769.94063354,0.00299956
4771.86944092,0.00303714
4773.79824829,0.00301524
4775.72705566,0.00294732
4777.65586304,0.00295321
4779.58467041,0.00305723
4781.51347778,0.00295070
4783.44228516,0.00288959
4785.37109253,0.00287868
4787.29989990,0.00292567
4789.22870728,0.00291442
4791.15751465,0.00289019
4793.08632202,0.00299106
4795.01512939,0.00291606
4796.94393677,0.00286726
4798.87274414,0.00284991
4800.80155151,0.00289095
4802.73035889,0.00286229
4804.65916626,0.00286687
4806.58797363,0.00292271
4808.51678101,0.00277415
4810.44558838,0.00285442
4812.37439575,0.00280346
4814.30320312,0.00275595
4816.23201050,0.00287013
4818.16081787,0.00276024
4820.08962524,0.00276115
4822.01843262,0.00277888
4823.94723999,0.00284443
4825.87604736,0.00283401
4827.80485474,0.00271215
4829.73366211,0.00275676
4831.66246948,0.00275835
4833.59127686,0.00272133
4835.52008423,0.00274073
4837.44889160,0.00275329
4839.37769897,0.00269976
4841.30650635,0.00269573
4843.23531372,0.00273004
4845.16412109,0.00274521
4847.09292847,0.00270529
4849.02173584,0.00265412
4850.95054321,0.00271433
4852.87935059,0.00268708
4854.80815796,0.00267221
4856.73696533,0.00265516
4858.66577270,0.00265586
4860.59458008,0.00273268
4862.52338745,0.00263436
4864.45219482,0.00263497
4866.38100220,0.00265629
4868.30980957,0.00259115
4870.23861694,0.00263369
4872.16742432,0.00260466
4874.09623169,0.00260111
4876.02503906,0.00261680
4877.95384644,0.00258064
4879.88265381,0.00258885
4881.81146118,0.00255983
4883.74026855,0.00256121
4885.66907593,0.00258404
4887.59788330,0.00257148
4889.52669067,0.00259949
4891.45549805,0.00258135
4893.38430542,0.00250749
4895.31311279,0.00251083
4897.24192017,0.00256432
4899.17072754,0.00255687
4901.09953491,0.00250585
4903.02834228,0.00245528
4904.95714966,0.00243897
4906.88595703,0.00243863
4908.81476440,0.00243137
4910.74357178,0.00246598
4912.67237915,0.00244177
4914.60118652,0.00241646
4916.52999390,0.00246720
4918.45880127,0.00245356
4920.38760864,0.00235700
4922.31641602,0.00233221
4924.24522339,0.00240509
4926.17403076,0.00239701
4928.10283813,0.00245383
4930.03164551,0.00248912
4931.96045288,0.00238625
4933.88926025,0.00236793
4935.81806763,0.00237251
4937.74687500,0.00236849
4939.67568237,0.00235666
4941.60448975,0.00242548
4943.53329712,0.00237086
4945.46210449,0.00224788
4947.39091187,0.00227599
4949.31971924,0.00223846
4951.24852661,0.00233088
4953.17733398,0.00236318
4955.10614136,0.00229717
4957.03494873,0.00225662
4958.96375610,0.00224911
4960.89256348,0.00231784
4962.82137085,0.00222744
4964.75017822,0.00226375
4966.67898560,0.00225695
4968.60779297,0.00227037
4970.53660034,0.00231935
4972.46540771,0.00221709
4974.39421509,0.00224653
4976.32302246,0.00213592
4978.25182983,0.00219261
4980.18063721,0.00225756
4982.10944458,0.00219697
4984.03825195,0.00224837
4985.96705933,0.00219070
4987.89586670,0.00224948
4989.82467407,0.00219760
4991.75348145,0.00218483
4993.68228882,0.00218686
4995.61109619,0.00210922
4997.53990356,0.00216937
4999.46871094,0.00213373
5001.39751831,0.00219270
5003.32632568,0.00218636
5005.25513306,0.00212145
5007.18394043,0.00207568
5009.11274780,0.00205581
5011.04155518,0.00216071
5012.97036255,0.00213339
5014.89916992,0.00210056
5016.82797729,0.00206608
5018.75678467,0.00207445
5020.68559204,0.00207672
5022.61439941,0.00202481
5024.54320679,0.00206289
5026.47201416,0.00206913
5028.40082153,0.00206026
5030.32962891,0.00209706
5032.25843628,0.00209482
5034.18724365,0.00198225
5036.11605103,0.00204184
5038.04485840,0.00205644
5039.97366577,0.00194367
5041.90247314,0.00200542
5043.83128052,0.00196310
5045.76008789,0.00195078
5047.68889526,0.00202197
5049.61770264,0.00205285
5051.54651001,0.00197455
5053.47531738,0.00186315
5055.40412476,0.00193773
5057.33293213,0.00199157
5059.26173950,0.00198163
5061.19054687,0.00194554
5063.11935425,0.00199301
5065.04816162,0.00196940
5066.97696899,0.00185988
5068.90577637,0.00195907
5070.83458374,0.00197438
5072.76339111,0.00187926
5074.69219849,0.00192565
5076.62100586,0.00197360
5078.54981323,0.00189922
5080.47862061,0.00189261
5082.40742798,0.00189085
5084.33623535,0.00188425
5086.26504272,0.00190676
5088.19385010,0.00182607
5090.12265747,0.00187490
5092.05146484,0.00189371
5093.98027222,0.00188287
5095.90907959,0.00193301
5097.83788696,0.00185280
5099.76669434,0.00185258
5101.69550171,0.00190684
5103.62430908,0.00186831
5105.55311645,0.00180823
5107.48192383,0.00184496
5109.41073120,0.00183259
5111.33953857,0.00179857
5113.26834595,0.00183847
5115.19715332,0.00178743
5117.12596069,0.00178849
5119.05476807,0.00179064
5120.98357544,0.00177198
5122.91238281,0.00177723
5124.84119019,0.00175297
5126.76999756,0.00176725
5128.69880493,0.00174907
5130.62761230,0.00172558
5132.55641968,0.00174098
5134.48522705,0.00170264
5136.41403442,0.00167031
5138.34284180,0.00174036
5140.27164917,0.00168824
5142.20045654,0.00167581
5144.12926392,0.00175532
5146.05807129,0.00171038
5147.98687866,0.00175675
5149.91568603,0.00172448
5151.84449341,0.00171757
5153.77330078,0.00173797
5155.70210815,0.00166052
5157.63091553,0.00169623
5159.55972290,0.00164217
5161.48853027,0.00166525
5163.41733765,0.00165852
5165.34614502,0.00160319
5167.27495239,0.00171089
5169.20375977,0.00165156
5171.13256714,0.00168380
5173.06137451,0.00168567
5174.99018188,0.00151251
5176.91898926,0.00168262
5178.84779663,0.00169809
5180.77660400,0.00151132
5182.70541138,0.00163725
5184.63421875,0.00160138
5186.56302612,0.00159750
5188.49183350,0.00169624
5190.42064087,0.00156856
5192.34944824,0.00158156
5194.27825562,0.00159422
5196.20706299,0.00160783
5198.13587036,0.00164347
5200.06467773,0.00159844
5201.99348511,0.00156660
5203.92229248,0.00150719
5205.85109985,0.00152875
5207.77990723,0.00146167
5209.70871460,0.00147910
5211.63752197,0.00158363
5213.56632935,0.00154073
5215.49513672,0.00150215
5217.42394409,0.00149100
5219.35275146,0.00155260
5221.28155884,0.00154885
5223.21036621,0.00155105
5225.13917358,0.00150769
5227.06798096,0.00151563
5228.99678833,0.00162596
5230.92559570,0.00146639
5232.85440308,0.00143732
5234.78321045,0.00156000
5236.71201782,0.00154505
5238.64082520,0.00145215
5240.56963257,0.00142724
5242.49843994,0.00149255
5244.42724731,0.00143900
5246.35605469,0.00143905
5248.28486206,0.00142924
5250.21366943,0.00146723
5252.14247681,0.00150188
5254.07128418,0.00135280
5256.00009155,0.00140190
5257.92889893,0.00151240
5259.85770630,0.00149350
5261.78651367,0.00145104
5263.71532104,0.00138105
5265.64412842,0.00133494
5267.57293579,0.00138655
5269.50174316,0.00143956
5271.43055054,0.00139314
5273.35935791,0.00143025
5275.28816528,0.00146705
5277.21697266,0.00140471
5279.14578003,0.00136165
5281.07458740,0.00139692
5283.00339478,0.00145201
5284.93220215,0.00139012
5286.86100952,0.00137723
5288.78981689,0.00142129
5290.71862427,0.00137605
5292.64743164,0.00134308
5294.57623901,0.00134002
5296.50504639,0.00138484
5298.43385376,0.00142241
5300.36266113,0.00137739
5302.29146851,0.00136505
5304.22027588,0.00132384
5306.14908325,0.00129191
5308.07789062,0.00136727
5310.00669800,0.00137302
5311.93550537,0.00134514
5313.86431274,0.00130730
5315.79312012,0.00127606
5317.72192749,0.00134817
5319.65073486,0.00133809
5321.57954224,0.00128649
5323.50834961,0.00132872
5325.43715698,0.00130370
5327.36596436,0.00126711
5329.29477173,0.00130110
5331.22357910,0.00127695
5333.15238647,0.00127271
5335.08119385,0.00126704
5337.01000122,0.00125137
5338.93880859,0.00124309
5340.86761597,0.00118314
5342.79642334,0.00126266
5344.72523071,0.00128078
5346.65403809,0.00125326
5348.58284546,0.00128622
5350.51165283,0.00118147
5352.44046020,0.00120456
5354.36926758,0.00118741
5356.29807495,0.00110913
5358.22688232,0.00121826
5360.15568970,0.00124378
5362.08449707,0.00121004
5364.01330444,0.00123920
5365.94211182,0.00123786
5367.87091919,0.00120046
5369.79972656,0.00125792
5371.72853394,0.00127289
5373.65734131,0.00117905
5375.58614868,0.00112933
5377.51495605,0.00112300
5379.44376343,0.00120264
5381.37257080,0.00115949
5383.30137817,0.00107983
5385.23018555,0.00114889
5387.15899292,0.00113319
5389.08780029,0.00114559
5391.01660767,0.00121913
5392.94541504,0.00118793
5394.87422241,0.00113033
5396.80302978,0.00111749
5398.73183716,0.00112767
5400.66064453,0.00114874
5402.58945190,0.00119083
5404.51825928,0.00120463
5406.44706665,0.00113288
5408.37587402,0.00108894
5410.30468140,0.00112467
5412.23348877,0.00111755
5414.16229614,0.00109218
5416.09110352,0.00108578
5418.01991089,0.00110004
5419.94871826,0.00111370
5421.87752563,0.00110516
5423.80633301,0.00110544
5425.73514038,0.00113344
5427.66394775,0.00116201
5429.59275513,0.00107735
5431.52156250,0.00106878
5433.45036987,0.00107765
5435.37917725,0.00101262
5437.30798462,0.00113301
5439.23679199,0.00113139
5441.16559936,0.00102860
5443.09440674,0.00109614
5445.02321411,0.00112143
5446.95202148,0.00105385
5448.88082886,0.00101925
5450.80963623,0.00103879
5452.73844360,0.00098841
5454.66725098,0.00099536
5456.59605835,0.00107964
5458.52486572,0.00106799
5460.45367310,0.00101924
5462.38248047,0.00101546
5464.31128784,0.00105223
5466.24009521,0.00102425
5468.16890259,0.00101712
5470.09770996,0.00100876
5472.02651733,0.00096424
5473.95532471,0.00096620
5475.88413208,0.00092089
5477.81293945,0.00094419
5479.74174683,0.00098492
5481.67055420,0.00097779
5483.59936157,0.00101377
5485.52816895,0.00099313
5487.45697632,0.00097032
5489.38578369,0.00101186
5491.31459106,0.00103553
5493.24339844,0.00099618
5495.17220581,0.00099205
5497.10101318,0.00100905
5499.02982056,0.00100073
5500.95862793,0.00100199
5502.88743530,0.00097561
5504.81624268,0.00100637
5506.74505005,0.00099088
5508.67385742,0.00094793
5510.60266479,0.00100610
5512.53147217,0.00098579
5514.46027954,0.00092556
5516.38908691,0.00092114
5518.31789429,0.00095015
5520.24670166,0.00091239
5522.17550903,0.00093731
5524.10431641,0.00105422
5526.03312378,0.00098022
5527.96193115,0.00093707
5529.89073853,0.00092747
5531.81954590,0.00088824
5533.74835327,0.00090933
5535.67716064,0.00089254
5537.60596802,0.00097382
5539.53477539,0.00096657
5541.46358276,0.00090795
5543.39239014,0.00092030
5545.32119751,0.00085185
5547.25000488,0.00090043
5549.17881226,0.00094601
5551.10761963,0.00090265
5553.03642700,0.00090077
5554.96523437,0.00091992
5556.89404175,0.00094597
5558.82284912,0.00086722
5560.75165649,0.00087312
5562.68046387,0.00098258
5564.60927124,0.00086948
5566.53807861,0.00082809
5568.46688599,0.00090728
5570.39569336,0.00082887
5572.32450073,0.00089852
5574.25330811,0.00093563
5576.18211548,0.00083128
5578.11092285,0.00086461
5580.03973022,0.00085208
5581.96853760,0.00087752
5583.89734497,0.00093494
5585.82615234,0.00088443
5587.75495972,0.00080023
5589.68376709,0.00082477
5591.61257446,0.00088241
5593.54138184,0.00078922
5595.47018921,0.00081977
5597.39899658,0.00082776
5599.32780395,0.00080990
5601.25661133,0.00087082
5603.18541870,0.00080181
5605.11422607,0.00085777
5607.04303345,0.00088118
5608.97184082,0.00082765
5610.90064819,0.00081355
5612.82945557,0.00078208
5614.75826294,0.00082993
5616.68707031,0.00078008
5618.61587769,0.00081284
5620.54468506,0.00087961
5622.47349243,0.00078130
5624.40229980,0.00083120
5626.33110718,0.00083953
5628.25991455,0.00071968
5630.18872192,0.00080768
5632.11752930,0.00084995
5634.04633667,0.00076174
5635.97514404,0.00081610
5637.90395142,0.00080873
5639.83275879,0.00078461
5641.76156616,0.00083593
5643.69037353,0.00079844
5645.61918091,0.00077821
5647.54798828,0.00079477
5649.47679565,0.00085381
5651.40560303,0.00084782
5653.33441040,0.00074946
5655.26321777,0.00081870
5657.19202515,0.00085455
5659.12083252,0.00071041
5661.04963989,0.00075073
5662.97844727,0.00086219
5664.90725464,0.00078220
5666.83606201,0.00074405
5668.76486938,0.00074023
5670.69367676,0.00068977
5672.62248413,0.00070234
5674.55129150,0.00075282
5676.48009888,0.00078472
5678.40890625,0.00077121
5680.33771362,0.00076083
5682.26652100,0.00075914
5684.19532837,0.00068915
5686.12413574,0.00065902
5688.05294311,0.00072729
5689.98175049,0.00069919
5691.91055786,0.00070028
5693.83936523,0.00074844
5695.76817261,0.00072934
5697.69697998,0.00073460
5699.62578735,0.00066393
5701.55459473,0.00072157
5703.48340210,0.00074246
5705.41220947,0.00066492
5707.34101685,0.00074070
5709.26982422,0.00066593
5711.19863159,0.00070831
5713.12743896,0.00077650
5715.05624634,0.00067298
5716.98505371,0.00069291
5718.91386108,0.00066543
5720.84266846,0.00065941
5722.77147583,0.00068731
5724.70028320,0.00066455
5726.62909058,0.00066443
5728.55789795,0.00069845
5730.48670532,0.00069266
5732.41551270,0.00065318
5734.34432007,0.00069932
5736.27312744,0.00073442
5738.20193481,0.00071513
5740.13074219,0.00061925
5742.05954956,0.00062655
5743.98835693,0.00066405
5745.91716431,0.00061218
5747.84597168,0.00069805
5749.77477905,0.00069273
5751.70358643,0.00064720
5753.63239380,0.00066379
5755.56120117,0.00064655
5757.49000854,0.00064402
5759.41881592,0.00061032
5761.34762329,0.00062527
5763.27643066,0.00059565
5765.20523804,0.00062776
5767.13404541,0.00069028
5769.06285278,0.00059558
5770.99166016,0.00064249
5772.92046753,0.00068792
5774.84927490,0.00062451
5776.77808228,0.00060250
5778.70688965,0.00058829
5780.63569702,0.00065305
5782.56450439,0.00056290
5784.49331177,0.00054598
5786.42211914,0.00070763
5788.35092651,0.00063200
5790.27973389,0.00065382
5792.20854126,0.00063421
5794.13734863,0.00056186
5796.06615601,0.00062867
5797.99496338,0.00055565
5799.92377075,0.00064997
5801.85257812,0.00065678
5803.78138550,0.00055694
5805.71019287,0.00058017
5807.63900024,0.00051845
5809.56780762,0.00060042
5811.49661499,0.00061106
5813.42542236,0.00053896
5815.35422974,0.00056651
5817.28303711,0.00055166
5819.21184448,0.00055947
5821.14065186,0.00058708
5823.06945923,0.00058093
5824.99826660,0.00059867
5826.92707397,0.00059567
5828.85588135,0.00052435
5830.78468872,0.00056502
5832.71349609,0.00056683
5834.64230347,0.00057766
5836.57111084,0.00058792
5838.49991821,0.00052445
5840.42872559,0.00058725
5842.35753296,0.00052647
5844.28634033,0.00056110
5846.21514770,0.00057498
5848.14395508,0.00054626
5850.07276245,0.00066528
5852.00156982,0.00055583
5853.93037720,0.00052670
5855.85918457,0.00051273
5857.78799194,0.00051417
5859.71679932,0.00055588
5861.64560669,0.00049777
5863.57441406,0.00057244
5865.50322144,0.00056236
5867.43202881,0.00053114
5869.36083618,0.00049538
5871.28964355,0.00052412
5873.21845093,0.00061567
5875.14725830,0.00055647
5877.07606567,0.00051462
5879.00487305,0.00052028
5880.93368042,0.00051458
5882.86248779,0.00047812
5884.79129517,0.00052686
5886.72010254,0.00051258
5888.64890991,0.00050779
5890.57771728,0.00055609
5892.50652466,0.00050076
5894.43533203,0.00051077
5896.36413940,0.00043372
5898.29294678,0.00047446
5900.22175415,0.00054835
5902.15056152,0.00047882
5904.07936890,0.00050519
5906.00817627,0.00046690
5907.93698364,0.00046626
5909.86579102,0.00048903
5911.79459839,0.00042018
5913.72340576,0.00042653
5915.65221313,0.00049800
5917.58102051,0.00046654
5919.50982788,0.00047358
5921.43863525,0.00050143
5923.36744263,0.00043553
5925.29625000,0.00050527
5927.22505737,0.00053231
5929.15386475,0.00047412
5931.08267212,0.00040465
5933.01147949,0.00042636
5934.94028686,0.00050950
5936.86909424,0.00049237
5938.79790161,0.00056020
5940.72670898,0.00051890
5942.65551636,0.00042320
5944.58432373,0.00042041
5946.51313110,0.00045408
5948.44193848,0.00043249
5950.37074585,0.00040372
5952.29955322,0.00046963
5954.22836060,0.00040602
5956.15716797,0.00043599
5958.08597534,0.00044003
5960.01478271,0.00040590
5961.94359009,0.00042858
5963.87239746,0.00040501
5965.80120483,0.00046915
5967.73001221,0.00041519
5969.65881958,0.00047853
5971.58762695,0.00047620
5973.51643433,0.00038499
5975.44524170,0.00045835
5977.37404907,0.00044909
5979.30285645,0.00049479
5981.23166382,0.00043350
5983.16047119,0.00039451
5985.08927856,0.00041843
5987.01808594,0.00039382
5988.94689331,0.00044752
5990.87570068,0.00044288
5992.80450806,0.00042638
5994.73331543,0.00041054
5996.66212280,0.00044449
5998.59093018,0.00043303
6000.51973755,0.00040438
