399.26312622,0.00086502
401.19193359,0.00076106
403.12074097,0.00099854
405.04954834,0.00092306
406.97835571,0.00081372
408.90716309,0.00093359
410.83597046,0.00074565
412.76477783,0.00074048
414.69358521,0.00073738
416.62239258,0.00059177
418.55119995,0.00053835
420.48000732,0.00064480
422.40881470,0.00055501
424.33762207,0.00073559
426.26642944,0.00112865
428.19523682,0.00081491
430.12404419,0.00096027
432.05285156,0.00107027
433.98165894,0.00070576
435.91046631,0.00094188
437.83927368,0.00098600
439.76808105,0.00104353
441.69688843,0.00057531
443.62569580,0.00006736
445.55450317,0.00095271
447.48331055,0.00088682
449.41211792,0.00065341
451.34092529,0.00100670
453.26973267,0.00058632
455.19854004,0.00080167
457.12734741,0.00072681
459.05615479,0.00065065
460.98496216,0.00072917
462.91376953,0.00046138
464.84257690,0.00106753
466.77138428,0.00059972
468.70019165,0.00019086
470.62899902,0.00036303
472.55780640,0.00015894
474.48661377,0.00062812
476.41542114,0.00059617
478.34422852,0.00051277
480.27303589,0.00038967
482.20184326,0.00046669
484.13065063,0.00036601
486.05945801,-0.00010574
487.98826538,0.00015102
489.91707275,-0.00014205
491.84588013,0.00027044
493.77468750,0.00022537
495.70349487,-0.00011759
497.63230225,0.00047926
499.56110962,-0.00006066
501.48991699,-0.00034362
503.41872437,0.00013800
505.34753174,0.00055626
507.27633911,0.00032468
509.20514648,0.00031589
511.13395386,0.00034372
513.06276123,-0.00036114
514.99156860,-0.00013811
516.92037598,0.00044554
518.84918335,-0.00015433
520.77799072,-0.00011532
522.70679810,0.00057088
524.63560547,0.00003269
526.56441284,-0.00022535
528.49322021,0.00006360
530.42202759,-0.00005149
532.35083496,-0.00002624
534.27964233,0.00020809
536.20844971,0.00028185
538.13725708,0.00007080
540.06606445,0.00022402
541.99487183,0.00039627
543.92367920,0.00006603
545.85248657,0.00021517
547.78129395,0.00049240
549.71010132,0.00019832
551.63890869,-0.00002398
553.56771606,0.00027831
555.49652344,0.00004540
557.42533081,-0.00027133
559.35413818,0.00012514
561.28294556,-0.00005854
563.21175293,-0.00006134
565.14056030,0.00028908
567.06936768,0.00001758
568.99817505,-0.00011263
570.92698242,-0.00014711
572.85578979,0.00014637
574.78459717,0.00021991
576.71340454,-0.00020520
578.64221191,0.00018271
580.57101929,0.00034470
582.49982666,0.00010596
584.42863403,0.00024806
586.35744141,0.00020734
588.28624878,0.00010302
590.21505615,0.00021609
592.14386353,-0.00005179
594.07267090,-0.00004114
596.00147827,0.00019050
597.93028564,-0.00022511
599.85909302,0.00011711
601.78790039,0.00038613
603.71670776,0.00013113
605.64551514,-0.00004344
607.57432251,-0.00026173
609.50312988,0.00018956
611.43193726,0.00010436
613.36074463,-0.00012314
615.28955200,-0.00007250
617.21835938,-0.00024137
619.14716675,-0.00018809
621.07597412,0.00008086
623.00478149,-0.00010141
624.93358887,0.00022860
626.86239624,0.00027756
628.79120361,0.00002686
630.72001099,0.00032525
632.64881836,0.00046453
634.57762573,0.00055966
636.50643311,0.00032724
638.43524048,0.00054159
640.36404785,0.00077386
642.29285522,0.00084494
644.22166260,0.00097184
646.15046997,0.00090133
648.07927734,0.00099149
650.00808472,0.00100636
651.93689209,0.00151759
653.86569946,0.00137728
655.79450684,0.00115533
657.72331421,0.00156714
659.65212158,0.00160088
661.58092896,0.00166206
663.50973633,0.00143676
665.43854370,0.00162122
667.36735107,0.00156402
669.29615845,0.00151951
671.22496582,0.00189214
673.15377319,0.00197127
675.08258057,0.00223812
677.01138794,0.00184454
678.94019531,0.00188322
680.86900269,0.00199917
682.79781006,0.00207258
684.72661743,0.00242158
686.65542480,0.00189854
688.58423218,0.00180041
690.51303955,0.00186868
692.44184692,0.00236516
694.37065430,0.00250058
696.29946167,0.00233481
698.22826904,0.00305123
700.15707642,0.00291256
702.08588379,0.00304487
704.01469116,0.00313341
705.94349854,0.00271881
707.87230591,0.00273848
709.80111328,0.00197281
711.72992065,0.00111080
713.65872803,0.00074098
715.58753540,0.00046530
717.51634277,0.00036248
719.44515015,0.00028903
721.37395752,0.00019055
723.30276489,0.00002406
725.23157227,0.00004084
727.16037964,0.00032853
729.08918701,0.00001541
731.01799438,-0.00025387
732.94680176,0.00000170
734.87560913,-0.00007854
736.80441650,0.00008281
738.73322388,0.00013999
740.66203125,0.00000017
742.59083862,-0.00022251
744.51964600,-0.00003605
746.44845337,0.00036591
748.37726074,0.00031167
750.30606812,0.00035206
752.23487549,0.00033490
754.16368286,0.00040500
756.09249023,0.00016996
758.02129761,0.00000063
759.95010498,0.00024832
761.87891235,-0.00002509
763.80771973,-0.00013830
765.73652710,0.00031171
767.66533447,0.00029700
769.59414185,0.00025222
771.52294922,0.00045292
773.45175659,0.00039275
775.38056396,0.00028064
777.30937134,0.00024996
779.23817871,0.00021995
781.16698608,0.00033233
783.09579346,0.00021832
785.02460083,0.00020970
786.95340820,0.00038656
788.88221558,0.00024202
790.81102295,0.00045042
792.73983032,0.00041332
794.66863770,0.00019721
796.59744507,0.00048138
798.52625244,0.00052533
800.45505981,0.00056945
802.38386719,0.00049468
804.31267456,0.00034251
806.24148193,0.00046388
808.17028931,0.00045124
810.09909668,0.00041020
812.02790405,0.00021500
813.95671143,0.00020029
815.88551880,0.00038124
817.81432617,0.00011714
819.74313354,0.00027492
821.67194092,0.00046236
823.60074829,0.00028482
825.52955566,0.00051406
827.45836304,0.00050861
829.38717041,0.00046350
831.31597778,0.00048088
833.24478516,0.00057241
835.17359253,0.00072409
837.10239990,0.00076244
839.03120728,0.00105916
840.96001465,0.00075837
842.88882202,0.00061889
844.81762939,0.00061504
846.74643677,0.00045248
848.67524414,0.00076088
850.60405151,0.00036632
852.53285889,0.00036142
854.46166626,0.00060333
856.39047363,0.00034053
858.31928101,0.00045925
860.24808838,0.00038152
862.17689575,0.00008341
864.10570313,0.00011492
866.03451050,0.00060471
867.96331787,0.00044281
869.89212524,0.00005170
871.82093262,0.00027508
873.74973999,0.00042569
875.67854736,0.00019915
877.60735474,0.00000137
879.53616211,0.00042676
881.46496948,0.00030048
883.39377686,0.00013192
885.32258423,0.00037567
887.25139160,0.00040840
889.18019897,0.00049186
891.10900635,0.00024924
893.03781372,0.00050332
894.96662109,0.00052346
896.89542847,0.00032056
898.82423584,0.00051615
900.75304321,0.00008197
902.68185059,0.00026755
904.61065796,0.00031496
906.53946533,-0.00011349
908.46827271,0.00037373
910.39708008,0.00067526
912.32588745,0.00058601
914.25469482,0.00062244
916.18350220,0.00050606
918.11230957,0.00023047
920.04111694,0.00059515
921.96992432,0.00077186
923.89873169,0.00050084
925.82753906,0.00090282
927.75634644,0.00099039
929.68515381,0.00074701
931.61396118,0.00085264
933.54276855,0.00115739
935.47157593,0.00112753
937.40038330,0.00100544
939.32919067,0.00129630
941.25799805,0.00121767
943.18680542,0.00113967
945.11561279,0.00130752
947.04442017,0.00138875
948.97322754,0.00128187
950.90203491,0.00106493
952.83084229,0.00108846
954.75964966,0.00093089
956.68845703,0.00092276
958.61726440,0.00109510
960.54607178,0.00116973
962.47487915,0.00135538
964.40368652,0.00124899
966.33249390,0.00127440
968.26130127,0.00143838
970.19010864,0.00132811
972.11891602,0.00156309
974.04772339,0.00170459
975.97653076,0.00149669
977.90533813,0.00180182
979.83414551,0.00201992
981.76295288,0.00191323
983.69176025,0.00225569
985.62056763,0.00268955
987.54937500,0.00292980
989.47818237,0.00305866
991.40698975,0.00333507
993.33579712,0.00371439
995.26460449,0.00396225
997.19341187,0.00434057
999.12221924,0.00450219
1001.05102661,0.00474965
1002.97983398,0.00536685
1004.90864136,0.00573173
1006.83744873,0.00598928
1008.76625610,0.00621497
1010.69506348,0.00666640
1012.62387085,0.00720332
1014.55267822,0.00734854
1016.48148560,0.00777396
1018.41029297,0.00830598
1020.33910034,0.00865069
1022.26790771,0.00918375
1024.19671509,0.00952331
1026.12552246,0.00973359
1028.05432983,0.01013012
1029.98313721,0.01040695
1031.91194458,0.01063673
1033.84075195,0.01096829
1035.76955933,0.01100107
1037.69836670,0.01109094
1039.62717407,0.01135816
1041.55598145,0.01107354
1043.48478882,0.01080158
1045.41359619,0.01089295
1047.34240356,0.01085370
1049.27121094,0.01065798
1051.20001831,0.01044957
1053.12882568,0.01032937
1055.05763306,0.01000253
1056.98644043,0.00958890
1058.91524780,0.00955037
1060.84405518,0.00951428
1062.77286255,0.00913834
1064.70166992,0.00892990
1066.63047729,0.00868877
1068.55928467,0.00818427
1070.48809204,0.00780446
1072.41689941,0.00729421
1074.34570679,0.00716375
1076.27451416,0.00701523
1078.20332153,0.00633757
1080.13212891,0.00622236
1082.06093628,0.00610306
1083.98974365,0.00554420
1085.91855103,0.00524445
1087.84735840,0.00525018
1089.77616577,0.00504365
1091.70497314,0.00476106
1093.63378052,0.00461955
1095.56258789,0.00433548
1097.49139526,0.00444510
1099.42020264,0.00425914
1101.34901001,0.00397622
1103.27781738,0.00417345
1105.20662476,0.00387269
1107.13543213,0.00398443
1109.06423950,0.00392203
1110.99304687,0.00348735
1112.92185425,0.00391564
1114.85066162,0.00375558
1116.77946899,0.00347494
1118.70827637,0.00386860
1120.63708374,0.00381472
1122.56589111,0.00360055
1124.49469849,0.00355923
1126.42350586,0.00380588
1128.35231323,0.00407282
1130.28112061,0.00391197
1132.20992798,0.00393452
1134.13873535,0.00415609
1136.06754272,0.00431627
1137.99635010,0.00461693
1139.92515747,0.00500960
1141.85396484,0.00545040
1143.78277222,0.00568432
1145.71157959,0.00579850
1147.64038696,0.00631394
1149.56919434,0.00688413
1151.49800171,0.00696017
1153.42680908,0.00701227
1155.35561646,0.00743859
1157.28442383,0.00780381
1159.21323120,0.00802977
1161.14203857,0.00837884
1163.07084595,0.00874240
1164.99965332,0.00907370
1166.92846069,0.00940944
1168.85726807,0.00971455
1170.78607544,0.01006684
1172.71488281,0.01041369
1174.64369019,0.01079466
1176.57249756,0.01129252
1178.50130493,0.01170958
1180.43011230,0.01211955
1182.35891968,0.01257651
1184.28772705,0.01312356
1186.21653442,0.01387054
1188.14534180,0.01456622
1190.07414917,0.01525419
1192.00295654,0.01600081
1193.93176392,0.01661508
1195.86057129,0.01741001
1197.78937866,0.01839355
1199.71818604,0.01895071
1201.64699341,0.01952674
1203.57580078,0.02049472
1205.50460815,0.02122910
1207.43341553,0.02187461
1209.36222290,0.02273033
1211.29103027,0.02358260
1213.21983765,0.02422919
1215.14864502,0.02477464
1217.07745239,0.02537689
1219.00625977,0.02593612
1220.93506714,0.02627474
1222.86387451,0.02632913
1224.79268188,0.02644047
1226.72148926,0.02676476
1228.65029663,0.02716849
1230.57910400,0.02721975
1232.50791138,0.02713612
1234.43671875,0.02738040
1236.36552612,0.02749161
1238.29433350,0.02742883
1240.22314087,0.02731768
1242.15194824,0.02724891
1244.08075562,0.02699684
1246.00956299,0.02691915
1247.93837036,0.02704016
1249.86717773,0.02666043
1251.79598511,0.02648356
1253.72479248,0.02616937
1255.65359985,0.02588284
1257.58240723,0.02578004
1259.51121460,0.02524781
1261.44002197,0.02487210
1263.36882935,0.02450069
1265.29763672,0.02431663
1267.22644409,0.02401136
1269.15525146,0.02365859
1271.08405884,0.02338446
1273.01286621,0.02290891
1274.94167358,0.02272667
1276.87048096,0.02222737
1278.79928833,0.02176824
1280.72809570,0.02140477
1282.65690308,0.02113400
1284.58571045,0.02069120
1286.51451782,0.01996605
1288.44332520,0.02001715
1290.37213257,0.01967673
1292.30093994,0.01946405
1294.22974731,0.01945657
1296.15855469,0.01903127
1298.08736206,0.01923416
1300.01616943,0.01935331
1301.94497681,0.01944908
1303.87378418,0.01954275
1305.80259155,0.01956305
1307.73139893,0.01995265
1309.66020630,0.02034332
1311.58901367,0.02050897
1313.51782104,0.02085832
1315.44662842,0.02154641
1317.37543579,0.02192336
1319.30424316,0.02244720
1321.23305054,0.02326056
1323.16185791,0.02408608
1325.09066528,0.02470569
1327.01947266,0.02529379
1328.94828003,0.02597371
1330.87708740,0.02631357
1332.80589478,0.02718003
1334.73470215,0.02788764
1336.66350952,0.02792353
1338.59231689,0.02750216
1340.52112427,0.02784268
1342.44993164,0.02947394
1344.37873901,0.02960237
1346.30754639,0.02942310
1348.23635376,0.02945075
1350.16516113,0.02917225
1352.09396851,0.02921776
1354.02277588,0.02874739
1355.95158325,0.02884763
1357.88039062,0.02851490
1359.80919800,0.02797840
1361.73800537,0.02676508
1363.66681274,0.02601625
1365.59562012,0.02790974
1367.52442749,0.02703223
1369.45323486,0.02656160
1371.38204224,0.02748577
1373.31084961,0.02558524
1375.23965698,0.02585063
1377.16846436,0.02674358
1379.09727173,0.02656002
1381.02607910,0.02673460
1382.95488647,0.02658109
1384.88369385,0.02661399
1386.81250122,0.02542437
1388.74130859,0.02550212
1390.67011597,0.02807984
1392.59892334,0.02749242
1394.52773071,0.02509639
1396.45653809,0.02663195
1398.38534546,0.02630414
1400.31415283,0.02613585
1402.24296021,0.02909052
1404.17176758,0.02690260
1406.10057495,0.02714476
1408.02938232,0.02851586
1409.95818970,0.02717886
1411.88699707,0.02802861
1413.81580444,0.02691828
1415.74461182,0.02754597
1417.67341919,0.02427527
1419.60222656,0.02110627
1421.53103394,0.02537204
1423.45984131,0.02463217
1425.38864868,0.02393154
1427.31745605,0.02461201
1429.24626343,0.02245713
1431.17507080,0.02168668
1433.10387817,0.02223369
1435.03268555,0.02017568
1436.96149292,0.01672832
1438.89030029,0.01952944
1440.81910767,0.02026114
1442.74791504,0.01858197
1444.67672241,0.01967944
1446.60552979,0.01787179
1448.53433716,0.01805415
1450.46314453,0.01892418
1452.39195190,0.01933369
1454.32075928,0.02000769
1456.24956665,0.01600622
1458.17837402,0.01648800
1460.10718140,0.02280053
1462.03598877,0.02443847
1463.96479614,0.02405280
1465.89360352,0.02488155
1467.82241089,0.02875452
1469.75121826,0.03109678
1471.68002563,0.02667017
1473.60883301,0.02826526
1475.53764038,0.03259288
1477.46644775,0.03509711
1479.39525513,0.03924818
1481.32406250,0.03945996
1483.25286987,0.04229782
1485.18167725,0.04351760
1487.11048462,0.04214492
1489.03929199,0.04169362
1490.96809937,0.04153968
1492.89690674,0.04969303
1494.82571411,0.04825637
1496.75452148,0.04218540
1498.68332886,0.04850971
1500.61213623,0.05026612
1502.54094360,0.05460442
1504.46975098,0.05114062
1506.39855835,0.03470076
1508.32736572,0.04352015
1510.25617310,0.05294723
1512.18498047,0.05123616
1514.11378784,0.05612886
1516.04259521,0.04940242
1517.97140259,0.05163924
1519.90020996,0.05014284
1521.82901733,0.04184061
1523.75782471,0.05326013
1525.68663208,0.05209990
1527.61543945,0.05146027
1529.54424683,0.05876140
1531.47305420,0.05587435
1533.40186157,0.05007683
1535.33066895,0.05385483
1537.25947632,0.05855334
1539.18828369,0.03935697
1541.11709106,0.04104833
1543.04589844,0.05114403
1544.97470581,0.04866185
1546.90351318,0.05999066
1548.83232056,0.05541543
1550.76112793,0.05706947
1552.68993530,0.05709103
1554.61874268,0.05073725
1556.54755005,0.05518117
1558.47635742,0.03622606
1560.40516479,0.03954381
1562.33397217,0.06069776
1564.26277954,0.05682736
1566.19158691,0.05881409
1568.12039429,0.05809063
1570.04920166,0.05009653
1571.97800903,0.05953062
1573.90681641,0.06057066
1575.83562378,0.04607821
1577.76443115,0.05322013
1579.69323853,0.06148639
1581.62204590,0.05866368
1583.55085327,0.06033478
1585.47966064,0.05930237
1587.40846802,0.05980472
1589.33727539,0.05919659
1591.26608276,0.05945805
1593.19489014,0.05959959
1595.12369751,0.05880250
1597.05250488,0.05975851
1598.98131226,0.05917087
1600.91011963,0.05975211
1602.83892700,0.05849840
1604.76773437,0.05978826
1606.69654175,0.05879020
1608.62534912,0.05843189
1610.55415649,0.05864398
1612.48296387,0.05887946
1614.41177124,0.06000486
1616.34057861,0.04758811
1618.26938599,0.05189819
1620.19819336,0.06215050
1622.12700073,0.05386371
1624.05580811,0.05408493
1625.98461548,0.05757343
1627.91342285,0.05710004
1629.84223022,0.05686241
1631.77103760,0.06150216
1633.69984497,0.05600844
1635.62865234,0.04422913
1637.55745972,0.05291304
1639.48626709,0.05960752
1641.41507446,0.05787283
1643.34388184,0.05996402
1645.27268921,0.05307197
1647.20149658,0.04482986
1649.13030396,0.05827970
1651.05911133,0.05537076
1652.98791870,0.03236877
1654.91672607,0.04675435
1656.84553345,0.06122406
1658.77434082,0.05835764
1660.70314819,0.06048147
1662.63195557,0.05382256
1664.56076294,0.05720686
1666.48957031,0.06284752
1668.41837769,0.05300161
1670.34718506,0.05094866
1672.27599243,0.05980344
1674.20479980,0.05436854
1676.13360718,0.05165312
1678.06241455,0.06112681
1679.99122192,0.05852094
1681.92002930,0.05756509
1683.84883667,0.04534442
1685.77764404,0.04475395
1687.70645142,0.06457449
1689.63525879,0.05495621
1691.56406616,0.06140962
1693.49287354,0.06309077
1695.42168091,0.04348887
1697.35048828,0.05580157
1699.27929565,0.04784560
1701.20810303,0.04181324
1703.13691040,0.06096973
1705.06571777,0.05496428
1706.99452515,0.05557438
1708.92333252,0.06154490
1710.85213989,0.05871580
1712.78094727,0.06010363
1714.70975464,0.05480806
1716.63856201,0.04836094
1718.56736938,0.04732283
1720.49617676,0.05802087
1722.42498413,0.06111237
1724.35379150,0.05566887
1726.28259888,0.06186591
1728.21140625,0.05644318
1730.14021362,0.05657861
1732.06902100,0.05539022
1733.99782837,0.03983817
1735.92663574,0.05186176
1737.85544312,0.05852438
1739.78425049,0.05086596
1741.71305786,0.05609313
1743.64186523,0.05685899
1745.57067261,0.05697132
1747.49947998,0.05732078
1749.42828735,0.05438045
1751.35709473,0.05151502
1753.28590210,0.05827650
1755.21470947,0.06164684
1757.14351685,0.05511840
1759.07232422,0.06180092
1761.00113159,0.05730852
1762.92993896,0.05499744
1764.85874634,0.06476042
1766.78755371,0.05685987
1768.71636108,0.05740405
1770.64516846,0.05708212
1772.57397583,0.05011002
1774.50278320,0.05718448
1776.43159058,0.06131905
1778.36039795,0.06037091
1780.28920532,0.05923700
1782.21801270,0.05996484
1784.14682007,0.05991648
1786.07562744,0.05852062
1788.00443481,0.06231367
1789.93324219,0.06028714
1791.86204956,0.05315370
1793.79085693,0.05596254
1795.71966431,0.06105056
1797.64847168,0.06016869
1799.57727905,0.05905681
1801.50608643,0.05772821
1803.43489380,0.06021751
1805.36370117,0.06182235
1807.29250854,0.06079293
1809.22131592,0.06106965
1811.15012329,0.05893879
1813.07893066,0.06143232
1815.00773804,0.06166168
1816.93654541,0.06066179
1818.86535278,0.06142395
1820.79416016,0.06105912
1822.72296753,0.06235730
1824.65177490,0.05735179
1826.58058228,0.05982435
1828.50938965,0.05998631
1830.43819702,0.05532251
1832.36700439,0.06156475
1834.29581177,0.06104111
1836.22461914,0.06091281
1838.15342651,0.06071565
1840.08223389,0.06112428
1842.01104126,0.06139584
1843.93984863,0.05305627
1845.86865601,0.05737635
1847.79746338,0.06126356
1849.72627075,0.05965429
1851.65507812,0.06201916
1853.58388550,0.06054300
1855.51269287,0.06120856
1857.44150024,0.06081334
1859.37030762,0.06024315
1861.29911499,0.06080323
1863.22792236,0.06005665
1865.15672974,0.06088496
1867.08553711,0.05848465
1869.01434448,0.05527839
1870.94315186,0.05802496
1872.87195923,0.06098458
1874.80076660,0.05980253
1876.72957397,0.06030821
1878.65838135,0.06005808
1880.58718872,0.05952592
1882.51599609,0.06021183
1884.44480347,0.05909382
1886.37361084,0.06016565
1888.30241821,0.05852091
1890.23122559,0.05718876
1892.16003296,0.05993802
1894.08884033,0.05882302
1896.01764771,0.05847786
1897.94645508,0.05941258
1899.87526245,0.05900776
1901.80406982,0.05921314
1903.73287720,0.05875852
1905.66168457,0.05912884
1907.59049194,0.05854010
1909.51929932,0.05791958
1911.44810669,0.05848081
1913.37691406,0.05860840
1915.30572144,0.05922054
1917.23452881,0.05618387
1919.16333618,0.05614619
1921.09214355,0.05892488
1923.02095093,0.05654425
1924.94975830,0.05795111
1926.87856567,0.05888459
1928.80737305,0.05782687
1930.73618042,0.05871708
1932.66498779,0.05776287
1934.59379517,0.05852294
1936.52260254,0.05794652
1938.45140991,0.05823211
1940.38021729,0.05842752
1942.30902466,0.05591938
1944.23783203,0.05718329
1946.16663940,0.05792330
1948.09544678,0.05789617
1950.02425415,0.05819101
1951.95306152,0.05783483
1953.88186890,0.05794861
1955.81067627,0.05756431
1957.73948364,0.05789606
1959.66829102,0.05777375
1961.59709839,0.05759382
1963.52590576,0.05788217
1965.45471313,0.05744847
1967.38352051,0.05673903
1969.31232788,0.05728345
1971.24113525,0.05784833
1973.16994263,0.05733800
1975.09875000,0.05758505
1977.02755737,0.05725760
1978.95636475,0.05744482
1980.88517212,0.05755153
1982.81397949,0.05704670
1984.74278687,0.05732264
1986.67159424,0.05679290
1988.60040161,0.05688509
1990.52920898,0.05628476
1992.45801636,0.05556408
1994.38682373,0.05661301
1996.31563110,0.05673287
1998.24443848,0.05639504
2000.17324585,0.05648992
2002.10205322,0.05644789
2004.03086060,0.05636816
2005.95966797,0.05629308
2007.88847534,0.05607375
2009.81728271,0.05607645
2011.74609009,0.05595387
2013.67489746,0.05583745
2015.60370483,0.05561608
2017.53251221,0.05502416
2019.46131958,0.05541371
2021.39012695,0.05548415
2023.31893433,0.05524221
2025.24774170,0.05527303
2027.17654907,0.05495552
2029.10535645,0.05497634
2031.03416382,0.05482514
2032.96297119,0.05476910
2034.89177856,0.05474208
2036.82058594,0.05462268
2038.74939331,0.05451352
2040.67820068,0.05416735
2042.60700806,0.05422141
2044.53581543,0.05421095
2046.46462280,0.05403239
2048.39343018,0.05400459
2050.32223755,0.05381416
2052.25104492,0.05366507
2054.17985229,0.05365635
2056.10865967,0.05359791
2058.03746704,0.05352319
2059.96627441,0.05325017
2061.89508179,0.05319931
2063.82388916,0.05298911
2065.75269653,0.05265327
2067.68150391,0.05308161
2069.61031128,0.05290871
2071.53911865,0.05279286
2073.46792603,0.05287036
2075.39673340,0.05255318
2077.32554077,0.05269938
2079.25434814,0.05249756
2081.18315552,0.05238950
2083.11196289,0.05221806
2085.04077026,0.05213746
2086.96957764,0.05222031
2088.89838501,0.05203383
2090.82719238,0.05201101
2092.75599976,0.05158500
2094.68480713,0.05168961
2096.61361450,0.05178078
2098.54242187,0.05154403
2100.47122925,0.05159302
2102.40003662,0.05145712
2104.32884399,0.05141297
2106.25765137,0.05125534
2108.18645874,0.05127090
2110.11526611,0.05116074
2112.04407349,0.05113789
2113.97288086,0.05112147
2115.90168823,0.05084762
2117.83049561,0.05090276
2119.75930298,0.05080266
2121.68811035,0.05082158
2123.61691772,0.05074985
2125.54572510,0.05063254
2127.47453247,0.05056500
2129.40333984,0.05052230
2131.33214722,0.05053785
2133.26095459,0.05030777
2135.18976196,0.05039708
2137.11856934,0.05028201
2139.04737671,0.05013158
2140.97618408,0.05008874
2142.90499146,0.05005093
2144.83379883,0.05008475
2146.76260620,0.04985581
2148.69141357,0.04994841
2150.62022095,0.04990518
2152.54902832,0.04977981
2154.47783569,0.04978114
2156.40664307,0.04968133
2158.33545044,0.04961087
2160.26425781,0.04954960
2162.19306519,0.04965046
2164.12187256,0.04959917
2166.05067993,0.04945970
2167.97948730,0.04933489
2169.90829468,0.04931550
2171.83710205,0.04927153
2173.76590942,0.04925197
2175.69471680,0.04923832
2177.62352417,0.04906185
2179.55233154,0.04912465
2181.48113892,0.04906069
2183.40994629,0.04892312
2185.33875366,0.04880822
2187.26756104,0.04885424
2189.19636841,0.04884761
2191.12517578,0.04869910
2193.05398315,0.04880442
2194.98279053,0.04868097
2196.91159790,0.04881728
2198.84040527,0.04873417
2200.76921265,0.04838739
2202.69802002,0.04840641
2204.62682739,0.04836063
2206.55563477,0.04847964
2208.48444214,0.04837845
2210.41324951,0.04821403
2212.34205688,0.04819820
2214.27086426,0.04816174
2216.19967163,0.04810449
2218.12847900,0.04800131
2220.05728638,0.04790731
2221.98609375,0.04781293
2223.91490112,0.04790431
2225.84370850,0.04773981
2227.77251587,0.04768765
2229.70132324,0.04766195
2231.63013062,0.04751328
2233.55893799,0.04756496
2235.48774536,0.04746120
2237.41655273,0.04750732
2239.34536011,0.04738052
2241.27416748,0.04731406
2243.20297485,0.04725124
2245.13178223,0.04708319
2247.06058960,0.04715192
2248.98939697,0.04686806
2250.91820435,0.04696151
2252.84701172,0.04707924
2254.77581909,0.04673725
2256.70462646,0.04669442
2258.63343384,0.04664133
2260.56224121,0.04659180
2262.49104858,0.04655132
2264.41985596,0.04642588
2266.34866333,0.04643662
2268.27747070,0.04639362
2270.20627808,0.04640732
2272.13508545,0.04647686
2274.06389282,0.04629193
2275.99270020,0.04624897
2277.92150757,0.04624517
2279.85031494,0.04614665
2281.77912231,0.04613186
2283.70792969,0.04606617
2285.63673706,0.04597586
2287.56554443,0.04572789
2289.49435181,0.04574732
2291.42315918,0.04568676
2293.35196655,0.04548463
2295.28077393,0.04556035
2297.20958130,0.04533356
2299.13838867,0.04519610
2301.06719604,0.04509325
2302.99600342,0.04484381
2304.92481079,0.04464154
2306.85361816,0.04437342
2308.78242554,0.04406103
2310.71123291,0.04377431
2312.64004028,0.04347574
2314.56884766,0.04296799
2316.49765503,0.04257699
2318.42646240,0.04197652
2320.35526978,0.04147786
2322.28407715,0.04109705
2324.21288452,0.04045071
2326.14169189,0.04012752
2328.07049927,0.03964210
2329.99930664,0.03916784
2331.92811401,0.03885092
2333.85692139,0.03871415
2335.78572876,0.03859918
2337.71453613,0.03837499
2339.64334351,0.03852192
2341.57215088,0.03869424
2343.50095825,0.03919518
2345.42976562,0.03983379
2347.35857300,0.04135890
2349.28738037,0.04262558
2351.21618774,0.04120044
2353.14499512,0.03930694
2355.07380249,0.03797640
2357.00260986,0.03684151
2358.93141724,0.03620042
2360.86022461,0.03582476
2362.78903198,0.03576558
2364.71783936,0.03596407
2366.64664673,0.03646229
2368.57545410,0.03707100
2370.50426147,0.03786144
2372.43306885,0.03884652
2374.36187622,0.03997814
2376.29068359,0.04098924
2378.21949097,0.04171294
2380.14829834,0.04234584
2382.07710571,0.04278563
2384.00591309,0.04307259
2385.93472046,0.04318682
2387.86352783,0.04319903
2389.79233521,0.04309266
2391.72114258,0.04321013
2393.64994995,0.04319824
2395.57875732,0.04297602
2397.50756470,0.04303929
2399.43637207,0.04287309
2401.36517944,0.04283926
2403.29398682,0.04276184
2405.22279419,0.04268146
2407.15160156,0.04273039
2409.08040894,0.04260678
2411.00921631,0.04267330
2412.93802368,0.04255387
2414.86683105,0.04254987
2416.79563843,0.04249758
2418.72444580,0.04234433
2420.65325317,0.04237650
2422.58206055,0.04226546
2424.51086792,0.04231093
2426.43967529,0.04226176
2428.36848267,0.04210420
2430.29729004,0.04197451
2432.22609741,0.04189043
2434.15490479,0.04192569
2436.08371216,0.04199203
2438.01251953,0.04194106
2439.94132690,0.04177930
2441.87013428,0.04180583
2443.79894165,0.04178346
2445.72774902,0.04172242
2447.65655640,0.04162600
2449.58536377,0.04156090
2451.51417114,0.04152850
2453.44297852,0.04146479
2455.37178589,0.04141054
2457.30059326,0.04141019
2459.22940063,0.04148971
2461.15820801,0.04120461
2463.08701538,0.04122706
2465.01582275,0.04120132
2466.94463013,0.04097150
2468.87343750,0.04114990
2470.80224487,0.04106580
2472.73105225,0.04107038
2474.65985962,0.04093204
2476.58866699,0.04080614
2478.51747437,0.04090091
2480.44628174,0.04086911
2482.37508911,0.04080946
2484.30389648,0.04064152
2486.23270386,0.04069374
2488.16151123,0.04048887
2490.09031860,0.04045855
2492.01912598,0.04052211
2493.94793335,0.04035924
2495.87674072,0.04041816
2497.80554810,0.04034445
2499.73435547,0.04030883
2501.66316284,0.04011152
2503.59197021,0.04021753
2505.52077759,0.04018969
2507.44958496,0.03992419
2509.37839233,0.04011802
2511.30719971,0.04000854
2513.23600708,0.03999049
2515.16481445,0.03994018
2517.09362183,0.03984766
2519.02242920,0.03982697
2520.95123657,0.03976769
2522.88004395,0.03982874
2524.80885132,0.03969321
2526.73765869,0.03967834
2528.66646606,0.03960011
2530.59527344,0.03956299
2532.52408081,0.03948273
2534.45288818,0.03947074
2536.38169556,0.03952108
2538.31050293,0.03930502
2540.23931030,0.03933629
2542.16811768,0.03919198
2544.09692505,0.03915857
2546.02573242,0.03915228
2547.95453979,0.03898469
2549.88334717,0.03906842
2551.81215454,0.03902547
2553.74096191,0.03892373
2555.66976929,0.03882264
2557.59857666,0.03888671
2559.52738403,0.03875939
2561.45619141,0.03863618
2563.38499878,0.03867050
2565.31380615,0.03862531
2567.24261353,0.03876064
2569.17142090,0.03855046
2571.10022827,0.03847057
2573.02903564,0.03854440
2574.95784302,0.03841677
2576.88665039,0.03838164
2578.81545776,0.03835643
2580.74426514,0.03837989
2582.67307251,0.03819202
2584.60187988,0.03814309
2586.53068726,0.03814737
2588.45949463,0.03793423
2590.38830200,0.03800618
2592.31710937,0.03812451
2594.24591675,0.03790959
2596.17472412,0.03778144
2598.10353149,0.03785959
2600.03233887,0.03772842
2601.96114624,0.03766384
2603.88995361,0.03763607
2605.81876099,0.03759102
2607.74756836,0.03761849
2609.67637573,0.03758388
2611.60518311,0.03755687
2613.53399048,0.03739268
2615.46279785,0.03734665
2617.39160522,0.03728194
2619.32041260,0.03722460
2621.24921997,0.03726942
2623.17802734,0.03713036
2625.10683472,0.03716557
2627.03564209,0.03715768
2628.96444946,0.03706792
2630.89325684,0.03705336
2632.82206421,0.03689709
2634.75087158,0.03679870
2636.67967895,0.03680644
2638.60848633,0.03684526
2640.53729370,0.03677668
2642.46610107,0.03665022
2644.39490845,0.03679423
2646.32371582,0.03679656
2648.25252319,0.03657152
2650.18133057,0.03660341
2652.11013794,0.03648304
2654.03894531,0.03638703
2655.96775269,0.03638314
2657.89656006,0.03619744
2659.82536743,0.03622973
2661.75417480,0.03621330
2663.68298218,0.03621784
2665.61178955,0.03617682
2667.54059692,0.03600749
2669.46940430,0.03600212
2671.39821167,0.03605988
2673.32701904,0.03604584
2675.25582642,0.03578523
2677.18463379,0.03583908
2679.11344116,0.03589591
2681.04224854,0.03577482
2682.97105591,0.03586733
2684.89986328,0.03573506
2686.82867065,0.03563494
2688.75747803,0.03547790
2690.68628540,0.03536300
2692.61509277,0.03543219
2694.54390015,0.03538242
2696.47270752,0.03534272
2698.40151489,0.03527300
2700.33032227,0.03529105
2702.25912964,0.03522260
2704.18793701,0.03512007
2706.11674438,0.03511560
2708.04555176,0.03501930
2709.97435913,0.03495991
2711.90316650,0.03495445
2713.83197388,0.03490442
2715.76078125,0.03479877
2717.68958862,0.03470128
2719.61839600,0.03465889
2721.54720337,0.03469688
2723.47601074,0.03457432
2725.40481812,0.03455139
2727.33362549,0.03459902
2729.26243286,0.03441039
2731.19124023,0.03445540
2733.12004761,0.03437097
2735.04885498,0.03428267
2736.97766235,0.03439356
2738.90646973,0.03424595
2740.83527710,0.03422339
2742.76408447,0.03420288
2744.69289185,0.03399997
2746.62169922,0.03400410
2748.55050659,0.03405423
2750.47931396,0.03386413
2752.40812134,0.03385091
2754.33692871,0.03391279
2756.26573608,0.03376153
2758.19454346,0.03372366
2760.12335083,0.03368724
2762.05215820,0.03367725
2763.98096558,0.03367573
2765.90977295,0.03356925
2767.83858032,0.03342454
2769.76738770,0.03335794
2771.69619507,0.03336201
2773.62500244,0.03329641
2775.55380981,0.03332923
2777.48261719,0.03323928
2779.41142456,0.03307682
2781.34023193,0.03300004
2783.26903931,0.03296487
2785.19784668,0.03295934
2787.12665405,0.03284178
2789.05546143,0.03281655
2790.98426880,0.03284888
2792.91307617,0.03289309
2794.84188354,0.03271211
2796.77069092,0.03246373
2798.69949829,0.03244157
2800.62830566,0.03240021
2802.55711304,0.03241689
2804.48592041,0.03226483
2806.41472778,0.03224079
2808.34353516,0.03229193
2810.27234253,0.03209419
2812.20114990,0.03210426
2814.12995728,0.03206954
2816.05876465,0.03190425
2817.98757202,0.03182781
2819.91637939,0.03184409
2821.84518677,0.03176532
2823.77399414,0.03163567
2825.70280151,0.03168382
2827.63160889,0.03159394
2829.56041626,0.03140960
2831.48922363,0.03134378
2833.41803101,0.03127194
2835.34683838,0.03127341
2837.27564575,0.03134077
2839.20445312,0.03105621
2841.13326050,0.03084142
2843.06206787,0.03082297
2844.99087524,0.03053888
2846.91968262,0.03041587
2848.84848999,0.03013581
2850.77729736,0.02997519
2852.70610474,0.03023774
2854.63491211,0.03027222
2856.56371948,0.03034250
2858.49252686,0.03029540
2860.42133423,0.03026148
2862.35014160,0.03029099
2864.27894897,0.03019865
2866.20775635,0.03022789
2868.13656372,0.03007505
2870.06537109,0.03006644
2871.99417847,0.03006557
2873.92298584,0.02992271
2875.85179321,0.02997442
2877.78060059,0.02984946
2879.70940796,0.02979936
2881.63821533,0.02971550
2883.56702270,0.02962540
2885.49583008,0.02976289
2887.42463745,0.02956402
2889.35344482,0.02946644
2891.28225220,0.02946248
2893.21105957,0.02929485
2895.13986694,0.02920505
2897.06867432,0.02900833
2898.99748169,0.02904965
2900.92628906,0.02905088
2902.85509644,0.02896639
2904.78390381,0.02898589
2906.71271118,0.02883044
2908.64151855,0.02884279
2910.57032593,0.02865122
2912.49913330,0.02841511
2914.42794067,0.02833033
2916.35674805,0.02812879
2918.28555542,0.02818469
2920.21436279,0.02818874
2922.14317017,0.02817323
2924.07197754,0.02821018
2926.00078491,0.02825142
2927.92959229,0.02831358
2929.85839966,0.02820584
2931.78720703,0.02820352
2933.71601440,0.02824931
2935.64482178,0.02837408
2937.57362915,0.02837364
2939.50243652,0.02827446
2941.43124390,0.02835075
2943.36005127,0.02826570
2945.28885864,0.02824318
2947.21766602,0.02824807
2949.14647339,0.02819612
2951.07528076,0.02815234
2953.00408813,0.02795440
2954.93289551,0.02789538
2956.86170288,0.02791011
2958.79051025,0.02780689
2960.71931763,0.02776652
2962.64812500,0.02779983
2964.57693237,0.02771173
2966.50573975,0.02761385
2968.43454712,0.02765503
2970.36335449,0.02766793
2972.29216187,0.02768663
2974.22096924,0.02774898
2976.14977661,0.02774981
2978.07858398,0.02769947
2980.00739136,0.02768311
2981.93619873,0.02768539
2983.86500610,0.02769406
2985.79381348,0.02770635
2987.72262085,0.02762335
2989.65142822,0.02755736
2991.58023560,0.02753895
2993.50904297,0.02743993
2995.43785034,0.02741218
2997.36665771,0.02745173
2999.29546509,0.02736843
3001.22427246,0.02733243
3003.15307983,0.02733963
3005.08188721,0.02720066
3007.01069458,0.02712897
3008.93950195,0.02714140
3010.86830933,0.02701055
3012.79711670,0.02695244
3014.72592407,0.02699344
3016.65473145,0.02683595
3018.58353882,0.02679122
3020.51234619,0.02685007
3022.44115356,0.02674873
3024.36996094,0.02669773
3026.29876831,0.02657229
3028.22757568,0.02650158
3030.15638306,0.02654776
3032.08519043,0.02641866
3034.01399780,0.02627366
3035.94280518,0.02630465
3037.87161255,0.02634799
3039.80041992,0.02617768
3041.72922729,0.02616663
3043.65803467,0.02627642
3045.58684204,0.02608737
3047.51564941,0.02596698
3049.44445679,0.02594391
3051.37326416,0.02586081
3053.30207153,0.02589162
3055.23087891,0.02580759
3057.15968628,0.02566661
3059.08849365,0.02566549
3061.01730103,0.02557932
3062.94610840,0.02562353
3064.87491577,0.02556915
3066.80372314,0.02535564
3068.73253052,0.02552044
3070.66133789,0.02550716
3072.59014526,0.02534388
3074.51895264,0.02532547
3076.44776001,0.02525134
3078.37656738,0.02525755
3080.30537476,0.02514990
3082.23418213,0.02508123
3084.16298950,0.02506656
3086.09179687,0.02497748
3088.02060425,0.02496018
3089.94941162,0.02490637
3091.87821899,0.02486957
3093.80702637,0.02481200
3095.73583374,0.02468327
3097.66464111,0.02464182
3099.59344849,0.02466110
3101.52225586,0.02456217
3103.45106323,0.02458924
3105.37987061,0.02465580
3107.30867798,0.02443668
3109.23748535,0.02439632
3111.16629272,0.02442539
3113.09510010,0.02424327
3115.02390747,0.02417112
3116.95271484,0.02414089
3118.88152222,0.02410723
3120.81032959,0.02407996
3122.73913696,0.02393865
3124.66794434,0.02393940
3126.59675171,0.02391123
3128.52555908,0.02383586
3130.45436645,0.02394917
3132.38317383,0.02367347
3134.31198120,0.02349681
3136.24078857,0.02358758
3138.16959595,0.02344589
3140.09840332,0.02345227
3142.02721069,0.02338071
3143.95601807,0.02332743
3145.88482544,0.02329903
3147.81363281,0.02325774
3149.74244019,0.02319093
3151.67124756,0.02302967
3153.60005493,0.02314067
3155.52886230,0.02301267
3157.45766968,0.02291940
3159.38647705,0.02287310
3161.31528442,0.02270967
3163.24409180,0.02277936
3165.17289917,0.02262124
3167.10170654,0.02259299
3169.03051392,0.02256950
3170.95932129,0.02239370
3172.88812866,0.02245547
3174.81693604,0.02244171
3176.74574341,0.02219359
3178.67455078,0.02210981
3180.60335815,0.02224553
3182.53216553,0.02207879
3184.46097290,0.02197178
3186.38978027,0.02200457
3188.31858765,0.02206936
3190.24739502,0.02204248
3192.17620239,0.02188818
3194.10500977,0.02190362
3196.03381714,0.02163320
3197.96262451,0.02161548
3199.89143188,0.02165715
3201.82023926,0.02143936
3203.74904663,0.02156298
3205.67785400,0.02161259
3207.60666138,0.02155595
3209.53546875,0.02143620
3211.46427612,0.02135400
3213.39308350,0.02127438
3215.32189087,0.02126388
3217.25069824,0.02128634
3219.17950562,0.02112455
3221.10831299,0.02115305
3223.03712036,0.02111040
3224.96592773,0.02103800
3226.89473511,0.02104068
3228.82354248,0.02102353
3230.75234985,0.02095478
3232.68115723,0.02092548
3234.60996460,0.02097755
3236.53877197,0.02082682
3238.46757935,0.02076544
3240.39638672,0.02074742
3242.32519409,0.02082074
3244.25400146,0.02074874
3246.18280884,0.02068476
3248.11161621,0.02074991
3250.04042358,0.02057936
3251.96923096,0.02068838
3253.89803833,0.02051366
3255.82684570,0.02050430
3257.75565308,0.02068214
3259.68446045,0.02044528
3261.61326782,0.02047338
3263.54207520,0.02034518
3265.47088257,0.02041513
3267.39968994,0.02051178
3269.32849731,0.02035583
3271.25730469,0.02033003
3273.18611206,0.02026605
3275.11491943,0.02028829
3277.04372681,0.02018305
3278.97253418,0.02021072
3280.90134155,0.02022788
3282.83014893,0.02018658
3284.75895630,0.02025385
3286.68776367,0.02020401
3288.61657104,0.02009375
3290.54537842,0.02000711
3292.47418579,0.02013790
3294.40299316,0.02012216
3296.33180054,0.02010569
3298.26060791,0.02006360
3300.18941528,0.01994150
3302.11822266,0.01996757
3304.04703003,0.01991462
3305.97583740,0.01994808
3307.90464478,0.01989553
3309.83345215,0.01983554
3311.76225952,0.01980338
3313.69106689,0.01993397
3315.61987427,0.01993452
3317.54868164,0.01969835
3319.47748901,0.01980861
3321.40629639,0.01969562
3323.33510376,0.01965318
3325.26391113,0.01961567
3327.19271851,0.01954588
3329.12152588,0.01969755
3331.05033325,0.01950061
3332.97914062,0.01950026
3334.90794800,0.01951855
3336.83675537,0.01942744
3338.76556274,0.01947097
3340.69437012,0.01942087
3342.62317749,0.01942680
3344.55198486,0.01943725
3346.48079224,0.01937786
3348.40959961,0.01930061
3350.33840698,0.01922614
3352.26721436,0.01911490
3354.19602173,0.01921169
3356.12482910,0.01923262
3358.05363647,0.01915531
3359.98244385,0.01912663
3361.91125122,0.01894773
3363.84005859,0.01900396
3365.76886597,0.01899823
3367.69767334,0.01896785
3369.62648071,0.01901358
3371.55528809,0.01893418
3373.48409546,0.01891203
3375.41290283,0.01890202
3377.34171020,0.01889370
3379.27051758,0.01874411
3381.19932495,0.01868477
3383.12813232,0.01869871
3385.05693970,0.01864432
3386.98574707,0.01858335
3388.91455444,0.01855810
3390.84336182,0.01851733
3392.77216919,0.01838463
3394.70097656,0.01844112
3396.62978394,0.01842435
3398.55859131,0.01841927
3400.48739868,0.01844281
3402.41620605,0.01839752
3404.34501343,0.01836630
3406.27382080,0.01829595
3408.20262817,0.01833355
3410.13143555,0.01824977
3412.06024292,0.01825445
3413.98905029,0.01818708
3415.91785767,0.01815864
3417.84666504,0.01816819
3419.77547241,0.01796614
3421.70427979,0.01797769
3423.63308716,0.01794527
3425.56189453,0.01802462
3427.49070190,0.01792019
3429.41950928,0.01782669
3431.34831665,0.01787159
3433.27712402,0.01772410
3435.20593140,0.01782338
3437.13473877,0.01775271
3439.06354614,0.01779475
3440.99235352,0.01765412
3442.92116089,0.01751443
3444.84996826,0.01764510
3446.77877563,0.01732793
3448.70758301,0.01741412
3450.63639038,0.01761625
3452.56519775,0.01754324
3454.49400513,0.01753544
3456.42281250,0.01752248
3458.35161987,0.01747805
3460.28042725,0.01743868
3462.20923462,0.01744063
3464.13804199,0.01738634
3466.06684937,0.01741404
3467.99565674,0.01730920
3469.92446411,0.01734564
3471.85327148,0.01741096
3473.78207886,0.01732338
3475.71088623,0.01723950
3477.63969360,0.01725696
3479.56850098,0.01729724
3481.49730835,0.01692759
3483.42611572,0.01710663
3485.35492310,0.01723938
3487.28373047,0.01706537
3489.21253784,0.01722140
3491.14134521,0.01708906
3493.07015259,0.01718029
3494.99895996,0.01718202
3496.92776733,0.01703120
3498.85657471,0.01706865
3500.78538208,0.01707476
3502.71418945,0.01674124
3504.64299683,0.01667055
3506.57180420,0.01720534
3508.50061157,0.01686949
3510.42941895,0.01669952
3512.35822632,0.01702700
3514.28703369,0.01707741
3516.21584106,0.01712390
3518.14464844,0.01694675
3520.07345581,0.01701736
3522.00226318,0.01679964
3523.93107056,0.01655009
3525.85987793,0.01668583
3527.78868530,0.01662232
3529.71749268,0.01669184
3531.64630005,0.01681951
3533.57510742,0.01690901
3535.50391479,0.01683689
3537.43272217,0.01670243
3539.36152954,0.01696757
3541.29033691,0.01704679
3543.21914429,0.01668435
3545.14795166,0.01628259
3547.07675903,0.01602763
3549.00556641,0.01663572
3550.93437378,0.01674153
3552.86318115,0.01621092
3554.79198853,0.01676449
3556.72079590,0.01681983
3558.64960327,0.01666102
3560.57841064,0.01657047
3562.50721802,0.01643192
3564.43602539,0.01663826
3566.36483276,0.01525894
3568.29364014,0.01467138
3570.22244751,0.01628622
3572.15125488,0.01689621
3574.08006226,0.01652591
3576.00886963,0.01663863
3577.93767700,0.01658933
3579.86648437,0.01644112
3581.79529175,0.01657447
3583.72409912,0.01669168
3585.65290649,0.01616666
3587.58171387,0.01463187
3589.51052124,0.01510425
3591.43932861,0.01659695
3593.36813599,0.01615125
3595.29694336,0.01576522
3597.22575073,0.01610218
3599.15455811,0.01635662
3601.08336548,0.01612587
3603.01217285,0.01630799
3604.94098022,0.01657731
3606.86978760,0.01590872
3608.79859497,0.01483768
3610.72740234,0.01520088
3612.65620972,0.01565413
3614.58501709,0.01506183
3616.51382446,0.01642682
3618.44263184,0.01501696
3620.37143921,0.01436137
3622.30024658,0.01664323
3624.22905395,0.01608612
3626.15786133,0.01690422
3628.08666870,0.01394716
3630.01547607,0.01234850
3631.94428345,0.01622632
3633.87309082,0.01589548
3635.80189819,0.01618101
3637.73070557,0.01661076
3639.65951294,0.01630669
3641.58832031,0.01637557
3643.51712769,0.01629579
3645.44593506,0.01635494
3647.37474243,0.01433111
3649.30354980,0.01301887
3651.23235718,0.01304969
3653.16116455,0.01612422
3655.08997192,0.01597059
3657.01877930,0.01394923
3658.94758667,0.01648279
3660.87639404,0.01608684
3662.80520142,0.01643555
3664.73400879,0.01635518
3666.66281616,0.01606780
3668.59162354,0.01558155
3670.52043091,0.01228619
3672.44923828,0.01532821
3674.37804565,0.01444368
3676.30685303,0.01154143
3678.23566040,0.01521581
3680.16446777,0.01558801
3682.09327515,0.01557979
3684.02208252,0.01623242
3685.95088989,0.01592968
3687.87969727,0.01410913
3689.80850464,0.01275593
3691.73731201,0.01480812
3693.66611938,0.01537158
3695.59492676,0.01578863
3697.52373413,0.01580067
3699.45254150,0.01568900
3701.38134888,0.01512697
3703.31015625,0.01439606
3705.23896362,0.01615735
3707.16777100,0.01525865
3709.09657837,0.01476762
3711.02538574,0.01374903
3712.95419312,0.01273781
3714.88300049,0.01545903
3716.81180786,0.01521735
3718.74061523,0.01531938
3720.66942261,0.01490389
3722.59822998,0.01422949
3724.52703735,0.01492041
3726.45584473,0.01365457
3728.38465210,0.01507126
3730.31345947,0.01488298
3732.24226685,0.01339972
3734.17107422,0.01306369
3736.09988159,0.01219033
3738.02868896,0.01320074
3739.95749634,0.01455597
3741.88630371,0.01516783
3743.81511108,0.01135429
3745.74391846,0.01060266
3747.67272583,0.01439755
3749.60153320,0.01208813
3751.53034058,0.01091869
3753.45914795,0.01296619
3755.38795532,0.01419492
3757.31676270,0.01469844
3759.24557007,0.01338401
3761.17437744,0.01404232
3763.10318481,0.01504932
3765.03199219,0.01390182
3766.96079956,0.01428007
3768.88960693,0.01412171
3770.81841431,0.01328366
3772.74722168,0.01462499
3774.67602905,0.01475430
3776.60483643,0.01468012
3778.53364380,0.01426587
3780.46245117,0.01355480
3782.39125854,0.01460748
3784.32006592,0.01423633
3786.24887329,0.01411698
3788.17768066,0.01454644
3790.10648804,0.01443097
3792.03529541,0.01439637
3793.96410278,0.01458105
3795.89291016,0.01351570
3797.82171753,0.01330747
3799.75052490,0.01418221
3801.67933228,0.01088933
3803.60813965,0.01296841
3805.53694702,0.01434283
3807.46575439,0.01134516
3809.39456177,0.01419194
3811.32336914,0.01390906
3813.25217651,0.01438944
3815.18098389,0.01283505
3817.10979126,0.01103887
3819.03859863,0.01451017
3820.96740601,0.01119703
3822.89621338,0.01193169
3824.82502075,0.01435592
3826.75382812,0.01268442
3828.68263550,0.01394664
3830.61144287,0.01326803
3832.54025024,0.01273385
3834.46905762,0.01305891
3836.39786499,0.01231497
3838.32667236,0.01098010
3840.25547974,0.01199337
3842.18428711,0.01317876
3844.11309448,0.01247393
3846.04190186,0.01363006
3847.97070923,0.01335596
3849.89951660,0.01329841
3851.82832397,0.01186233
3853.75713135,0.00854004
3855.68593872,0.01042550
3857.61474609,0.01342469
3859.54355347,0.01304388
3861.47236084,0.01282797
3863.40116821,0.01245944
3865.32997559,0.01147602
3867.25878296,0.01312648
3869.18759033,0.01181365
3871.11639770,0.01076000
3873.04520508,0.01317221
3874.97401245,0.01187323
3876.90281982,0.01305378
3878.83162720,0.01329704
3880.76043457,0.01104029
3882.68924194,0.01312169
3884.61804932,0.01214845
3886.54685669,0.01096388
3888.47566406,0.01310662
3890.40447144,0.01232338
3892.33327881,0.01144874
3894.26208618,0.01282819
3896.19089355,0.01305445
3898.11970093,0.01217870
3900.04850830,0.01148907
3901.97731567,0.01134207
3903.90612305,0.01127372
3905.83493042,0.01146329
3907.76373779,0.01276457
3909.69254517,0.01279040
3911.62135254,0.01248928
3913.55015991,0.01288318
3915.47896728,0.01233702
3917.40777466,0.01190326
3919.33658203,0.01187274
3921.26538940,0.01238614
3923.19419678,0.01234620
3925.12300415,0.01192560
3927.05181152,0.01231893
3928.98061890,0.01250033
3930.90942627,0.01206348
3932.83823364,0.01161355
3934.76704102,0.01213839
3936.69584839,0.01235954
3938.62465576,0.01224905
3940.55346313,0.01235797
3942.48227051,0.01186491
3944.41107788,0.01190664
3946.33988525,0.01215222
3948.26869263,0.01185738
3950.19750000,0.01182127
3952.12630737,0.01202993
3954.05511475,0.01205121
3955.98392212,0.01204080
3957.91272949,0.01195871
3959.84153687,0.01191946
3961.77034424,0.01192906
3963.69915161,0.01188388
3965.62795898,0.01199886
3967.55676636,0.01193000
3969.48557373,0.01192621
3971.41438110,0.01184514
3973.34318848,0.01179954
3975.27199585,0.01179251
3977.20080322,0.01169823
3979.12961060,0.01190115
3981.05841797,0.01169173
3982.98722534,0.01165124
3984.91603271,0.01168581
3986.84484009,0.01166382
3988.77364746,0.01178481
3990.70245483,0.01161759
3992.63126221,0.01169049
3994.56006958,0.01151024
3996.48887695,0.01150853
3998.41768433,0.01156625
4000.34649170,0.01143941
4002.27529907,0.01157544
4004.20410645,0.01147130
4006.13291382,0.01150133
4008.06172119,0.01145474
4009.99052856,0.01143510
4011.91933594,0.01142063
4013.84814331,0.01133362
4015.77695068,0.01138541
4017.70575806,0.01125590
4019.63456543,0.01121997
4021.56337280,0.01123277
4023.49218018,0.01127192
4025.42098755,0.01110711
4027.34979492,0.01111390
4029.27860229,0.01126598
4031.20740967,0.01113437
4033.13621704,0.01120823
4035.06502441,0.01113481
4036.99383179,0.01108686
4038.92263916,0.01112334
4040.85144653,0.01105351
4042.78025391,0.01103807
4044.70906128,0.01093432
4046.63786865,0.01089552
4048.56667603,0.01088477
4050.49548340,0.01087569
4052.42429077,0.01091660
4054.35309814,0.01093456
4056.28190552,0.01081133
4058.21071289,0.01083891
4060.13952026,0.01091904
4062.06832764,0.01078313
4063.99713501,0.01076472
4065.92594238,0.01076482
4067.85474976,0.01073783
4069.78355713,0.01071541
4071.71236450,0.01072112
4073.64117187,0.01069944
4075.56997925,0.01061686
4077.49878662,0.01058103
4079.42759399,0.01056189
4081.35640137,0.01052498
4083.28520874,0.01045844
4085.21401611,0.01042757
4087.14282349,0.01039941
4089.07163086,0.01050071
4091.00043823,0.01042158
4092.92924561,0.01040706
4094.85805298,0.01057390
4096.78686035,0.01038115
4098.71566772,0.01028823
4100.64447510,0.01025122
4102.57328247,0.01027402
4104.50208984,0.01024618
4106.43089722,0.01017908
4108.35970459,0.01024183
4110.28851196,0.01015874
4112.21731934,0.01020629
4114.14612671,0.01009497
4116.07493408,0.01009639
4118.00374145,0.01015232
4119.93254883,0.01009532
4121.86135620,0.01014333
4123.79016357,0.00999309
4125.71897095,0.01004607
4127.64777832,0.00997199
4129.57658569,0.00992129
4131.50539307,0.01000729
4133.43420044,0.00988601
4135.36300781,0.00990435
4137.29181519,0.00988007
4139.22062256,0.00992035
4141.14942993,0.00991352
4143.07823730,0.00978773
4145.00704468,0.00977878
4146.93585205,0.00979210
4148.86465942,0.00973032
4150.79346680,0.00974200
4152.72227417,0.00977138
4154.65108154,0.00964174
4156.57988892,0.00963734
4158.50869629,0.00966479
4160.43750366,0.00969731
4162.36631103,0.00960883
4164.29511841,0.00960486
4166.22392578,0.00968325
4168.15273315,0.00954049
4170.08154053,0.00959228
4172.01034790,0.00953040
4173.93915527,0.00945264
4175.86796265,0.00943084
4177.79677002,0.00943483
4179.72557739,0.00949109
4181.65438477,0.00931614
4183.58319214,0.00933929
4185.51199951,0.00941384
4187.44080688,0.00936941
4189.36961426,0.00924739
4191.29842163,0.00925845
4193.22722900,0.00925970
4195.15603638,0.00919345
4197.08484375,0.00933521
4199.01365112,0.00919414
4200.94245850,0.00913908
4202.87126587,0.00920800
4204.80007324,0.00919546
4206.72888062,0.00913660
4208.65768799,0.00909060
4210.58649536,0.00917552
4212.51530273,0.00906339
4214.44411011,0.00909610
4216.37291748,0.00907037
4218.30172485,0.00902133
4220.23053223,0.00899890
4222.15933960,0.00888426
4224.08814697,0.00894607
4226.01695435,0.00889142
4227.94576172,0.00894837
4229.87456909,0.00892231
4231.80337646,0.00883487
4233.73218384,0.00884569
4235.66099121,0.00883309
4237.58979858,0.00885577
4239.51860596,0.00875218
4241.44741333,0.00874512
4243.37622070,0.00874025
4245.30502808,0.00878838
4247.23383545,0.00875172
4249.16264282,0.00869683
4251.09145020,0.00866242
4253.02025757,0.00857476
4254.94906494,0.00873315
4256.87787231,0.00859753
4258.80667969,0.00855265
4260.73548706,0.00862267
4262.66429443,0.00851235
4264.59310181,0.00853249
4266.52190918,0.00847937
4268.45071655,0.00853012
4270.37952393,0.00850275
4272.30833130,0.00847132
4274.23713867,0.00844265
4276.16594604,0.00840014
4278.09475342,0.00845428
4280.02356079,0.00833327
4281.95236816,0.00841350
4283.88117554,0.00845019
4285.80998291,0.00827504
4287.73879028,0.00833014
4289.66759766,0.00835225
4291.59640503,0.00824233
4293.52521240,0.00829299
4295.45401978,0.00827392
4297.38282715,0.00819515
4299.31163452,0.00820364
4301.24044189,0.00812166
4303.16924927,0.00816601
4305.09805664,0.00812225
4307.02686401,0.00808913
4308.95567139,0.00816682
4310.88447876,0.00807472
4312.81328613,0.00808274
4314.74209351,0.00808153
4316.67090088,0.00806387
4318.59970825,0.00802543
4320.52851562,0.00798851
4322.45732300,0.00804112
4324.38613037,0.00802558
4326.31493774,0.00796588
4328.24374512,0.00792204
4330.17255249,0.00793542
4332.10135986,0.00789662
4334.03016724,0.00784620
4335.95897461,0.00780521
4337.88778198,0.00784346
4339.81658936,0.00777778
4341.74539673,0.00773614
4343.67420410,0.00785347
4345.60301147,0.00771648
4347.53181885,0.00774733
4349.46062622,0.00769964
4351.38943359,0.00762628
4353.31824097,0.00775773
4355.24704834,0.00765905
4357.17585571,0.00773622
4359.10466309,0.00767791
4361.03347046,0.00756308
4362.96227783,0.00766347
4364.89108520,0.00758840
4366.81989258,0.00752486
4368.74869995,0.00754764
4370.67750732,0.00746812
4372.60631470,0.00741742
4374.53512207,0.00756580
4376.46392944,0.00743854
4378.39273682,0.00732725
4380.32154419,0.00744646
4382.25035156,0.00738500
4384.17915894,0.00742473
4386.10796631,0.00746339
4388.03677368,0.00742666
4389.96558105,0.00739201
4391.89438843,0.00734348
4393.82319580,0.00727238
4395.75200317,0.00722850
4397.68081055,0.00728984
4399.60961792,0.00725779
4401.53842529,0.00723210
4403.46723267,0.00720646
4405.39604004,0.00716631
4407.32484741,0.00717740
4409.25365478,0.00717601
4411.18246216,0.00720591
4413.11126953,0.00718614
4415.04007690,0.00706780
4416.96888428,0.00706113
4418.89769165,0.00709460
4420.82649902,0.00702409
4422.75530640,0.00707998
4424.68411377,0.00699477
4426.61292114,0.00690953
4428.54172852,0.00700332
4430.47053589,0.00697905
4432.39934326,0.00699783
4434.32815063,0.00693900
4436.25695801,0.00689795
4438.18576538,0.00686089
4440.11457275,0.00686255
4442.04338013,0.00691605
4443.97218750,0.00679777
4445.90099487,0.00678235
4447.82980225,0.00679018
4449.75860962,0.00687652
4451.68741699,0.00682506
4453.61622437,0.00672492
4455.54503174,0.00684063
4457.47383911,0.00674390
4459.40264648,0.00671954
4461.33145386,0.00670583
4463.26026123,0.00663687
4465.18906860,0.00671765
4467.11787598,0.00670330
4469.04668335,0.00663587
4470.97549072,0.00665186
4472.90429810,0.00669387
4474.83310547,0.00663535
4476.76191284,0.00662979
4478.69072021,0.00663180
4480.61952759,0.00654345
4482.54833496,0.00649077
4484.47714233,0.00650722
4486.40594971,0.00659173
4488.33475708,0.00655451
4490.26356445,0.00640722
4492.19237183,0.00636845
4494.12117920,0.00639295
4496.04998657,0.00643072
4497.97879395,0.00653031
4499.90760132,0.00647518
4501.83640869,0.00637184
4503.76521606,0.00639515
4505.69402344,0.00646575
4507.62283081,0.00649576
4509.55163818,0.00634386
4511.48044556,0.00632924
4513.40925293,0.00632874
4515.33806030,0.00629175
4517.26686768,0.00631340
4519.19567505,0.00619959
4521.12448242,0.00619423
4523.05328979,0.00619341
4524.98209717,0.00623661
4526.91090454,0.00621665
4528.83971191,0.00612919
4530.76851929,0.00613692
4532.69732666,0.00608589
4534.62613403,0.00614977
4536.55494141,0.00614090
4538.48374878,0.00612447
4540.41255615,0.00606737
4542.34136353,0.00598403
4544.27017090,0.00605383
4546.19897827,0.00607428
4548.12778564,0.00612061
4550.05659302,0.00600671
4551.98540039,0.00596124
4553.91420776,0.00600492
4555.84301514,0.00592808
4557.77182251,0.00599174
4559.70062988,0.00600749
4561.62943726,0.00592418
4563.55824463,0.00592538
4565.48705200,0.00594568
4567.41585937,0.00584428
4569.34466675,0.00582756
4571.27347412,0.00582967
4573.20228149,0.00583363
4575.13108887,0.00584396
4577.05989624,0.00574601
4578.98870361,0.00588306
4580.91751099,0.00586056
4582.84631836,0.00574851
4584.77512573,0.00579628
4586.70393311,0.00572302
4588.63274048,0.00568943
4590.56154785,0.00566488
4592.49035522,0.00572931
4594.41916260,0.00573049
4596.34796997,0.00570938
4598.27677734,0.00574664
4600.20558472,0.00565302
4602.13439209,0.00561127
4604.06319946,0.00559897
4605.99200684,0.00561251
4607.92081421,0.00561572
4609.84962158,0.00561266
4611.77842895,0.00557715
4613.70723633,0.00553190
4615.63604370,0.00556609
4617.56485107,0.00554891
4619.49365845,0.00548391
4621.42246582,0.00545964
4623.35127319,0.00554422
4625.28008057,0.00546259
4627.20888794,0.00543422
4629.13769531,0.00554990
4631.06650269,0.00540450
4632.99531006,0.00536450
4634.92411743,0.00541125
4636.85292480,0.00542767
4638.78173218,0.00545984
4640.71053955,0.00532862
4642.63934692,0.00532949
4644.56815430,0.00538444
4646.49696167,0.00522252
4648.42576904,0.00518183
4650.35457642,0.00531137
4652.28338379,0.00534342
4654.21219116,0.00528736
4656.14099853,0.00525979
4658.06980591,0.00529278
4659.99861328,0.00521304
4661.92742065,0.00519862
4663.85622803,0.00525534
4665.78503540,0.00513445
4667.71384277,0.00513203
4669.64265015,0.00514821
4671.57145752,0.00511457
4673.50026489,0.00517018
4675.42907227,0.00513892
4677.35787964,0.00507641
4679.28668701,0.00508305
4681.21549438,0.00506709
4683.14430176,0.00506360
4685.07310913,0.00512666
4687.00191650,0.00504558
4688.93072388,0.00497999
4690.85953125,0.00499217
4692.78833862,0.00495662
4694.71714600,0.00498522
4696.64595337,0.00496549
4698.57476074,0.00494198
4700.50356812,0.00495300
4702.43237549,0.00495466
4704.36118286,0.00492819
4706.28999023,0.00494114
4708.21879761,0.00495422
4710.14760498,0.00490409
4712.07641235,0.00492194
4714.00521973,0.00493864
4715.93402710,0.00494922
4717.86283447,0.00485344
4719.79164185,0.00486674
4721.72044922,0.00493586
4723.64925659,0.00483930
4725.57806396,0.00482441
4727.50687134,0.00478974
4729.43567871,0.00483115
4731.36448608,0.00480618
4733.29329346,0.00475326
4735.22210083,0.00476876
4737.15090820,0.00475723
4739.07971558,0.00478009
4741.00852295,0.00466968
4742.93733032,0.00471875
4744.86613770,0.00467671
4746.79494507,0.00466761
4748.72375244,0.00476456
4750.65255981,0.00461995
4752.58136719,0.00469401
4754.51017456,0.00471094
4756.43898193,0.00465938
4758.36778931,0.00461232
4760.29659668,0.00461443
4762.22540405,0.00463729
4764.15421143,0.00447255
4766.08301880,0.00457855
4768.01182617,0.00456129
4769.94063354,0.00451860
4771.86944092,0.00467762
4773.79824829,0.00460063
4775.72705566,0.00451112
4777.65586304,0.00454615
4779.58467041,0.00456180
4781.51347778,0.00447584
4783.44228516,0.00448957
4785.37109253,0.00451103
4787.29989990,0.00447475
4789.22870728,0.00446823
4791.15751465,0.00442787
4793.08632202,0.00444639
4795.01512939,0.00443945
4796.94393677,0.00439320
4798.87274414,0.00440945
4800.80155151,0.00441030
4802.73035889,0.00428445
4804.65916626,0.00434672
4806.58797363,0.00441555
4808.51678101,0.00433361
4810.44558838,0.00436262
4812.37439575,0.00427332
4814.30320312,0.00430533
4816.23201050,0.00430153
4818.16081787,0.00421903
4820.08962524,0.00424452
4822.01843262,0.00421494
4823.94723999,0.00428523
4825.87604736,0.00423125
4827.80485474,0.00421551
4829.73366211,0.00421659
4831.66246948,0.00416724
4833.59127686,0.00420032
4835.52008423,0.00421577
4837.44889160,0.00426943
4839.37769897,0.00416069
4841.30650635,0.00415041
4843.23531372,0.00416907
4845.16412109,0.00412318
4847.09292847,0.00411709
4849.02173584,0.00404463
4850.95054321,0.00408276
4852.87935059,0.00410192
4854.80815796,0.00416602
4856.73696533,0.00411208
4858.66577270,0.00405577
4860.59458008,0.00406260
4862.52338745,0.00395503
4864.45219482,0.00405421
4866.38100220,0.00403594
4868.30980957,0.00399649
4870.23861694,0.00402681
4872.16742432,0.00401219
4874.09623169,0.00404027
4876.02503906,0.00391091
4877.95384644,0.00389763
4879.88265381,0.00393324
4881.81146118,0.00393692
4883.74026855,0.00396260
4885.66907593,0.00390663
4887.59788330,0.00389988
4889.52669067,0.00384028
4891.45549805,0.00382192
4893.38430542,0.00390238
4895.31311279,0.00388825
4897.24192017,0.00388931
4899.17072754,0.00390250
4901.09953491,0.00380951
4903.02834228,0.00378069
4904.95714966,0.00382332
4906.88595703,0.00384380
4908.81476440,0.00379783
4910.74357178,0.00372848
4912.67237915,0.00378556
4914.60118652,0.00379794
4916.52999390,0.00378027
4918.45880127,0.00376854
4920.38760864,0.00369905
4922.31641602,0.00371254
4924.24522339,0.00374626
4926.17403076,0.00370956
4928.10283813,0.00367071
4930.03164551,0.00369437
4931.96045288,0.00368939
4933.88926025,0.00369110
4935.81806763,0.00362613
4937.74687500,0.00355859
4939.67568237,0.00364590
4941.60448975,0.00362299
4943.53329712,0.00368108
4945.46210449,0.00371783
4947.39091187,0.00358026
4949.31971924,0.00360885
4951.24852661,0.00359495
4953.17733398,0.00357199
4955.10614136,0.00364193
4957.03494873,0.00360801
4958.96375610,0.00358227
4960.89256348,0.00356343
4962.82137085,0.00351043
4964.75017822,0.00349989
4966.67898560,0.00346070
4968.60779297,0.00350418
4970.53660034,0.00351275
4972.46540771,0.00340203
4974.39421509,0.00349858
4976.32302246,0.00351355
4978.25182983,0.00342978
4980.18063721,0.00343886
4982.10944458,0.00342088
4984.03825195,0.00341312
4985.96705933,0.00330140
4987.89586670,0.00335577
4989.82467407,0.00344950
4991.75348145,0.00334200
4993.68228882,0.00331010
4995.61109619,0.00333936
4997.53990356,0.00336552
4999.46871094,0.00326947
5001.39751831,0.00327213
5003.32632568,0.00334241
5005.25513306,0.00331164
5007.18394043,0.00337631
5009.11274780,0.00334070
5011.04155518,0.00329838
5012.97036255,0.00332593
5014.89916992,0.00328552
5016.82797729,0.00328283
5018.75678467,0.00328429
5020.68559204,0.00323484
5022.61439941,0.00321092
5024.54320679,0.00324665
5026.47201416,0.00326948
5028.40082153,0.00331818
5030.32962891,0.00327310
5032.25843628,0.00317538
5034.18724365,0.00323231
5036.11605103,0.00323992
5038.04485840,0.00319975
5039.97366577,0.00319682
5041.90247314,0.00318304
5043.83128052,0.00313884
5045.76008789,0.00312486
5047.68889526,0.00319902
5049.61770264,0.00313391
5051.54651001,0.00310832
5053.47531738,0.00319566
5055.40412476,0.00312345
5057.33293213,0.00309979
5059.26173950,0.00308430
5061.19054687,0.00303689
5063.11935425,0.00309323
5065.04816162,0.00309492
5066.97696899,0.00303958
5068.90577637,0.00302097
5070.83458374,0.00308442
5072.76339111,0.00305569
5074.69219849,0.00301258
5076.62100586,0.00308213
5078.54981323,0.00303386
5080.47862061,0.00303281
5082.40742798,0.00301109
5084.33623535,0.00295413
5086.26504272,0.00300328
5088.19385010,0.00291527
5090.12265747,0.00289927
5092.05146484,0.00295875
5093.98027222,0.00291185
5095.90907959,0.00287557
5097.83788696,0.00286678
5099.76669434,0.00295782
5101.69550171,0.00292818
5103.62430908,0.00283661
5105.55311645,0.00297429
5107.48192383,0.00294676
5109.41073120,0.00282615
5111.33953857,0.00287504
5113.26834595,0.00282032
5115.19715332,0.00284174
5117.12596069,0.00290400
5119.05476807,0.00286285
5120.98357544,0.00286987
5122.91238281,0.00279225
5124.84119019,0.00277249
5126.76999756,0.00283250
5128.69880493,0.00281846
5130.62761230,0.00277570
5132.55641968,0.00274038
5134.48522705,0.00274039
5136.41403442,0.00273519
5138.34284180,0.00277659
5140.27164917,0.00275190
5142.20045654,0.00272497
5144.12926392,0.00275259
5146.05807129,0.00273641
5147.98687866,0.00278718
5149.91568603,0.00274951
5151.84449341,0.00273367
5153.77330078,0.00276592
5155.70210815,0.00267993
5157.63091553,0.00266294
5159.55972290,0.00268538
5161.48853027,0.00270077
5163.41733765,0.00265753
5165.34614502,0.00264415
5167.27495239,0.00271758
5169.20375977,0.00267013
5171.13256714,0.00266572
5173.06137451,0.00270438
5174.99018188,0.00268352
5176.91898926,0.00269940
5178.84779663,0.00263340
5180.77660400,0.00262266
5182.70541138,0.00264817
5184.63421875,0.00257204
5186.56302612,0.00258562
5188.49183350,0.00254856
5190.42064087,0.00254538
5192.34944824,0.00261677
5194.27825562,0.00256059
5196.20706299,0.00253959
5198.13587036,0.00252101
5200.06467773,0.00256840
5201.99348511,0.00263724
5203.92229248,0.00253877
5205.85109985,0.00243782
5207.77990723,0.00246151
5209.70871460,0.00249718
5211.63752197,0.00245257
5213.56632935,0.00253645
5215.49513672,0.00254931
5217.42394409,0.00245920
5219.35275146,0.00252823
5221.28155884,0.00250657
5223.21036621,0.00244233
5225.13917358,0.00237006
5227.06798096,0.00234316
5228.99678833,0.00249742
5230.92559570,0.00249915
5232.85440308,0.00240035
5234.78321045,0.00247722
5236.71201782,0.00251322
5238.64082520,0.00242174
5240.56963257,0.00239784
5242.49843994,0.00241005
5244.42724731,0.00238959
5246.35605469,0.00235279
5248.28486206,0.00233723
5250.21366943,0.00233665
5252.14247681,0.00235416
5254.07128418,0.00232948
5256.00009155,0.00229899
5257.92889893,0.00240893
5259.85770630,0.00238684
5261.78651367,0.00232361
5263.71532104,0.00230908
5265.64412842,0.00227826
5267.57293579,0.00236639
5269.50174316,0.00231815
5271.43055054,0.00232769
5273.35935791,0.00235917
5275.28816528,0.00228686
5277.21697266,0.00232571
5279.14578003,0.00229472
5281.07458740,0.00231342
5283.00339478,0.00235706
5284.93220215,0.00233569
5286.86100952,0.00226742
5288.78981689,0.00220131
5290.71862427,0.00224608
5292.64743164,0.00226921
5294.57623901,0.00228923
5296.50504639,0.00225310
5298.43385376,0.00224082
5300.36266113,0.00224122
5302.29146851,0.00217236
5304.22027588,0.00218547
5306.14908325,0.00218584
5308.07789062,0.00214948
5310.00669800,0.00216481
5311.93550537,0.00222681
5313.86431274,0.00220205
5315.79312012,0.00219060
5317.72192749,0.00223171
5319.65073486,0.00215262
5321.57954224,0.00213838
5323.50834961,0.00219760
5325.43715698,0.00217301
5327.36596436,0.00207506
5329.29477173,0.00205472
5331.22357910,0.00209756
5333.15238647,0.00209262
5335.08119385,0.00213693
5337.01000122,0.00208143
5338.93880859,0.00198045
5340.86761597,0.00207753
5342.79642334,0.00211210
5344.72523071,0.00200909
5346.65403809,0.00199378
5348.58284546,0.00203429
5350.51165283,0.00211977
5352.44046020,0.00208036
5354.36926758,0.00197037
5356.29807495,0.00202912
5358.22688232,0.00203189
5360.15568970,0.00206508
5362.08449707,0.00207516
5364.01330444,0.00204702
5365.94211182,0.00209586
5367.87091919,0.00205133
5369.79972656,0.00207743
5371.72853394,0.00202146
5373.65734131,0.00199854
5375.58614868,0.00200802
5377.51495605,0.00187825
5379.44376343,0.00197140
5381.37257080,0.00201195
5383.30137817,0.00197571
5385.23018555,0.00194332
5387.15899292,0.00187075
5389.08780029,0.00193875
5391.01660767,0.00199780
5392.94541504,0.00200304
5394.87422241,0.00186123
5396.80302978,0.00184916
5398.73183716,0.00197150
5400.66064453,0.00190585
5402.58945190,0.00192833
5404.51825928,0.00191141
5406.44706665,0.00184684
5408.37587402,0.00189502
5410.30468140,0.00186644
5412.23348877,0.00183677
5414.16229614,0.00184244
5416.09110352,0.00190578
5418.01991089,0.00194276
5419.94871826,0.00185057
5421.87752563,0.00188206
5423.80633301,0.00191722
5425.73514038,0.00186189
5427.66394775,0.00186302
5429.59275513,0.00178808
5431.52156250,0.00181571
5433.45036987,0.00184659
5435.37917725,0.00173408
5437.30798462,0.00179546
5439.23679199,0.00180235
5441.16559936,0.00180334
5443.09440674,0.00187705
5445.02321411,0.00173963
5446.95202148,0.00170275
5448.88082886,0.00170990
5450.80963623,0.00171621
5452.73844360,0.00184996
5454.66725098,0.00180824
5456.59605835,0.00182361
5458.52486572,0.00181074
5460.45367310,0.00168252
5462.38248047,0.00177627
5464.31128784,0.00174856
5466.24009521,0.00169903
5468.16890259,0.00177829
5470.09770996,0.00177456
5472.02651733,0.00176936
5473.95532471,0.00169482
5475.88413208,0.00164138
5477.81293945,0.00163239
5479.74174683,0.00168610
5481.67055420,0.00177291
5483.59936157,0.00170195
5485.52816895,0.00165690
5487.45697632,0.00168486
5489.38578369,0.00170088
5491.31459106,0.00170404
5493.24339844,0.00168474
5495.17220581,0.00168363
5497.10101318,0.00169244
5499.02982056,0.00166257
5500.95862793,0.00166245
5502.88743530,0.00171354
5504.81624268,0.00166118
5506.74505005,0.00162427
5508.67385742,0.00164255
5510.60266479,0.00161068
5512.53147217,0.00160271
5514.46027954,0.00163508
5516.38908691,0.00164837
5518.31789429,0.00162426
5520.24670166,0.00163625
5522.17550903,0.00159286
5524.10431641,0.00157345
5526.03312378,0.00163881
5527.96193115,0.00163433
5529.89073853,0.00164901
5531.81954590,0.00164140
5533.74835327,0.00163717
5535.67716064,0.00164411
5537.60596802,0.00156228
5539.53477539,0.00157407
5541.46358276,0.00160532
5543.39239014,0.00154139
5545.32119751,0.00156977
5547.25000488,0.00156049
5549.17881226,0.00154792
5551.10761963,0.00163329
5553.03642700,0.00152823
5554.96523437,0.00153686
5556.89404175,0.00161119
5558.82284912,0.00148456
5560.75165649,0.00153634
5562.68046387,0.00157149
5564.60927124,0.00149960
5566.53807861,0.00150605
5568.46688599,0.00151849
5570.39569336,0.00152380
5572.32450073,0.00154815
5574.25330811,0.00152024
5576.18211548,0.00142976
5578.11092285,0.00145078
5580.03973022,0.00143510
5581.96853760,0.00146185
5583.89734497,0.00151389
5585.82615234,0.00146596
5587.75495972,0.00149548
5589.68376709,0.00147871
5591.61257446,0.00149909
5593.54138184,0.00147726
5595.47018921,0.00147356
5597.39899658,0.00153420
5599.32780395,0.00144317
5601.25661133,0.00148350
5603.18541870,0.00151436
5605.11422607,0.00144739
5607.04303345,0.00142574
5608.97184082,0.00139469
5610.90064819,0.00142004
5612.82945557,0.00143783
5614.75826294,0.00141391
5616.68707031,0.00139234
5618.61587769,0.00141424
5620.54468506,0.00143123
5622.47349243,0.00140708
5624.40229980,0.00135214
5626.33110718,0.00131994
5628.25991455,0.00134045
5630.18872192,0.00136052
5632.11752930,0.00137494
5634.04633667,0.00139839
5635.97514404,0.00140306
5637.90395142,0.00134240
5639.83275879,0.00140896
5641.76156616,0.00143792
5643.69037353,0.00134209
5645.61918091,0.00133966
5647.54798828,0.00134919
5649.47679565,0.00140931
5651.40560303,0.00136902
5653.33441040,0.00135900
5655.26321777,0.00142354
5657.19202515,0.00140517
5659.12083252,0.00136525
5661.04963989,0.00127777
5662.97844727,0.00138508
5664.90725464,0.00137481
5666.83606201,0.00129562
5668.76486938,0.00130752
5670.69367676,0.00124103
5672.62248413,0.00138831
5674.55129150,0.00138226
5676.48009888,0.00131726
5678.40890625,0.00135358
5680.33771362,0.00132529
5682.26652100,0.00137339
5684.19532837,0.00131775
5686.12413574,0.00132782
5688.05294311,0.00131330
5689.98175049,0.00125058
5691.91055786,0.00128585
5693.83936523,0.00120439
5695.76817261,0.00120193
5697.69697998,0.00129888
5699.62578735,0.00130988
5701.55459473,0.00121811
5703.48340210,0.00118360
5705.41220947,0.00126185
5707.34101685,0.00121516
5709.26982422,0.00122928
5711.19863159,0.00133028
5713.12743896,0.00122158
5715.05624634,0.00116914
5716.98505371,0.00123180
5718.91386108,0.00124088
5720.84266846,0.00122272
5722.77147583,0.00114180
5724.70028320,0.00118495
5726.62909058,0.00122726
5728.55789795,0.00119851
5730.48670532,0.00121194
5732.41551270,0.00119943
5734.34432007,0.00123592
5736.27312744,0.00117769
5738.20193481,0.00119715
5740.13074219,0.00122684
5742.05954956,0.00112333
5743.98835693,0.00118239
5745.91716431,0.00118253
5747.84597168,0.00118984
5749.77477905,0.00124705
5751.70358643,0.00121960
5753.63239380,0.00116240
5755.56120117,0.00109102
5757.49000854,0.00116577
5759.41881592,0.00118372
5761.34762329,0.00113850
5763.27643066,0.00114545
5765.20523804,0.00113034
5767.13404541,0.00115506
5769.06285278,0.00115941
5770.99166016,0.00115907
5772.92046753,0.00113507
5774.84927490,0.00115481
5776.77808228,0.00116207
5778.70688965,0.00107172
5780.63569702,0.00112151
5782.56450439,0.00111646
5784.49331177,0.00105955
5786.42211914,0.00110671
5788.35092651,0.00108478
5790.27973389,0.00113245
5792.20854126,0.00107467
5794.13734863,0.00100271
5796.06615601,0.00111117
5797.99496338,0.00108092
5799.92377075,0.00113898
5801.85257812,0.00111234
5803.78138550,0.00103054
5805.71019287,0.00113137
5807.63900024,0.00102907
5809.56780762,0.00108208
5811.49661499,0.00116340
5813.42542236,0.00106159
5815.35422974,0.00109159
5817.28303711,0.00104807
5819.21184448,0.00102257
5821.14065186,0.00106144
5823.06945923,0.00107096
5824.99826660,0.00105377
5826.92707397,0.00107170
5828.85588135,0.00107346
5830.78468872,0.00099881
5832.71349609,0.00104883
5834.64230347,0.00102406
5836.57111084,0.00102615
5838.49991821,0.00108934
5840.42872559,0.00099815
5842.35753296,0.00100807
5844.28634033,0.00104624
5846.21514770,0.00109090
5848.14395508,0.00108325
5850.07276245,0.00096093
5852.00156982,0.00097149
5853.93037720,0.00098286
5855.85918457,0.00098453
5857.78799194,0.00100610
5859.71679932,0.00099335
5861.64560669,0.00099480
5863.57441406,0.00094538
5865.50322144,0.00098380
5867.43202881,0.00098956
5869.36083618,0.00095178
5871.28964355,0.00103524
5873.21845093,0.00095527
5875.14725830,0.00093005
5877.07606567,0.00100637
5879.00487305,0.00093207
5880.93368042,0.00092312
5882.86248779,0.00094781
5884.79129517,0.00100213
5886.72010254,0.00098464
5888.64890991,0.00092022
5890.57771728,0.00098054
5892.50652466,0.00091774
5894.43533203,0.00087891
5896.36413940,0.00091478
5898.29294678,0.00087124
5900.22175415,0.00088750
5902.15056152,0.00088957
5904.07936890,0.00092077
5906.00817627,0.00098484
5907.93698364,0.00089943
5909.86579102,0.00084266
5911.79459839,0.00089759
5913.72340576,0.00094043
5915.65221313,0.00093626
5917.58102051,0.00087364
5919.50982788,0.00088662
5921.43863525,0.00092692
5923.36744263,0.00091592
5925.29625000,0.00090622
5927.22505737,0.00090784
5929.15386475,0.00093296
5931.08267212,0.00089692
5933.01147949,0.00089652
5934.94028686,0.00090451
5936.86909424,0.00090318
5938.79790161,0.00092686
5940.72670898,0.00083690
5942.65551636,0.00080156
5944.58432373,0.00085009
5946.51313110,0.00085394
5948.44193848,0.00088445
5950.37074585,0.00098396
5952.29955322,0.00091002
5954.22836060,0.00078886
5956.15716797,0.00084748
5958.08597534,0.00082694
5960.01478271,0.00085477
5961.94359009,0.00084870
5963.87239746,0.00079745
5965.80120483,0.00081846
5967.73001221,0.00080933
5969.65881958,0.00086799
5971.58762695,0.00082972
5973.51643433,0.00085584
5975.44524170,0.00086319
5977.37404907,0.00078997
5979.30285645,0.00081911
5981.23166382,0.00079774
5983.16047119,0.00081551
5985.08927856,0.00076195
5987.01808594,0.00079129
5988.94689331,0.00083047
5990.87570068,0.00079671
5992.80450806,0.00083640
5994.73331543,0.00073043
5996.66212280,0.00075815
5998.59093018,0.00080357
6000.51973755,0.00076933
