399.26312622,0.00031281
401.19193359,0.00050122
403.12074097,0.00021187
405.04954834,0.00054801
406.97835571,0.00067528
408.90716309,0.00031017
410.83597046,0.00104990
412.76477783,0.00076252
414.69358521,0.00092548
416.62239258,0.00090590
418.55119995,0.00017822
420.48000732,0.00075174
422.40881470,0.00085413
424.33762207,0.00075204
426.26642944,0.00088421
428.19523682,0.00073542
430.12404419,0.00107490
432.05285156,0.00102029
433.98165894,0.00059955
435.91046631,0.00083942
437.83927368,0.00077875
439.76808105,0.00033191
441.69688843,0.00042810
443.62569580,0.00042434
445.55450317,0.00019645
447.48331055,0.00043788
449.41211792,0.00061667
451.34092529,0.00037143
453.26973267,0.00062879
455.19854004,0.00086574
457.12734741,0.00040372
459.05615479,0.00057757
460.98496216,0.00066605
462.91376953,0.00039562
464.84257690,0.00062605
466.77138428,0.00039679
468.70019165,0.00059491
470.62899902,0.00058086
472.55780640,0.00014844
474.48661377,0.00055866
476.41542114,0.00025689
478.34422852,0.00041787
480.27303589,0.00059772
482.20184326,0.00002486
484.13065063,0.00031517
486.05945801,0.00034954
487.98826538,0.00048366
489.91707275,0.00034936
491.84588013,0.00005264
493.77468750,0.00048869
495.70349487,0.00046388
497.63230225,0.00021447
499.56110962,-0.00008245
501.48991699,0.00011481
503.41872437,0.00018823
505.34753174,-0.00004709
507.27633911,0.00030279
509.20514648,0.00016319
511.13395386,0.00011816
513.06276123,0.00057224
514.99156860,0.00038417
516.92037598,-0.00003516
518.84918335,0.00049029
520.77799072,0.00054727
522.70679810,0.00017464
524.63560547,0.00062561
526.56441284,0.00019018
528.49322021,0.00004556
530.42202759,0.00022424
532.35083496,-0.00011753
534.27964233,0.00009877
536.20844971,0.00005513
538.13725708,0.00013990
540.06606445,0.00010545
541.99487183,0.00018407
543.92367920,0.00021582
545.85248657,0.00002465
547.78129395,0.00040512
549.71010132,0.00016151
551.63890869,0.00018252
553.56771606,0.00025464
555.49652344,0.00018761
557.42533081,0.00028089
559.35413818,0.00003578
561.28294556,0.00012441
563.21175293,0.00005083
565.14056030,0.00025333
567.06936768,0.00022394
568.99817505,-0.00032359
570.92698242,0.00021786
572.85578979,0.00017466
574.78459717,-0.00038502
576.71340454,0.00027004
578.64221191,0.00037431
580.57101929,0.00005221
582.49982666,0.00020917
584.42863403,-0.00007237
586.35744141,-0.00017284
588.28624878,0.00028841
590.21505615,0.00000536
592.14386353,-0.00001224
594.07267090,0.00032661
596.00147827,-0.00005299
597.93028564,0.00015240
599.85909302,0.00037224
601.78790039,0.00026281
603.71670776,0.00019221
605.64551514,0.00025133
607.57432251,0.00033411
609.50312988,-0.00005974
611.43193726,-0.00012617
613.36074463,0.00016045
615.28955200,0.00017792
617.21835938,-0.00009799
619.14716675,-0.00001730
621.07597412,0.00011412
623.00478149,0.00000635
624.93358887,0.00004020
626.86239624,0.00015521
628.79120361,0.00014449
630.72001099,0.00071463
632.64881836,0.00058256
634.57762573,0.00022383
636.50643311,0.00107204
638.43524048,0.00063859
640.36404785,0.00044022
642.29285522,0.00084167
644.22166260,0.00049185
646.15046997,0.00089340
648.07927734,0.00116047
650.00808472,0.00109864
651.93689209,0.00092443
653.86569946,0.00111659
655.79450684,0.00131680
657.72331421,0.00111439
659.65212158,0.00134190
661.58092896,0.00113238
663.50973633,0.00119327
665.43854370,0.00135069
667.36735107,0.00112246
669.29615845,0.00131977
671.22496582,0.00134886
673.15377319,0.00140945
675.08258057,0.00183007
677.01138794,0.00186048
678.94019531,0.00147873
680.86900269,0.00179873
682.79781006,0.00198116
684.72661743,0.00145252
686.65542480,0.00137999
688.58423218,0.00156001
690.51303955,0.00180592
692.44184692,0.00187184
694.37065430,0.00195009
696.29946167,0.00239090
698.22826904,0.00259950
700.15707642,0.00266193
702.08588379,0.00264411
704.01469116,0.00242413
705.94349854,0.00230780
707.87230591,0.00202736
709.80111328,0.00143382
711.72992065,0.00101829
713.65872803,0.00084712
715.58753540,0.00074968
717.51634277,0.00029569
719.44515015,0.00020479
721.37395752,0.00034544
723.30276489,-0.00031055
725.23157227,-0.00019007
727.16037964,0.00028635
729.08918701,0.00009427
731.01799438,0.00001259
732.94680176,0.00016898
734.87560913,0.00037799
736.80441650,0.00009655
738.73322388,-0.00004673
740.66203125,0.00010737
742.59083862,0.00008600
744.51964600,0.00005513
746.44845337,0.00004392
748.37726074,0.00014678
750.30606812,0.00021746
752.23487549,0.00015603
754.16368286,0.00003634
756.09249023,0.00016368
758.02129761,0.00039752
759.95010498,0.00025497
761.87891235,-0.00017701
763.80771973,-0.00007858
765.73652710,0.00020876
767.66533447,0.00011943
769.59414185,0.00021159
771.52294922,0.00015131
773.45175659,0.00022590
775.38056396,0.00004200
777.30937134,-0.00011207
779.23817871,0.00017517
781.16698608,0.00004900
783.09579346,0.00044610
785.02460083,0.00032339
786.95340820,0.00009896
788.88221558,0.00035811
790.81102295,0.00008375
792.73983032,0.00028768
794.66863770,0.00025630
796.59744507,0.00023875
798.52625244,0.00045423
800.45505981,0.00067676
802.38386719,0.00061261
804.31267456,0.00016153
806.24148193,0.00053072
808.17028931,0.00030076
810.09909668,0.00018044
812.02790405,0.00049253
813.95671143,0.00003805
815.88551880,0.00018382
817.81432617,0.00034668
819.74313354,0.00023218
821.67194092,0.00044277
823.60074829,0.00036969
825.52955566,0.00038284
827.45836304,0.00059363
829.38717041,0.00039984
831.31597778,0.00041269
833.24478516,0.00048361
835.17359253,0.00042938
837.10239990,0.00057269
839.03120728,0.00037716
840.96001465,0.00063217
842.88882202,0.00079694
844.81762939,0.00052813
846.74643677,0.00061602
848.67524414,0.00047226
850.60405151,0.00052182
852.53285889,0.00062837
854.46166626,0.00062512
856.39047363,0.00052155
858.31928101,0.00041054
860.24808838,0.00033508
862.17689575,0.00022235
864.10570313,0.00061067
866.03451050,0.00047289
867.96331787,0.00046388
869.89212524,0.00047300
871.82093262,0.00010106
873.74973999,0.00049143
875.67854736,0.00052743
877.60735474,0.00046423
879.53616211,0.00026734
881.46496948,0.00017503
883.39377686,0.00047964
885.32258423,0.00044447
887.25139160,0.00071451
889.18019897,0.00054454
891.10900635,0.00026645
893.03781372,0.00018973
894.96662109,0.00021471
896.89542847,0.00059747
898.82423584,0.00055976
900.75304321,0.00032521
902.68185059,0.00028379
904.61065796,0.00036641
906.53946533,0.00015816
908.46827271,0.00038479
910.39708008,0.00055505
912.32588745,0.00038821
914.25469482,0.00076443
916.18350220,0.00043714
918.11230957,0.00043369
920.04111694,0.00101997
921.96992432,0.00075660
923.89873169,0.00059110
925.82753906,0.00077214
927.75634644,0.00069784
929.68515381,0.00072730
931.61396118,0.00081079
933.54276855,0.00066157
935.47157593,0.00088001
937.40038330,0.00096013
939.32919067,0.00084948
941.25799805,0.00104201
943.18680542,0.00088392
945.11561279,0.00060206
947.04442017,0.00090395
948.97322754,0.00137721
950.90203491,0.00104512
952.83084229,0.00089188
954.75964966,0.00119042
956.68845703,0.00099196
958.61726440,0.00108726
960.54607178,0.00118889
962.47487915,0.00096887
964.40368652,0.00106111
966.33249390,0.00097636
968.26130127,0.00082522
970.19010864,0.00113849
972.11891602,0.00132408
974.04772339,0.00131385
975.97653076,0.00127367
977.90533813,0.00128424
979.83414551,0.00148743
981.76295288,0.00161661
983.69176025,0.00198035
985.62056763,0.00204349
987.54937500,0.00219390
989.47818237,0.00268819
991.40698975,0.00259156
993.33579712,0.00299800
995.26460449,0.00338319
997.19341187,0.00344203
999.12221924,0.00398433
1001.05102661,0.00418836
1002.97983398,0.00429812
1004.90864136,0.00461120
1006.83744873,0.00498252
1008.76625610,0.00534264
1010.69506348,0.00554906
1012.62387085,0.00580898
1014.55267822,0.00632010
1016.48148560,0.00662149
1018.41029297,0.00671928
1020.33910034,0.00729720
1022.26790771,0.00754953
1024.19671509,0.00765049
1026.12552246,0.00812706
1028.05432983,0.00833749
1029.98313721,0.00857363
1031.91194458,0.00881863
1033.84075195,0.00890234
1035.76955933,0.00914417
1037.69836670,0.00937574
1039.62717407,0.00909637
1041.55598145,0.00901882
1043.48478882,0.00928403
1045.41359619,0.00902891
1047.34240356,0.00902778
1049.27121094,0.00893972
1051.20001831,0.00850633
1053.12882568,0.00853913
1055.05763306,0.00831730
1056.98644043,0.00795607
1058.91524780,0.00770730
1060.84405518,0.00749285
1062.77286255,0.00764819
1064.70166992,0.00747494
1066.63047729,0.00710863
1068.55928467,0.00686088
1070.48809204,0.00632714
1072.41689941,0.00611259
1074.34570679,0.00594037
1076.27451416,0.00551894
1078.20332153,0.00545853
1080.13212891,0.00528757
1082.06093628,0.00489278
1083.98974365,0.00456368
1085.91855103,0.00445170
1087.84735840,0.00444747
1089.77616577,0.00416705
1091.70497314,0.00399132
1093.63378052,0.00388092
1095.56258789,0.00371099
1097.49139526,0.00366176
1099.42020264,0.00348575
1101.34901001,0.00330343
1103.27781738,0.00340118
1105.20662476,0.00335811
1107.13543213,0.00304442
1109.06423950,0.00311606
1110.99304687,0.00320715
1112.92185425,0.00315449
1114.85066162,0.00324838
1116.77946899,0.00317443
1118.70827637,0.00330861
1120.63708374,0.00336621
1122.56589111,0.00307077
1124.49469849,0.00311880
1126.42350586,0.00331543
1128.35231323,0.00321770
1130.28112061,0.00318002
1132.20992798,0.00334479
1134.13873535,0.00363115
1136.06754272,0.00389063
1137.99635010,0.00375026
1139.92515747,0.00411869
1141.85396484,0.00453071
1143.78277222,0.00432899
1145.71157959,0.00491282
1147.64038696,0.00536724
1149.56919434,0.00545681
1151.49800171,0.00572332
1153.42680908,0.00588773
1155.35561646,0.00647795
1157.28442383,0.00644688
1159.21323120,0.00648335
1161.14203857,0.00723485
1163.07084595,0.00723010
1164.99965332,0.00741927
1166.92846069,0.00793220
1168.85726807,0.00816976
1170.78607544,0.00852648
1172.71488281,0.00864293
1174.64369019,0.00902993
1176.57249756,0.00956534
1178.50130493,0.00975599
1180.43011230,0.01010048
1182.35891968,0.01045524
1184.28772705,0.01096371
1186.21653442,0.01145577
1188.14534180,0.01192648
1190.07414917,0.01261648
1192.00295654,0.01308255
1193.93176392,0.01379340
1195.86057129,0.01456944
1197.78937866,0.01503110
1199.71818604,0.01560737
1201.64699341,0.01629338
1203.57580078,0.01690577
1205.50460815,0.01756267
1207.43341553,0.01836692
1209.36222290,0.01887417
1211.29103027,0.01943023
1213.21983765,0.01999653
1215.14864502,0.02046209
1217.07745239,0.02104067
1219.00625977,0.02131269
1220.93506714,0.02175080
1222.86387451,0.02198778
1224.79268188,0.02210816
1226.72148926,0.02234387
1228.65029663,0.02224657
1230.57910400,0.02247755
1232.50791138,0.02268670
1234.43671875,0.02278646
1236.36552612,0.02281538
1238.29433350,0.02268071
1240.22314087,0.02264574
1242.15194824,0.02257829
1244.08075562,0.02263877
1246.00956299,0.02257340
1247.93837036,0.02245778
1249.86717773,0.02228766
1251.79598511,0.02218192
1253.72479248,0.02194889
1255.65359985,0.02153127
1257.58240723,0.02152045
1259.51121460,0.02112934
1261.44002197,0.02077578
1263.36882935,0.02070015
1265.29763672,0.02030070
1267.22644409,0.02001517
1269.15525146,0.01988338
1271.08405884,0.01967576
1273.01286621,0.01915456
1274.94167358,0.01890124
1276.87048096,0.01863924
1278.79928833,0.01816656
1280.72809570,0.01809959
1282.65690308,0.01773375
1284.58571045,0.01720027
1286.51451782,0.01698770
1288.44332520,0.01678689
1290.37213257,0.01640628
1292.30093994,0.01624537
1294.22974731,0.01629844
1296.15855469,0.01614586
1298.08736206,0.01611486
1300.01616943,0.01620480
1301.94497681,0.01636053
1303.87378418,0.01642216
1305.80259155,0.01640987
1307.73139893,0.01664158
1309.66020630,0.01704211
1311.58901367,0.01735225
1313.51782104,0.01761249
1315.44662842,0.01809261
1317.37543579,0.01823979
1319.30424316,0.01866887
1321.23305054,0.01961609
1323.16185791,0.02022441
1325.09066528,0.02095502
1327.01947266,0.02148326
1328.94828003,0.02185209
1330.87708740,0.02253396
1332.80589478,0.02301449
1334.73470215,0.02332318
1336.66350952,0.02358372
1338.59231689,0.02326799
1340.52112427,0.02338456
1342.44993164,0.02457620
1344.37873901,0.02476267
1346.30754639,0.02465459
1348.23635376,0.02476616
1350.16516113,0.02449835
1352.09396851,0.02465845
1354.02277588,0.02427265
1355.95158325,0.02406414
1357.88039062,0.02395697
1359.80919800,0.02351071
1361.73800537,0.02266727
1363.66681274,0.02210369
1365.59562012,0.02332122
1367.52442749,0.02268134
1369.45323486,0.02248211
1371.38204224,0.02333146
1373.31084961,0.02161437
1375.23965698,0.02182349
1377.16846436,0.02265273
1379.09727173,0.02244514
1381.02607910,0.02257347
1382.95488647,0.02254059
1384.88369385,0.02255605
1386.81250122,0.02130644
1388.74130859,0.02162129
1390.67011597,0.02369086
1392.59892334,0.02307509
1394.52773071,0.02130335
1396.45653809,0.02233456
1398.38534546,0.02234261
1400.31415283,0.02217814
1402.24296021,0.02447657
1404.17176758,0.02285213
1406.10057495,0.02275318
1408.02938232,0.02397546
1409.95818970,0.02304147
1411.88699707,0.02376893
1413.81580444,0.02278992
1415.74461182,0.02331338
1417.67341919,0.02070067
1419.60222656,0.01799933
1421.53103394,0.02153265
1423.45984131,0.02071672
1425.38864868,0.02025517
1427.31745605,0.02081637
1429.24626343,0.01883082
1431.17507080,0.01832614
1433.10387817,0.01882698
1435.03268555,0.01720918
1436.96149292,0.01396471
1438.89030029,0.01634410
1440.81910767,0.01725239
1442.74791504,0.01558893
1444.67672241,0.01670457
1446.60552979,0.01525244
1448.53433716,0.01539116
1450.46314453,0.01607797
1452.39195190,0.01620039
1454.32075928,0.01687531
1456.24956665,0.01352347
1458.17837402,0.01390533
1460.10718140,0.01929469
1462.03598877,0.02084536
1463.96479614,0.02045205
1465.89360352,0.02100312
1467.82241089,0.02436762
1469.75121826,0.02636252
1471.68002563,0.02253706
1473.60883301,0.02374943
1475.53764038,0.02764956
1477.46644775,0.02980777
1479.39525513,0.03319829
1481.32406250,0.03356835
1483.25286987,0.03578947
1485.18167725,0.03682638
1487.11048462,0.03587980
1489.03929199,0.03545947
1490.96809937,0.03535350
1492.89690674,0.04241003
1494.82571411,0.04113055
1496.75452148,0.03586657
1498.68332886,0.04149395
1500.61213623,0.04287448
1502.54094360,0.04632816
1504.46975098,0.04359186
1506.39855835,0.02954840
1508.32736572,0.03696400
1510.25617310,0.04519721
1512.18498047,0.04378230
1514.11378784,0.04799594
1516.04259521,0.04227760
1517.97140259,0.04407074
1519.90020996,0.04296523
1521.82901733,0.03576617
1523.75782471,0.04537098
1525.68663208,0.04459570
1527.61543945,0.04401703
1529.54424683,0.05019433
1531.47305420,0.04787531
1533.40186157,0.04293717
1535.33066895,0.04580430
1537.25947632,0.05016246
1539.18828369,0.03378644
1541.11709106,0.03480622
1543.04589844,0.04394814
1544.97470581,0.04152863
1546.90351318,0.05129102
1548.83232056,0.04748578
1550.76112793,0.04852203
1552.68993530,0.04917895
1554.61874268,0.04332154
1556.54755005,0.04700058
1558.47635742,0.03103991
1560.40516479,0.03353640
1562.33397217,0.05196621
1564.26277954,0.04857860
1566.19158691,0.05030220
1568.12039429,0.04980654
1570.04920166,0.04278147
1571.97800903,0.05092485
1573.90681641,0.05194876
1575.83562378,0.03948823
1577.76443115,0.04551408
1579.69323853,0.05277834
1581.62204590,0.05029196
1583.55085327,0.05168470
1585.47966064,0.05084280
1587.40846802,0.05137273
1589.33727539,0.05088855
1591.26608276,0.05092312
1593.19489014,0.05098018
1595.12369751,0.05002255
1597.05250488,0.05113252
1598.98131226,0.05089507
1600.91011963,0.05113521
1602.83892700,0.05013818
1604.76773437,0.05127240
1606.69654175,0.05045776
1608.62534912,0.05013470
1610.55415649,0.05034918
1612.48296387,0.05063973
1614.41177124,0.05160768
1616.34057861,0.04089266
1618.26938599,0.04455771
1620.19819336,0.05361842
1622.12700073,0.04642981
1624.05580811,0.04635057
1625.98461548,0.04947497
1627.91342285,0.04929147
1629.84223022,0.04879105
1631.77103760,0.05270552
1633.69984497,0.04842737
1635.62865234,0.03808820
1637.55745972,0.04544950
1639.48626709,0.05151706
1641.41507446,0.04989681
1643.34388184,0.05152766
1645.27268921,0.04579608
1647.20149658,0.03858737
1649.13030396,0.05010163
1651.05911133,0.04805170
1652.98791870,0.02794519
1654.91672607,0.04009057
1656.84553345,0.05300768
1658.77434082,0.05057886
1660.70314819,0.05213148
1662.63195557,0.04643793
1664.56076294,0.04926267
1666.48957031,0.05388061
1668.41837769,0.04603787
1670.34718506,0.04416803
1672.27599243,0.05143148
1674.20479980,0.04708251
1676.13360718,0.04433175
1678.06241455,0.05261355
1679.99122192,0.05047150
1681.92002930,0.04956806
1683.84883667,0.03916611
1685.77764404,0.03835262
1687.70645142,0.05580354
1689.63525879,0.04747158
1691.56406616,0.05291387
1693.49287354,0.05470566
1695.42168091,0.03736818
1697.35048828,0.04803268
1699.27929565,0.04147858
1701.20810303,0.03583480
1703.13691040,0.05240645
1705.06571777,0.04747442
1706.99452515,0.04775889
1708.92333252,0.05313583
1710.85213989,0.05077244
1712.78094727,0.05175995
1714.70975464,0.04730698
1716.63856201,0.04173953
1718.56736938,0.04073658
1720.49617676,0.04977928
1722.42498413,0.05270168
1724.35379150,0.04802850
1726.28259888,0.05326178
1728.21140625,0.04887103
1730.14021362,0.04883138
1732.06902100,0.04797988
1733.99782837,0.03437907
1735.92663574,0.04462038
1737.85544312,0.05068263
1739.78425049,0.04376661
1741.71305786,0.04849045
1743.64186523,0.04911941
1745.57067261,0.04913393
1747.49947998,0.04962110
1749.42828735,0.04696259
1751.35709473,0.04460584
1753.28590210,0.05031947
1755.21470947,0.05345616
1757.14351685,0.04765023
1759.07232422,0.05337154
1761.00113159,0.04988619
1762.92993896,0.04722144
1764.85874634,0.05589477
1766.78755371,0.04954848
1768.71636108,0.04976756
1770.64516846,0.04950403
1772.57397583,0.04346059
1774.50278320,0.04966757
1776.43159058,0.05304664
1778.36039795,0.05228987
1780.28920532,0.05145923
1782.21801270,0.05197502
1784.14682007,0.05198088
1786.07562744,0.05061421
1788.00443481,0.05396285
1789.93324219,0.05230502
1791.86204956,0.04615299
1793.79085693,0.04863653
1795.71966431,0.05309394
1797.64847168,0.05239690
1799.57727905,0.05133705
1801.50608643,0.05014161
1803.43489380,0.05218626
1805.36370117,0.05371891
1807.29250854,0.05281886
1809.22131592,0.05296522
1811.15012329,0.05116760
1813.07893066,0.05320814
1815.00773804,0.05371101
1816.93654541,0.05281793
1818.86535278,0.05335493
1820.79416016,0.05300869
1822.72296753,0.05392619
1824.65177490,0.04967993
1826.58058228,0.05182216
1828.50938965,0.05229215
1830.43819702,0.04812405
1832.36700439,0.05331296
1834.29581177,0.05323017
1836.22461914,0.05295941
1838.15342651,0.05281489
1840.08223389,0.05318958
1842.01104126,0.05345815
1843.93984863,0.04628921
1845.86865601,0.04965187
1847.79746338,0.05319851
1849.72627075,0.05197812
1851.65507812,0.05387154
1853.58388550,0.05253727
1855.51269287,0.05311237
1857.44150024,0.05290232
1859.37030762,0.05239903
1861.29911499,0.05287399
1863.22792236,0.05234616
1865.15672974,0.05310396
1867.08553711,0.05093921
1869.01434448,0.04819398
1870.94315186,0.05064858
1872.87195923,0.05310117
1874.80076660,0.05207467
1876.72957397,0.05252883
1878.65838135,0.05233078
1880.58718872,0.05204432
1882.51599609,0.05265635
1884.44480347,0.05156586
1886.37361084,0.05248807
1888.30241821,0.05115808
1890.23122559,0.04995003
1892.16003296,0.05225021
1894.08884033,0.05141497
1896.01764771,0.05113091
1897.94645508,0.05191024
1899.87526245,0.05154034
1901.80406982,0.05167652
1903.73287720,0.05144466
1905.66168457,0.05173347
1907.59049194,0.05105636
1909.51929932,0.05055149
1911.44810669,0.05119168
1913.37691406,0.05136231
1915.30572144,0.05183975
1917.23452881,0.04927002
1919.16333618,0.04907875
1921.09214355,0.05150130
1923.02095093,0.04958433
1924.94975830,0.05060124
1926.87856567,0.05154460
1928.80737305,0.05072957
1930.73618042,0.05139527
1932.66498779,0.05059002
1934.59379517,0.05123898
1936.52260254,0.05077519
1938.45140991,0.05093079
1940.38021729,0.05110291
1942.30902466,0.04898208
1944.23783203,0.05004605
1946.16663940,0.05076197
1948.09544678,0.05062670
1950.02425415,0.05090860
1951.95306152,0.05089178
1953.88186890,0.05096226
1955.81067627,0.05055518
1957.73948364,0.05094144
1959.66829102,0.05079946
1961.59709839,0.05066635
1963.52590576,0.05089299
1965.45471313,0.05039993
1967.38352051,0.04985469
1969.31232788,0.05033704
1971.24113525,0.05084938
1973.16994263,0.05046026
1975.09875000,0.05062160
1977.02755737,0.05036025
1978.95636475,0.05043587
1980.88517212,0.05041515
1982.81397949,0.05013138
1984.74278687,0.05045534
1986.67159424,0.04996704
1988.60040161,0.05008604
1990.52920898,0.04948075
1992.45801636,0.04888637
1994.38682373,0.04985065
1996.31563110,0.04999022
1998.24443848,0.04988040
2000.17324585,0.04978911
2002.10205322,0.04981105
2004.03086060,0.04992696
2005.95966797,0.04953330
2007.88847534,0.04935750
2009.81728271,0.04942050
2011.74609009,0.04926683
2013.67489746,0.04928671
2015.60370483,0.04891992
2017.53251221,0.04841284
2019.46131958,0.04895839
2021.39012695,0.04896612
2023.31893433,0.04870970
2025.24774170,0.04885045
2027.17654907,0.04865969
2029.10535645,0.04869064
2031.03416382,0.04857160
2032.96297119,0.04835793
2034.89177856,0.04823792
2036.82058594,0.04822065
2038.74939331,0.04817284
2040.67820068,0.04784837
2042.60700806,0.04772771
2044.53581543,0.04791426
2046.46462280,0.04790429
2048.39343018,0.04762684
2050.32223755,0.04764096
2052.25104492,0.04757076
2054.17985229,0.04747284
2056.10865967,0.04755995
2058.03746704,0.04754218
2059.96627441,0.04737257
2061.89508179,0.04721959
2063.82388916,0.04710357
2065.75269653,0.04678710
2067.68150391,0.04699188
2069.61031128,0.04701617
2071.53911865,0.04670452
2073.46792603,0.04678736
2075.39673340,0.04665500
2077.32554077,0.04657175
2079.25434814,0.04660567
2081.18315552,0.04657274
2083.11196289,0.04636861
2085.04077026,0.04637171
2086.96957764,0.04638421
2088.89838501,0.04613432
2090.82719238,0.04614718
2092.75599976,0.04609857
2094.68480713,0.04616674
2096.61361450,0.04611742
2098.54242187,0.04593818
2100.47122925,0.04589238
2102.40003662,0.04586629
2104.32884399,0.04574156
2106.25765137,0.04559349
2108.18645874,0.04565598
2110.11526611,0.04545421
2112.04407349,0.04561346
2113.97288086,0.04552791
2115.90168823,0.04530242
2117.83049561,0.04561546
2119.75930298,0.04525198
2121.68811035,0.04508845
2123.61691772,0.04511101
2125.54572510,0.04497904
2127.47453247,0.04512984
2129.40333984,0.04506367
2131.33214722,0.04488066
2133.26095459,0.04487339
2135.18976196,0.04490633
2137.11856934,0.04477718
2139.04737671,0.04477031
2140.97618408,0.04468917
2142.90499146,0.04470024
2144.83379883,0.04459577
2146.76260620,0.04448256
2148.69141357,0.04462337
2150.62022095,0.04434881
2152.54902832,0.04439040
2154.47783569,0.04438826
2156.40664307,0.04429441
2158.33545044,0.04438144
2160.26425781,0.04422661
2162.19306519,0.04423049
2164.12187256,0.04413039
2166.05067993,0.04413962
2167.97948730,0.04411005
2169.90829468,0.04401505
2171.83710205,0.04406431
2173.76590942,0.04406630
2175.69471680,0.04394682
2177.62352417,0.04384413
2179.55233154,0.04404755
2181.48113892,0.04397214
2183.40994629,0.04381831
2185.33875366,0.04363044
2187.26756104,0.04366855
2189.19636841,0.04375524
2191.12517578,0.04342332
2193.05398315,0.04353375
2194.98279053,0.04355349
2196.91159790,0.04353544
2198.84040527,0.04348819
2200.76921265,0.04332721
2202.69802002,0.04340416
2204.62682739,0.04335853
2206.55563477,0.04339822
2208.48444214,0.04328810
2210.41324951,0.04326627
2212.34205688,0.04313177
2214.27086426,0.04290838
2216.19967163,0.04302400
2218.12847900,0.04301273
2220.05728638,0.04297165
2221.98609375,0.04292040
2223.91490112,0.04297482
2225.84370850,0.04285707
2227.77251587,0.04278455
2229.70132324,0.04285553
2231.63013062,0.04270573
2233.55893799,0.04268549
2235.48774536,0.04253539
2237.41655273,0.04240866
2239.34536011,0.04234111
2241.27416748,0.04231969
2243.20297485,0.04230977
2245.13178223,0.04218217
2247.06058960,0.04227997
2248.98939697,0.04226276
2250.91820435,0.04221852
2252.84701172,0.04216693
2254.77581909,0.04203213
2256.70462646,0.04202277
2258.63343384,0.04192851
2260.56224121,0.04193921
2262.49104858,0.04198371
2264.41985596,0.04186684
2266.34866333,0.04181677
2268.27747070,0.04172080
2270.20627808,0.04167294
2272.13508545,0.04171953
2274.06389282,0.04161526
2275.99270020,0.04153477
2277.92150757,0.04145117
2279.85031494,0.04154360
2281.77912231,0.04155253
2283.70792969,0.04137284
2285.63673706,0.04139312
2287.56554443,0.04127115
2289.49435181,0.04135635
2291.42315918,0.04119371
2293.35196655,0.04088283
2295.28077393,0.04103895
2297.20958130,0.04097570
2299.13838867,0.04077487
2301.06719604,0.04041217
2302.99600342,0.04033089
2304.92481079,0.04025108
2306.85361816,0.03997000
2308.78242554,0.03983582
2310.71123291,0.03930874
2312.64004028,0.03897667
2314.56884766,0.03873122
2316.49765503,0.03838996
2318.42646240,0.03791393
2320.35526978,0.03729882
2322.28407715,0.03687538
2324.21288452,0.03643819
2326.14169189,0.03620479
2328.07049927,0.03571002
2329.99930664,0.03529050
2331.92811401,0.03518539
2333.85692139,0.03495391
2335.78572876,0.03477497
2337.71453613,0.03468093
2339.64334351,0.03483181
2341.57215088,0.03501878
2343.50095825,0.03538316
2345.42976562,0.03595994
2347.35857300,0.03731230
2349.28738037,0.03847934
2351.21618774,0.03728374
2353.14499512,0.03543955
2355.07380249,0.03436003
2357.00260986,0.03338872
2358.93141724,0.03273849
2360.86022461,0.03248928
2362.78903198,0.03223646
2364.71783936,0.03238258
2366.64664673,0.03299075
2368.57545410,0.03350054
2370.50426147,0.03429365
2372.43306885,0.03520733
2374.36187622,0.03600038
2376.29068359,0.03685995
2378.21949097,0.03781281
2380.14829834,0.03849541
2382.07710571,0.03873953
2384.00591309,0.03900804
2385.93472046,0.03913394
2387.86352783,0.03923280
2389.79233521,0.03925024
2391.72114258,0.03920007
2393.64994995,0.03917576
2395.57875732,0.03900377
2397.50756470,0.03899744
2399.43637207,0.03898462
2401.36517944,0.03887526
2403.29398682,0.03881986
2405.22279419,0.03883301
2407.15160156,0.03857427
2409.08040894,0.03850385
2411.00921631,0.03866822
2412.93802368,0.03852895
2414.86683105,0.03860777
2416.79563843,0.03852689
2418.72444580,0.03851924
2420.65325317,0.03845891
2422.58206055,0.03835524
2424.51086792,0.03852975
2426.43967529,0.03828051
2428.36848267,0.03834725
2430.29729004,0.03831546
2432.22609741,0.03819231
2434.15490479,0.03833440
2436.08371216,0.03815515
2438.01251953,0.03809171
2439.94132690,0.03803470
2441.87013428,0.03804895
2443.79894165,0.03799318
2445.72774902,0.03800388
2447.65655640,0.03798956
2449.58536377,0.03779936
2451.51417114,0.03781912
2453.44297852,0.03766871
2455.37178589,0.03770105
2457.30059326,0.03776423
2459.22940063,0.03768442
2461.15820801,0.03765996
2463.08701538,0.03763361
2465.01582275,0.03755700
2466.94463013,0.03739549
2468.87343750,0.03749310
2470.80224487,0.03736945
2472.73105225,0.03727449
2474.65985962,0.03726762
2476.58866699,0.03714556
2478.51747437,0.03727509
2480.44628174,0.03723921
2482.37508911,0.03724386
2484.30389648,0.03716274
2486.23270386,0.03700754
2488.16151123,0.03703438
2490.09031860,0.03695335
2492.01912598,0.03693569
2493.94793335,0.03691223
2495.87674072,0.03692037
2497.80554810,0.03693114
2499.73435547,0.03682869
2501.66316284,0.03676683
2503.59197021,0.03667072
2505.52077759,0.03659463
2507.44958496,0.03667504
2509.37839233,0.03664557
2511.30719971,0.03649529
2513.23600708,0.03647607
2515.16481445,0.03637535
2517.09362183,0.03629285
2519.02242920,0.03641726
2520.95123657,0.03643335
2522.88004395,0.03626070
2524.80885132,0.03620134
2526.73765869,0.03618541
2528.66646606,0.03617940
2530.59527344,0.03625212
2532.52408081,0.03612974
2534.45288818,0.03606709
2536.38169556,0.03612395
2538.31050293,0.03605667
2540.23931030,0.03591893
2542.16811768,0.03593080
2544.09692505,0.03595077
2546.02573242,0.03580312
2547.95453979,0.03589041
2549.88334717,0.03576709
2551.81215454,0.03557286
2553.74096191,0.03568373
2555.66976929,0.03563450
2557.59857666,0.03558809
2559.52738403,0.03557484
2561.45619141,0.03553737
2563.38499878,0.03545978
2565.31380615,0.03543794
2567.24261353,0.03537001
2569.17142090,0.03535822
2571.10022827,0.03543647
2573.02903564,0.03526822
2574.95784302,0.03529766
2576.88665039,0.03524057
2578.81545776,0.03511243
2580.74426514,0.03515811
2582.67307251,0.03507248
2584.60187988,0.03502813
2586.53068726,0.03497251
2588.45949463,0.03496213
2590.38830200,0.03490924
2592.31710937,0.03489847
2594.24591675,0.03483013
2596.17472412,0.03474297
2598.10353149,0.03481843
2600.03233887,0.03472397
2601.96114624,0.03476781
2603.88995361,0.03466364
2605.81876099,0.03441102
2607.74756836,0.03449000
2609.67637573,0.03453164
2611.60518311,0.03444963
2613.53399048,0.03446683
2615.46279785,0.03448931
2617.39160522,0.03437273
2619.32041260,0.03430099
2621.24921997,0.03417231
2623.17802734,0.03416124
2625.10683472,0.03423406
2627.03564209,0.03416216
2628.96444946,0.03413557
2630.89325684,0.03402846
2632.82206421,0.03402319
2634.75087158,0.03401423
2636.67967895,0.03392677
2638.60848633,0.03387287
2640.53729370,0.03385592
2642.46610107,0.03379000
2644.39490845,0.03365447
2646.32371582,0.03375981
2648.25252319,0.03371960
2650.18133057,0.03366776
2652.11013794,0.03359134
2654.03894531,0.03353151
2655.96775269,0.03369350
2657.89656006,0.03352177
2659.82536743,0.03349182
2661.75417480,0.03345649
2663.68298218,0.03332879
2665.61178955,0.03337502
2667.54059692,0.03323734
2669.46940430,0.03323537
2671.39821167,0.03324488
2673.32701904,0.03319927
2675.25582642,0.03322142
2677.18463379,0.03310039
2679.11344116,0.03297953
2681.04224854,0.03305224
2682.97105591,0.03299409
2684.89986328,0.03284402
2686.82867065,0.03288236
2688.75747803,0.03281924
2690.68628540,0.03284080
2692.61509277,0.03283998
2694.54390015,0.03273776
2696.47270752,0.03269347
2698.40151489,0.03261057
2700.33032227,0.03260636
2702.25912964,0.03255571
2704.18793701,0.03254076
2706.11674438,0.03245051
2708.04555176,0.03243886
2709.97435913,0.03245079
2711.90316650,0.03228050
2713.83197388,0.03234931
2715.76078125,0.03232671
2717.68958862,0.03221817
2719.61839600,0.03215227
2721.54720337,0.03216094
2723.47601074,0.03220683
2725.40481812,0.03203314
2727.33362549,0.03200237
2729.26243286,0.03192756
2731.19124023,0.03187679
2733.12004761,0.03194712
2735.04885498,0.03181739
2736.97766235,0.03177544
2738.90646973,0.03178809
2740.83527710,0.03170644
2742.76408447,0.03160720
2744.69289185,0.03158306
2746.62169922,0.03164801
2748.55050659,0.03158766
2750.47931396,0.03143033
2752.40812134,0.03131860
2754.33692871,0.03128853
2756.26573608,0.03141932
2758.19454346,0.03133043
2760.12335083,0.03110587
2762.05215820,0.03126866
2763.98096558,0.03120971
2765.90977295,0.03102654
2767.83858032,0.03112274
2769.76738770,0.03102689
2771.69619507,0.03095137
2773.62500244,0.03092152
2775.55380981,0.03081897
2777.48261719,0.03077809
2779.41142456,0.03074357
2781.34023193,0.03079272
2783.26903931,0.03068306
2785.19784668,0.03050591
2787.12665405,0.03059857
2789.05546143,0.03058580
2790.98426880,0.03045931
2792.91307617,0.03043686
2794.84188354,0.03040018
2796.77069092,0.03035488
2798.69949829,0.03024267
2800.62830566,0.03021264
2802.55711304,0.03017732
2804.48592041,0.03011610
2806.41472778,0.03011909
2808.34353516,0.02998494
2810.27234253,0.03002971
2812.20114990,0.02997378
2814.12995728,0.02984008
2816.05876465,0.02988291
2817.98757202,0.02972882
2819.91637939,0.02972437
2821.84518677,0.02966892
2823.77399414,0.02958725
2825.70280151,0.02957638
2827.63160889,0.02939637
2829.56041626,0.02939183
2831.48922363,0.02925747
2833.41803101,0.02922246
2835.34683838,0.02925701
2837.27564575,0.02905264
2839.20445312,0.02903843
2841.13326050,0.02892515
2843.06206787,0.02881676
2844.99087524,0.02865438
2846.91968262,0.02829486
2848.84848999,0.02815162
2850.77729736,0.02804449
2852.70610474,0.02813556
2854.63491211,0.02829426
2856.56371948,0.02825304
2858.49252686,0.02831823
2860.42133423,0.02834011
2862.35014160,0.02831401
2864.27894897,0.02827679
2866.20775635,0.02817111
2868.13656372,0.02805749
2870.06537109,0.02797144
2871.99417847,0.02803889
2873.92298584,0.02805775
2875.85179321,0.02797387
2877.78060059,0.02795615
2879.70940796,0.02800801
2881.63821533,0.02797149
2883.56702270,0.02783668
2885.49583008,0.02776819
2887.42463745,0.02770191
2889.35344482,0.02768489
2891.28225220,0.02753848
2893.21105957,0.02741950
2895.13986694,0.02747053
2897.06867432,0.02739690
2898.99748169,0.02736766
2900.92628906,0.02718502
2902.85509644,0.02710123
2904.78390381,0.02713516
2906.71271118,0.02694630
2908.64151855,0.02691606
2910.57032593,0.02673535
2912.49913330,0.02658639
2914.42794067,0.02650353
2916.35674805,0.02622665
2918.28555542,0.02624521
2920.21436279,0.02627131
2922.14317017,0.02628554
2924.07197754,0.02639674
2926.00078491,0.02631282
2927.92959229,0.02627253
2929.85839966,0.02637025
2931.78720703,0.02642867
2933.71601440,0.02644505
2935.64482178,0.02649578
2937.57362915,0.02653855
2939.50243652,0.02659594
2941.43124390,0.02661709
2943.36005127,0.02652587
2945.28885864,0.02648546
2947.21766602,0.02642508
2949.14647339,0.02632417
2951.07528076,0.02640443
2953.00408813,0.02636836
2954.93289551,0.02614046
2956.86170288,0.02617512
2958.79051025,0.02619106
2960.71931763,0.02599316
2962.64812500,0.02596394
2964.57693237,0.02597472
2966.50573975,0.02593449
2968.43454712,0.02606855
2970.36335449,0.02608977
2972.29216187,0.02596257
2974.22096924,0.02608350
2976.14977661,0.02616697
2978.07858398,0.02609326
2980.00739136,0.02607308
2981.93619873,0.02604678
2983.86500610,0.02599039
2985.79381348,0.02592157
2987.72262085,0.02594788
2989.65142822,0.02602967
2991.58023560,0.02597846
2993.50904297,0.02579588
2995.43785034,0.02585405
2997.36665771,0.02592177
2999.29546509,0.02577706
3001.22427246,0.02576968
3003.15307983,0.02561875
3005.08188721,0.02556851
3007.01069458,0.02561180
3008.93950195,0.02553349
3010.86830933,0.02553433
3012.79711670,0.02539769
3014.72592407,0.02537229
3016.65473145,0.02529595
3018.58353882,0.02523182
3020.51234619,0.02524957
3022.44115356,0.02521844
3024.36996094,0.02527257
3026.29876831,0.02510306
3028.22757568,0.02510775
3030.15638306,0.02497386
3032.08519043,0.02483748
3034.01399780,0.02503816
3035.94280518,0.02488330
3037.87161255,0.02483779
3039.80041992,0.02482240
3041.72922729,0.02481141
3043.65803467,0.02472804
3045.58684204,0.02453843
3047.51564941,0.02467951
3049.44445679,0.02448262
3051.37326416,0.02446533
3053.30207153,0.02458481
3055.23087891,0.02438683
3057.15968628,0.02445908
3059.08849365,0.02431108
3061.01730103,0.02422086
3062.94610840,0.02429194
3064.87491577,0.02407772
3066.80372314,0.02406708
3068.73253052,0.02412002
3070.66133789,0.02410835
3072.59014526,0.02405780
3074.51895264,0.02393639
3076.44776001,0.02399924
3078.37656738,0.02397054
3080.30537476,0.02385753
3082.23418213,0.02381693
3084.16298950,0.02370053
3086.09179687,0.02363455
3088.02060425,0.02364342
3089.94941162,0.02371630
3091.87821899,0.02363671
3093.80702637,0.02342226
3095.73583374,0.02341775
3097.66464111,0.02343956
3099.59344849,0.02334761
3101.52225586,0.02331524
3103.45106323,0.02331645
3105.37987061,0.02321638
3107.30867798,0.02323027
3109.23748535,0.02317645
3111.16629272,0.02302721
3113.09510010,0.02310623
3115.02390747,0.02300428
3116.95271484,0.02291958
3118.88152222,0.02293069
3120.81032959,0.02277303
3122.73913696,0.02272654
3124.66794434,0.02271925
3126.59675171,0.02271758
3128.52555908,0.02272368
3130.45436645,0.02265770
3132.38317383,0.02252150
3134.31198120,0.02248812
3136.24078857,0.02241362
3138.16959595,0.02230713
3140.09840332,0.02235739
3142.02721069,0.02222622
3143.95601807,0.02227494
3145.88482544,0.02223688
3147.81363281,0.02205938
3149.74244019,0.02214833
3151.67124756,0.02190294
3153.60005493,0.02191522
3155.52886230,0.02198058
3157.45766968,0.02170617
3159.38647705,0.02189132
3161.31528442,0.02183318
3163.24409180,0.02160902
3165.17289917,0.02175926
3167.10170654,0.02156144
3169.03051392,0.02142283
3170.95932129,0.02156821
3172.88812866,0.02142102
3174.81693604,0.02134775
3176.74574341,0.02128719
3178.67455078,0.02115183
3180.60335815,0.02112807
3182.53216553,0.02106809
3184.46097290,0.02111578
3186.38978027,0.02104742
3188.31858765,0.02097859
3190.24739502,0.02096939
3192.17620239,0.02085828
3194.10500977,0.02085778
3196.03381714,0.02074127
3197.96262451,0.02062564
3199.89143188,0.02070887
3201.82023926,0.02075057
3203.74904663,0.02056789
3205.67785400,0.02050769
3207.60666138,0.02055604
3209.53546875,0.02045601
3211.46427612,0.02053924
3213.39308350,0.02042783
3215.32189087,0.02020954
3217.25069824,0.02023648
3219.17950562,0.02033338
3221.10831299,0.02033965
3223.03712036,0.02014885
3224.96592773,0.02018053
3226.89473511,0.02010088
3228.82354248,0.01997337
3230.75234985,0.02010775
3232.68115723,0.02001547
3234.60996460,0.01995535
3236.53877197,0.01996189
3238.46757935,0.01987942
3240.39638672,0.01992650
3242.32519409,0.01994101
3244.25400146,0.01979191
3246.18280884,0.01977679
3248.11161621,0.01980116
3250.04042358,0.01972951
3251.96923096,0.01975720
3253.89803833,0.01974101
3255.82684570,0.01968887
3257.75565308,0.01964039
3259.68446045,0.01964388
3261.61326782,0.01959817
3263.54207520,0.01961830
3265.47088257,0.01970852
3267.39968994,0.01955139
3269.32849731,0.01959333
3271.25730469,0.01958623
3273.18611206,0.01943976
3275.11491943,0.01939695
3277.04372681,0.01932414
3278.97253418,0.01945415
3280.90134155,0.01946962
3282.83014893,0.01940534
3284.75895630,0.01943001
3286.68776367,0.01946488
3288.61657104,0.01941867
3290.54537842,0.01931549
3292.47418579,0.01937972
3294.40299316,0.01935427
3296.33180054,0.01932932
3298.26060791,0.01925451
3300.18941528,0.01915596
3302.11822266,0.01922478
3304.04703003,0.01924258
3305.97583740,0.01918956
3307.90464478,0.01911311
3309.83345215,0.01909433
3311.76225952,0.01905939
3313.69106689,0.01908452
3315.61987427,0.01908046
3317.54868164,0.01902308
3319.47748901,0.01901881
3321.40629639,0.01897799
3323.33510376,0.01898235
3325.26391113,0.01886130
3327.19271851,0.01883131
3329.12152588,0.01893255
3331.05033325,0.01892826
3332.97914062,0.01888487
3334.90794800,0.01877437
3336.83675537,0.01864464
3338.76556274,0.01864417
3340.69437012,0.01873444
3342.62317749,0.01865929
3344.55198486,0.01868371
3346.48079224,0.01862679
3348.40959961,0.01855509
3350.33840698,0.01864287
3352.26721436,0.01848987
3354.19602173,0.01855069
3356.12482910,0.01855223
3358.05363647,0.01840049
3359.98244385,0.01841567
3361.91125122,0.01844418
3363.84005859,0.01846908
3365.76886597,0.01839945
3367.69767334,0.01836346
3369.62648071,0.01826696
3371.55528809,0.01829388
3373.48409546,0.01831555
3375.41290283,0.01834570
3377.34171020,0.01831095
3379.27051758,0.01812932
3381.19932495,0.01819463
3383.12813232,0.01806863
3385.05693970,0.01812493
3386.98574707,0.01803068
3388.91455444,0.01786635
3390.84336182,0.01803778
3392.77216919,0.01781129
3394.70097656,0.01784337
3396.62978394,0.01783982
3398.55859131,0.01777888
3400.48739868,0.01789039
3402.41620605,0.01774284
3404.34501343,0.01770076
3406.27382080,0.01772827
3408.20262817,0.01769314
3410.13143555,0.01758548
3412.06024292,0.01771509
3413.98905029,0.01762401
3415.91785767,0.01751621
3417.84666504,0.01763002
3419.77547241,0.01744567
3421.70427979,0.01749257
3423.63308716,0.01745554
3425.56189453,0.01742540
3427.49070190,0.01745067
3429.41950928,0.01735569
3431.34831665,0.01733581
3433.27712402,0.01728696
3435.20593140,0.01731427
3437.13473877,0.01718350
3439.06354614,0.01725383
3440.99235352,0.01720946
3442.92116089,0.01710990
3444.84996826,0.01715535
3446.77877563,0.01688238
3448.70758301,0.01703581
3450.63639038,0.01723967
3452.56519775,0.01705054
3454.49400513,0.01698665
3456.42281250,0.01703899
3458.35161987,0.01700757
3460.28042725,0.01695726
3462.20923462,0.01684259
3464.13804199,0.01683562
3466.06684937,0.01695964
3467.99565674,0.01682307
3469.92446411,0.01691028
3471.85327148,0.01691356
3473.78207886,0.01677620
3475.71088623,0.01673791
3477.63969360,0.01676508
3479.56850098,0.01686605
3481.49730835,0.01650529
3483.42611572,0.01655068
3485.35492310,0.01673683
3487.28373047,0.01663343
3489.21253784,0.01662120
3491.14134521,0.01660307
3493.07015259,0.01670307
3494.99895996,0.01657768
3496.92776733,0.01661490
3498.85657471,0.01663347
3500.78538208,0.01652624
3502.71418945,0.01623822
3504.64299683,0.01632335
3506.57180420,0.01678918
3508.50061157,0.01632574
3510.42941895,0.01639498
3512.35822632,0.01660413
3514.28703369,0.01649741
3516.21584106,0.01672333
3518.14464844,0.01650786
3520.07345581,0.01652307
3522.00226318,0.01638740
3523.93107056,0.01612051
3525.85987793,0.01620464
3527.78868530,0.01627853
3529.71749268,0.01626101
3531.64630005,0.01633053
3533.57510742,0.01660015
3535.50391479,0.01637560
3537.43272217,0.01625927
3539.36152954,0.01650303
3541.29033691,0.01643533
3543.21914429,0.01634622
3545.14795166,0.01599937
3547.07675903,0.01558356
3549.00556641,0.01621050
3550.93437378,0.01646659
3552.86318115,0.01593933
3554.79198853,0.01629468
3556.72079590,0.01641101
3558.64960327,0.01636789
3560.57841064,0.01616605
3562.50721802,0.01598903
3564.43602539,0.01630472
3566.36483276,0.01498863
3568.29364014,0.01445227
3570.22244751,0.01598316
3572.15125488,0.01647506
3574.08006226,0.01623163
3576.00886963,0.01629419
3577.93767700,0.01620611
3579.86648437,0.01620279
3581.79529175,0.01617165
3583.72409912,0.01621232
3585.65290649,0.01586195
3587.58171387,0.01430764
3589.51052124,0.01483166
3591.43932861,0.01635503
3593.36813599,0.01572993
3595.29694336,0.01544651
3597.22575073,0.01585691
3599.15455811,0.01608447
3601.08336548,0.01581207
3603.01217285,0.01592172
3604.94098022,0.01643308
3606.86978760,0.01565612
3608.79859497,0.01450155
3610.72740234,0.01502957
3612.65620972,0.01536186
3614.58501709,0.01486107
3616.51382446,0.01620852
3618.44263184,0.01474093
3620.37143921,0.01410133
3622.30024658,0.01627773
3624.22905395,0.01578788
3626.15786133,0.01663593
3628.08666870,0.01366144
3630.01547607,0.01213688
3631.94428345,0.01605524
3633.87309082,0.01552021
3635.80189819,0.01582253
3637.73070557,0.01634635
3639.65951294,0.01595657
3641.58832031,0.01611126
3643.51712769,0.01592375
3645.44593506,0.01609471
3647.37474243,0.01409759
3649.30354980,0.01271397
3651.23235718,0.01293561
3653.16116455,0.01583803
3655.08997192,0.01571998
3657.01877930,0.01366480
3658.94758667,0.01618924
3660.87639404,0.01592483
3662.80520142,0.01604619
3664.73400879,0.01607533
3666.66281616,0.01583153
3668.59162354,0.01531576
3670.52043091,0.01209218
3672.44923828,0.01504195
3674.37804565,0.01420261
3676.30685303,0.01135086
3678.23566040,0.01502020
3680.16446777,0.01538606
3682.09327515,0.01546620
3684.02208252,0.01598223
3685.95088989,0.01561593
3687.87969727,0.01407836
3689.80850464,0.01260993
3691.73731201,0.01458823
3693.66611938,0.01525019
3695.59492676,0.01557352
3697.52373413,0.01560503
3699.45254150,0.01549751
3701.38134888,0.01498308
3703.31015625,0.01429831
3705.23896362,0.01595518
3707.16777100,0.01513284
3709.09657837,0.01462718
3711.02538574,0.01351654
3712.95419312,0.01258925
3714.88300049,0.01522959
3716.81180786,0.01493955
3718.74061523,0.01511204
3720.66942261,0.01480173
3722.59822998,0.01413780
3724.52703735,0.01482259
3726.45584473,0.01363024
3728.38465210,0.01483241
3730.31345947,0.01477712
3732.24226685,0.01342823
3734.17107422,0.01291237
3736.09988159,0.01217453
3738.02868896,0.01303763
3739.95749634,0.01434232
3741.88630371,0.01514315
3743.81511108,0.01129322
3745.74391846,0.01052695
3747.67272583,0.01425154
3749.60153320,0.01192590
3751.53034058,0.01079373
3753.45914795,0.01282934
3755.38795532,0.01401708
3757.31676270,0.01460776
3759.24557007,0.01334831
3761.17437744,0.01393278
3763.10318481,0.01504321
3765.03199219,0.01388282
3766.96079956,0.01411066
3768.88960693,0.01396564
3770.81841431,0.01330045
3772.74722168,0.01463795
3774.67602905,0.01464879
3776.60483643,0.01461032
3778.53364380,0.01415360
3780.46245117,0.01346469
3782.39125854,0.01456875
3784.32006592,0.01418910
3786.24887329,0.01401728
3788.17768066,0.01443534
3790.10648804,0.01441451
3792.03529541,0.01429600
3793.96410278,0.01450583
3795.89291016,0.01352230
3797.82171753,0.01331870
3799.75052490,0.01420311
3801.67933228,0.01082822
3803.60813965,0.01296562
3805.53694702,0.01432266
3807.46575439,0.01125554
3809.39456177,0.01415603
3811.32336914,0.01387651
3813.25217651,0.01439696
3815.18098389,0.01282255
3817.10979126,0.01093284
3819.03859863,0.01438395
3820.96740601,0.01113007
3822.89621338,0.01195714
3824.82502075,0.01432010
3826.75382812,0.01254876
3828.68263550,0.01386696
3830.61144287,0.01320055
3832.54025024,0.01266772
3834.46905762,0.01302121
3836.39786499,0.01233853
3838.32667236,0.01102572
3840.25547974,0.01185056
3842.18428711,0.01305643
3844.11309448,0.01240350
3846.04190186,0.01349802
3847.97070923,0.01339352
3849.89951660,0.01339146
3851.82832397,0.01183226
3853.75713135,0.00835069
3855.68593872,0.01024378
3857.61474609,0.01341157
3859.54355347,0.01308425
3861.47236084,0.01291867
3863.40116821,0.01254035
3865.32997559,0.01146105
3867.25878296,0.01309187
3869.18759033,0.01183027
3871.11639770,0.01069827
3873.04520508,0.01312879
3874.97401245,0.01197855
3876.90281982,0.01307965
3878.83162720,0.01329368
3880.76043457,0.01103293
3882.68924194,0.01312258
3884.61804932,0.01218332
3886.54685669,0.01097192
3888.47566406,0.01321570
3890.40447144,0.01241220
3892.33327881,0.01144241
3894.26208618,0.01277038
3896.19089355,0.01306148
3898.11970093,0.01225590
3900.04850830,0.01152528
3901.97731567,0.01143975
3903.90612305,0.01125496
3905.83493042,0.01145725
3907.76373779,0.01281490
3909.69254517,0.01275355
3911.62135254,0.01261470
3913.55015991,0.01295842
3915.47896728,0.01239527
3917.40777466,0.01200790
3919.33658203,0.01190175
3921.26538940,0.01246547
3923.19419678,0.01234711
3925.12300415,0.01198066
3927.05181152,0.01231974
3928.98061890,0.01244484
3930.90942627,0.01216735
3932.83823364,0.01170011
3934.76704102,0.01231483
3936.69584839,0.01239841
3938.62465576,0.01224488
3940.55346313,0.01249059
3942.48227051,0.01185817
3944.41107788,0.01207346
3946.33988525,0.01238770
3948.26869263,0.01203580
3950.19750000,0.01196700
3952.12630737,0.01209764
3954.05511475,0.01226907
3955.98392212,0.01214639
3957.91272949,0.01209610
3959.84153687,0.01216543
3961.77034424,0.01197267
3963.69915161,0.01197252
3965.62795898,0.01217542
3967.55676636,0.01202113
3969.48557373,0.01197302
3971.41438110,0.01198233
3973.34318848,0.01193023
3975.27199585,0.01194468
3977.20080322,0.01185696
3979.12961060,0.01189670
3981.05841797,0.01180002
3982.98722534,0.01184090
3984.91603271,0.01187222
3986.84484009,0.01179317
3988.77364746,0.01178497
3990.70245483,0.01170744
3992.63126221,0.01180013
3994.56006958,0.01169859
3996.48887695,0.01172984
3998.41768433,0.01176030
4000.34649170,0.01170909
4002.27529907,0.01174184
4004.20410645,0.01153863
4006.13291382,0.01159354
4008.06172119,0.01157882
4009.99052856,0.01149856
4011.91933594,0.01155453
4013.84814331,0.01145461
4015.77695068,0.01140509
4017.70575806,0.01145734
4019.63456543,0.01140791
4021.56337280,0.01137849
4023.49218018,0.01141012
4025.42098755,0.01130560
4027.34979492,0.01142007
4029.27860229,0.01136401
4031.20740967,0.01122529
4033.13621704,0.01128161
4035.06502441,0.01123073
4036.99383179,0.01133339
4038.92263916,0.01126413
4040.85144653,0.01120162
4042.78025391,0.01117034
4044.70906128,0.01108628
4046.63786865,0.01116356
4048.56667603,0.01116679
4050.49548340,0.01114838
4052.42429077,0.01112282
4054.35309814,0.01107161
4056.28190552,0.01096111
4058.21071289,0.01099285
4060.13952026,0.01089294
4062.06832764,0.01085520
4063.99713501,0.01096142
4065.92594238,0.01087967
4067.85474976,0.01099846
4069.78355713,0.01084383
4071.71236450,0.01077262
4073.64117187,0.01083896
4075.56997925,0.01072696
4077.49878662,0.01082700
4079.42759399,0.01080035
4081.35640137,0.01071930
4083.28520874,0.01063697
4085.21401611,0.01069363
4087.14282349,0.01071600
4089.07163086,0.01070890
4091.00043823,0.01071188
4092.92924561,0.01052914
4094.85805298,0.01060100
4096.78686035,0.01065084
4098.71566772,0.01057417
4100.64447510,0.01047460
4102.57328247,0.01048226
4104.50208984,0.01047649
4106.43089722,0.01037725
4108.35970459,0.01046570
4110.28851196,0.01047496
4112.21731934,0.01041868
4114.14612671,0.01035298
4116.07493408,0.01039378
4118.00374145,0.01027977
4119.93254883,0.01022524
4121.86135620,0.01029873
4123.79016357,0.01018414
4125.71897095,0.01032441
4127.64777832,0.01026380
4129.57658569,0.01016700
4131.50539307,0.01023122
4133.43420044,0.01024720
4135.36300781,0.01019493
4137.29181519,0.01009092
4139.22062256,0.01015188
4141.14942993,0.01001312
4143.07823730,0.01004771
4145.00704468,0.01003553
4146.93585205,0.00996345
4148.86465942,0.01006411
4150.79346680,0.00996674
4152.72227417,0.01001753
4154.65108154,0.00997305
4156.57988892,0.00991364
4158.50869629,0.00992496
4160.43750366,0.00988418
4162.36631103,0.00981232
4164.29511841,0.00981074
4166.22392578,0.00982888
4168.15273315,0.00970635
4170.08154053,0.00981418
4172.01034790,0.00974796
4173.93915527,0.00971515
4175.86796265,0.00975954
4177.79677002,0.00968314
4179.72557739,0.00967517
4181.65438477,0.00961891
4183.58319214,0.00969003
4185.51199951,0.00954420
4187.44080688,0.00959990
4189.36961426,0.00960983
4191.29842163,0.00946746
4193.22722900,0.00960992
4195.15603638,0.00949001
4197.08484375,0.00947963
4199.01365112,0.00947184
4200.94245850,0.00948595
4202.87126587,0.00946834
4204.80007324,0.00935273
4206.72888062,0.00942628
4208.65768799,0.00940849
4210.58649536,0.00945727
4212.51530273,0.00936467
4214.44411011,0.00932373
4216.37291748,0.00934446
4218.30172485,0.00928823
4220.23053223,0.00929740
4222.15933960,0.00924693
4224.08814697,0.00926383
4226.01695435,0.00919368
4227.94576172,0.00920644
4229.87456909,0.00919463
4231.80337646,0.00916753
4233.73218384,0.00918798
4235.66099121,0.00911170
4237.58979858,0.00907655
4239.51860596,0.00898772
4241.44741333,0.00901091
4243.37622070,0.00902891
4245.30502808,0.00904250
4247.23383545,0.00900128
4249.16264282,0.00898327
4251.09145020,0.00897674
4253.02025757,0.00887477
4254.94906494,0.00901688
4256.87787231,0.00895530
4258.80667969,0.00889377
4260.73548706,0.00893423
4262.66429443,0.00889363
4264.59310181,0.00887556
4266.52190918,0.00874081
4268.45071655,0.00882517
4270.37952393,0.00885149
4272.30833130,0.00878162
4274.23713867,0.00878184
4276.16594604,0.00873622
4278.09475342,0.00868907
4280.02356079,0.00865176
4281.95236816,0.00864015
4283.88117554,0.00864354
4285.80998291,0.00869902
4287.73879028,0.00860331
4289.66759766,0.00861498
4291.59640503,0.00858501
4293.52521240,0.00853611
4295.45401978,0.00858959
4297.38282715,0.00846088
4299.31163452,0.00856054
4301.24044189,0.00850338
4303.16924927,0.00843789
4305.09805664,0.00848333
4307.02686401,0.00838479
4308.95567139,0.00842469
4310.88447876,0.00834842
4312.81328613,0.00837832
4314.74209351,0.00833845
4316.67090088,0.00827715
4318.59970825,0.00832330
4320.52851562,0.00826336
4322.45732300,0.00830912
4324.38613037,0.00824935
4326.31493774,0.00826025
4328.24374512,0.00828741
4330.17255249,0.00827171
4332.10135986,0.00824947
4334.03016724,0.00810826
4335.95897461,0.00816487
4337.88778198,0.00816045
4339.81658936,0.00806916
4341.74539673,0.00810446
4343.67420410,0.00809886
4345.60301147,0.00805542
4347.53181885,0.00803186
4349.46062622,0.00806557
4351.38943359,0.00807492
4353.31824097,0.00801502
4355.24704834,0.00799336
4357.17585571,0.00798165
4359.10466309,0.00800675
4361.03347046,0.00801431
4362.96227783,0.00790508
4364.89108520,0.00790484
4366.81989258,0.00789159
4368.74869995,0.00783875
4370.67750732,0.00784931
4372.60631470,0.00781643
4374.53512207,0.00781798
4376.46392944,0.00776850
4378.39273682,0.00773981
4380.32154419,0.00775068
4382.25035156,0.00777904
4384.17915894,0.00781169
4386.10796631,0.00776252
4388.03677368,0.00766860
4389.96558105,0.00763557
4391.89438843,0.00771676
4393.82319580,0.00766690
4395.75200317,0.00768052
4397.68081055,0.00764045
4399.60961792,0.00756755
4401.53842529,0.00766183
4403.46723267,0.00755620
4405.39604004,0.00754336
4407.32484741,0.00759388
4409.25365478,0.00760499
4411.18246216,0.00751900
4413.11126953,0.00742278
4415.04007690,0.00749245
4416.96888428,0.00742507
4418.89769165,0.00744915
4420.82649902,0.00740432
4422.75530640,0.00736611
4424.68411377,0.00743430
4426.61292114,0.00745964
4428.54172852,0.00743155
4430.47053589,0.00722717
4432.39934326,0.00729135
4434.32815063,0.00734309
4436.25695801,0.00727202
4438.18576538,0.00726601
4440.11457275,0.00728047
4442.04338013,0.00730707
4443.97218750,0.00718083
4445.90099487,0.00722234
4447.82980225,0.00718501
4449.75860962,0.00711885
4451.68741699,0.00720873
4453.61622437,0.00717208
4455.54503174,0.00714222
4457.47383911,0.00713165
4459.40264648,0.00710949
4461.33145386,0.00707590
4463.26026123,0.00705549
4465.18906860,0.00698675
4467.11787598,0.00701606
4469.04668335,0.00701684
4470.97549072,0.00696073
4472.90429810,0.00700392
4474.83310547,0.00693647
4476.76191284,0.00695844
4478.69072021,0.00692989
4480.61952759,0.00691143
4482.54833496,0.00687533
4484.47714233,0.00680775
4486.40594971,0.00687619
4488.33475708,0.00681897
4490.26356445,0.00691809
4492.19237183,0.00686731
4494.12117920,0.00677504
4496.04998657,0.00688002
4497.97879395,0.00678105
4499.90760132,0.00677139
4501.83640869,0.00681414
4503.76521606,0.00676715
4505.69402344,0.00672700
4507.62283081,0.00672353
4509.55163818,0.00666344
4511.48044556,0.00673101
4513.40925293,0.00674075
4515.33806030,0.00654616
4517.26686768,0.00662741
4519.19567505,0.00666760
4521.12448242,0.00667616
4523.05328979,0.00666659
4524.98209717,0.00659027
4526.91090454,0.00661172
4528.83971191,0.00658329
4530.76851929,0.00659033
4532.69732666,0.00651116
4534.62613403,0.00652928
4536.55494141,0.00650284
4538.48374878,0.00641613
4540.41255615,0.00649705
4542.34136353,0.00642884
4544.27017090,0.00638456
4546.19897827,0.00644887
4548.12778564,0.00646049
4550.05659302,0.00638891
4551.98540039,0.00640242
4553.91420776,0.00635273
4555.84301514,0.00624717
4557.77182251,0.00631179
4559.70062988,0.00632361
4561.62943726,0.00632375
4563.55824463,0.00622880
4565.48705200,0.00623226
4567.41585937,0.00629595
4569.34466675,0.00625497
4571.27347412,0.00628883
4573.20228149,0.00623845
4575.13108887,0.00619920
4577.05989624,0.00613382
4578.98870361,0.00613326
4580.91751099,0.00614438
4582.84631836,0.00618607
4584.77512573,0.00624302
4586.70393311,0.00607150
4588.63274048,0.00611003
4590.56154785,0.00611593
4592.49035522,0.00607421
4594.41916260,0.00611707
4596.34796997,0.00605832
4598.27677734,0.00611724
4600.20558472,0.00601307
4602.13439209,0.00597041
4604.06319946,0.00600420
4605.99200684,0.00590458
4607.92081421,0.00602347
4609.84962158,0.00602261
4611.77842895,0.00588834
4613.70723633,0.00593935
4615.63604370,0.00593148
4617.56485107,0.00585999
4619.49365845,0.00584407
4621.42246582,0.00587467
4623.35127319,0.00589061
4625.28008057,0.00583467
4627.20888794,0.00587977
4629.13769531,0.00587543
4631.06650269,0.00578417
4632.99531006,0.00580750
4634.92411743,0.00580586
4636.85292480,0.00578820
4638.78173218,0.00574241
4640.71053955,0.00570916
4642.63934692,0.00573781
4644.56815430,0.00573221
4646.49696167,0.00570516
4648.42576904,0.00570519
4650.35457642,0.00569029
4652.28338379,0.00564562
4654.21219116,0.00565834
4656.14099853,0.00560509
4658.06980591,0.00563461
4659.99861328,0.00567115
4661.92742065,0.00560884
4663.85622803,0.00562096
4665.78503540,0.00560731
4667.71384277,0.00567898
4669.64265015,0.00556197
4671.57145752,0.00547161
4673.50026489,0.00557982
4675.42907227,0.00555601
4677.35787964,0.00557880
4679.28668701,0.00546205
4681.21549438,0.00545152
4683.14430176,0.00548807
4685.07310913,0.00537539
4687.00191650,0.00541818
4688.93072388,0.00547614
4690.85953125,0.00545335
4692.78833862,0.00531203
4694.71714600,0.00536875
4696.64595337,0.00541786
4698.57476074,0.00532466
4700.50356812,0.00532187
4702.43237549,0.00525991
4704.36118286,0.00536315
4706.28999023,0.00540821
4708.21879761,0.00532938
4710.14760498,0.00529116
4712.07641235,0.00529933
4714.00521973,0.00529357
4715.93402710,0.00520934
4717.86283447,0.00529562
4719.79164185,0.00523845
4721.72044922,0.00518918
4723.64925659,0.00526540
4725.57806396,0.00520846
4727.50687134,0.00518724
4729.43567871,0.00516006
4731.36448608,0.00521370
4733.29329346,0.00515183
4735.22210083,0.00509273
4737.15090820,0.00518016
4739.07971558,0.00512778
4741.00852295,0.00510150
4742.93733032,0.00507934
4744.86613770,0.00512627
4746.79494507,0.00514319
4748.72375244,0.00507816
4750.65255981,0.00508473
4752.58136719,0.00498008
4754.51017456,0.00499117
4756.43898193,0.00505896
4758.36778931,0.00504171
4760.29659668,0.00502974
4762.22540405,0.00493427
4764.15421143,0.00499014
4766.08301880,0.00503561
4768.01182617,0.00495945
4769.94063354,0.00497742
4771.86944092,0.00494314
4773.79824829,0.00492598
4775.72705566,0.00493665
4777.65586304,0.00491326
4779.58467041,0.00486698
4781.51347778,0.00480348
4783.44228516,0.00487914
4785.37109253,0.00490660
4787.29989990,0.00486220
4789.22870728,0.00487437
4791.15751465,0.00479608
4793.08632202,0.00472478
4795.01512939,0.00472615
4796.94393677,0.00475993
4798.87274414,0.00473984
4800.80155151,0.00463649
4802.73035889,0.00467743
4804.65916626,0.00473203
4806.58797363,0.00470887
4808.51678101,0.00475007
4810.44558838,0.00470510
4812.37439575,0.00469298
4814.30320312,0.00471069
4816.23201050,0.00461476
4818.16081787,0.00465219
4820.08962524,0.00468668
4822.01843262,0.00462313
4823.94723999,0.00460662
4825.87604736,0.00462164
4827.80485474,0.00468165
4829.73366211,0.00462267
4831.66246948,0.00455230
4833.59127686,0.00461878
4835.52008423,0.00457098
4837.44889160,0.00451593
4839.37769897,0.00455917
4841.30650635,0.00450924
4843.23531372,0.00451193
4845.16412109,0.00458249
4847.09292847,0.00455094
4849.02173584,0.00451377
4850.95054321,0.00451307
4852.87935059,0.00449586
4854.80815796,0.00445893
4856.73696533,0.00444813
4858.66577270,0.00440017
4860.59458008,0.00441769
4862.52338745,0.00446258
4864.45219482,0.00441879
4866.38100220,0.00447426
4868.30980957,0.00438459
4870.23861694,0.00436217
4872.16742432,0.00446629
4874.09623169,0.00435830
4876.02503906,0.00434561
4877.95384644,0.00433909
4879.88265381,0.00434376
4881.81146118,0.00429671
4883.74026855,0.00426669
4885.66907593,0.00437575
4887.59788330,0.00429087
4889.52669067,0.00424659
4891.45549805,0.00424696
4893.38430542,0.00430574
4895.31311279,0.00428172
4897.24192017,0.00418107
4899.17072754,0.00430846
4901.09953491,0.00429665
4903.02834228,0.00426286
4904.95714966,0.00424971
4906.88595703,0.00424036
4908.81476440,0.00423506
4910.74357178,0.00414802
4912.67237915,0.00417852
4914.60118652,0.00415674
4916.52999390,0.00418888
4918.45880127,0.00421431
4920.38760864,0.00411824
4922.31641602,0.00408635
4924.24522339,0.00411630
4926.17403076,0.00411035
4928.10283813,0.00410678
4930.03164551,0.00414481
4931.96045288,0.00398614
4933.88926025,0.00403787
4935.81806763,0.00409766
4937.74687500,0.00393599
4939.67568237,0.00408364
4941.60448975,0.00404332
4943.53329712,0.00396880
4945.46210449,0.00405381
4947.39091187,0.00398341
4949.31971924,0.00405547
4951.24852661,0.00401968
4953.17733398,0.00391789
4955.10614136,0.00395813
4957.03494873,0.00392305
4958.96375610,0.00393638
4960.89256348,0.00392754
4962.82137085,0.00391777
4964.75017822,0.00397641
4966.67898560,0.00390081
4968.60779297,0.00387808
4970.53660034,0.00388187
4972.46540771,0.00386486
4974.39421509,0.00390195
4976.32302246,0.00381682
4978.25182983,0.00378094
4980.18063721,0.00384508
4982.10944458,0.00388615
4984.03825195,0.00378687
4985.96705933,0.00374712
4987.89586670,0.00387216
4989.82467407,0.00378961
4991.75348145,0.00373024
4993.68228882,0.00373028
4995.61109619,0.00372502
4997.53990356,0.00379578
4999.46871094,0.00372583
5001.39751831,0.00366745
5003.32632568,0.00372541
5005.25513306,0.00374762
5007.18394043,0.00367372
5009.11274780,0.00360678
5011.04155518,0.00359095
5012.97036255,0.00369174
5014.89916992,0.00370873
5016.82797729,0.00360981
5018.75678467,0.00365800
5020.68559204,0.00362084
5022.61439941,0.00362229
5024.54320679,0.00360474
5026.47201416,0.00358246
5028.40082153,0.00364239
5030.32962891,0.00354952
5032.25843628,0.00357019
5034.18724365,0.00354218
5036.11605103,0.00354235
5038.04485840,0.00357305
5039.97366577,0.00351787
5041.90247314,0.00350225
5043.83128052,0.00336146
5045.76008789,0.00349337
5047.68889526,0.00359563
5049.61770264,0.00347817
5051.54651001,0.00350058
5053.47531738,0.00345155
5055.40412476,0.00344817
5057.33293213,0.00349229
5059.26173950,0.00344278
5061.19054687,0.00335647
5063.11935425,0.00337966
5065.04816162,0.00339223
5066.97696899,0.00336718
5068.90577637,0.00347938
5070.83458374,0.00343958
5072.76339111,0.00339052
5074.69219849,0.00346600
5076.62100586,0.00339152
5078.54981323,0.00335929
5080.47862061,0.00342095
5082.40742798,0.00337485
5084.33623535,0.00336666
5086.26504272,0.00338609
5088.19385010,0.00339553
5090.12265747,0.00340419
5092.05146484,0.00326978
5093.98027222,0.00323916
5095.90907959,0.00329782
5097.83788696,0.00330924
5099.76669434,0.00333502
5101.69550171,0.00332780
5103.62430908,0.00329615
5105.55311645,0.00323396
5107.48192383,0.00324319
5109.41073120,0.00325005
5111.33953857,0.00326426
5113.26834595,0.00322038
5115.19715332,0.00318304
5117.12596069,0.00325890
5119.05476807,0.00317907
5120.98357544,0.00317736
5122.91238281,0.00319077
5124.84119019,0.00317138
5126.76999756,0.00319526
5128.69880493,0.00316754
5130.62761230,0.00319913
5132.55641968,0.00313509
5134.48522705,0.00314743
5136.41403442,0.00314251
5138.34284180,0.00311485
5140.27164917,0.00314392
5142.20045654,0.00306901
5144.12926392,0.00315218
5146.05807129,0.00314307
5147.98687866,0.00307468
5149.91568603,0.00311223
5151.84449341,0.00306878
5153.77330078,0.00303932
5155.70210815,0.00301355
5157.63091553,0.00299176
5159.55972290,0.00301060
5161.48853027,0.00305371
5163.41733765,0.00300733
5165.34614502,0.00301304
5167.27495239,0.00307349
5169.20375977,0.00303684
5171.13256714,0.00304958
5173.06137451,0.00302937
5174.99018188,0.00297901
5176.91898926,0.00297190
5178.84779663,0.00297939
5180.77660400,0.00295980
5182.70541138,0.00297219
5184.63421875,0.00299074
5186.56302612,0.00291197
5188.49183350,0.00292186
5190.42064087,0.00292864
5192.34944824,0.00285120
5194.27825562,0.00287279
5196.20706299,0.00297186
5198.13587036,0.00292937
5200.06467773,0.00288466
5201.99348511,0.00297188
5203.92229248,0.00292257
5205.85109985,0.00285492
5207.77990723,0.00278364
5209.70871460,0.00275990
5211.63752197,0.00286999
5213.56632935,0.00289951
5215.49513672,0.00285909
5217.42394409,0.00276963
5219.35275146,0.00279248
5221.28155884,0.00283665
5223.21036621,0.00279625
5225.13917358,0.00278024
5227.06798096,0.00272557
5228.99678833,0.00272963
5230.92559570,0.00277988
5232.85440308,0.00282543
5234.78321045,0.00282336
5236.71201782,0.00278074
5238.64082520,0.00276790
5240.56963257,0.00276852
5242.49843994,0.00277871
5244.42724731,0.00275662
5246.35605469,0.00270613
5248.28486206,0.00264263
5250.21366943,0.00272706
5252.14247681,0.00278395
5254.07128418,0.00264607
5256.00009155,0.00264534
5257.92889893,0.00268182
5259.85770630,0.00267272
5261.78651367,0.00271325
5263.71532104,0.00267356
5265.64412842,0.00265698
5267.57293579,0.00273044
5269.50174316,0.00270236
5271.43055054,0.00262786
5273.35935791,0.00265827
5275.28816528,0.00266476
5277.21697266,0.00261626
5279.14578003,0.00261349
5281.07458740,0.00263724
5283.00339478,0.00258588
5284.93220215,0.00254382
5286.86100952,0.00259034
5288.78981689,0.00256937
5290.71862427,0.00255823
5292.64743164,0.00257400
5294.57623901,0.00255635
5296.50504639,0.00254673
5298.43385376,0.00250285
5300.36266113,0.00250950
5302.29146851,0.00252673
5304.22027588,0.00258066
5306.14908325,0.00259027
5308.07789062,0.00246176
5310.00669800,0.00252675
5311.93550537,0.00258343
5313.86431274,0.00252311
5315.79312012,0.00254802
5317.72192749,0.00250879
5319.65073486,0.00252729
5321.57954224,0.00252907
5323.50834961,0.00244873
5325.43715698,0.00242089
5327.36596436,0.00237886
5329.29477173,0.00243964
5331.22357910,0.00249453
5333.15238647,0.00241198
5335.08119385,0.00239207
5337.01000122,0.00235902
5338.93880859,0.00226172
5340.86761597,0.00243311
5342.79642334,0.00252974
5344.72523071,0.00233111
5346.65403809,0.00233170
5348.58284546,0.00233344
5350.51165283,0.00236440
5352.44046020,0.00235477
5354.36926758,0.00224556
5356.29807495,0.00241642
5358.22688232,0.00242687
5360.15568970,0.00235258
5362.08449707,0.00232885
5364.01330444,0.00231799
5365.94211182,0.00240727
5367.87091919,0.00233355
5369.79972656,0.00230392
5371.72853394,0.00230419
5373.65734131,0.00236417
5375.58614868,0.00235964
5377.51495605,0.00226161
5379.44376343,0.00232152
5381.37257080,0.00229612
5383.30137817,0.00231191
5385.23018555,0.00231872
5387.15899292,0.00232434
5389.08780029,0.00230505
5391.01660767,0.00225972
5392.94541504,0.00231375
5394.87422241,0.00220323
5396.80302978,0.00224659
5398.73183716,0.00231095
5400.66064453,0.00229171
5402.58945190,0.00226973
5404.51825928,0.00215111
5406.44706665,0.00223983
5408.37587402,0.00216831
5410.30468140,0.00209902
5412.23348877,0.00216000
5414.16229614,0.00204426
5416.09110352,0.00210936
5418.01991089,0.00220521
5419.94871826,0.00218743
5421.87752563,0.00215757
5423.80633301,0.00212772
5425.73514038,0.00220979
5427.66394775,0.00219241
5429.59275513,0.00208645
5431.52156250,0.00218938
5433.45036987,0.00220194
5435.37917725,0.00205469
5437.30798462,0.00213614
5439.23679199,0.00216429
5441.16559936,0.00206666
5443.09440674,0.00211479
5445.02321411,0.00211281
5446.95202148,0.00207280
5448.88082886,0.00212266
5450.80963623,0.00211385
5452.73844360,0.00210860
5454.66725098,0.00205988
5456.59605835,0.00196876
5458.52486572,0.00206710
5460.45367310,0.00207448
5462.38248047,0.00204684
5464.31128784,0.00204625
5466.24009521,0.00197714
5468.16890259,0.00205801
5470.09770996,0.00204301
5472.02651733,0.00207033
5473.95532471,0.00207944
5475.88413208,0.00191704
5477.81293945,0.00196561
5479.74174683,0.00205199
5481.67055420,0.00204273
5483.59936157,0.00199546
5485.52816895,0.00197177
5487.45697632,0.00197022
5489.38578369,0.00199251
5491.31459106,0.00198285
5493.24339844,0.00194465
5495.17220581,0.00198735
5497.10101318,0.00191266
5499.02982056,0.00196418
5500.95862793,0.00202064
5502.88743530,0.00197130
5504.81624268,0.00204641
5506.74505005,0.00195258
5508.67385742,0.00189619
5510.60266479,0.00196964
5512.53147217,0.00200372
5514.46027954,0.00194987
5516.38908691,0.00191990
5518.31789429,0.00195233
5520.24670166,0.00188359
5522.17550903,0.00195352
5524.10431641,0.00197268
5526.03312378,0.00191231
5527.96193115,0.00191484
5529.89073853,0.00189103
5531.81954590,0.00193396
5533.74835327,0.00191187
5535.67716064,0.00188355
5537.60596802,0.00186761
5539.53477539,0.00189109
5541.46358276,0.00189507
5543.39239014,0.00183171
5545.32119751,0.00184347
5547.25000488,0.00185851
5549.17881226,0.00190675
5551.10761963,0.00184167
5553.03642700,0.00180044
5554.96523437,0.00182452
5556.89404175,0.00185337
5558.82284912,0.00195140
5560.75165649,0.00181935
5562.68046387,0.00181960
5564.60927124,0.00187189
5566.53807861,0.00177528
5568.46688599,0.00185606
5570.39569336,0.00180474
5572.32450073,0.00174216
5574.25330811,0.00185085
5576.18211548,0.00186481
5578.11092285,0.00179542
5580.03973022,0.00184484
5581.96853760,0.00187043
5583.89734497,0.00177953
5585.82615234,0.00180363
5587.75495972,0.00175617
5589.68376709,0.00175546
5591.61257446,0.00175638
5593.54138184,0.00165374
5595.47018921,0.00176373
5597.39899658,0.00176043
5599.32780395,0.00174803
5601.25661133,0.00182187
5603.18541870,0.00172079
5605.11422607,0.00169817
5607.04303345,0.00172694
5608.97184082,0.00169517
5610.90064819,0.00168336
5612.82945557,0.00173918
5614.75826294,0.00173414
5616.68707031,0.00167396
5618.61587769,0.00165262
5620.54468506,0.00165661
5622.47349243,0.00174179
5624.40229980,0.00169741
5626.33110718,0.00167611
5628.25991455,0.00173039
5630.18872192,0.00168251
5632.11752930,0.00167100
5634.04633667,0.00161018
5635.97514404,0.00165434
5637.90395142,0.00166364
5639.83275879,0.00162496
5641.76156616,0.00174160
5643.69037353,0.00166281
5645.61918091,0.00163671
5647.54798828,0.00167266
5649.47679565,0.00160333
5651.40560303,0.00164381
5653.33441040,0.00165070
5655.26321777,0.00167777
5657.19202515,0.00164470
5659.12083252,0.00158701
5661.04963989,0.00168858
5662.97844727,0.00165255
5664.90725464,0.00159164
5666.83606201,0.00164272
5668.76486938,0.00158090
5670.69367676,0.00155694
5672.62248413,0.00162335
5674.55129150,0.00163488
5676.48009888,0.00165626
5678.40890625,0.00162906
5680.33771362,0.00154162
5682.26652100,0.00157299
5684.19532837,0.00161422
5686.12413574,0.00150128
5688.05294311,0.00148287
5689.98175049,0.00153656
5691.91055786,0.00145837
5693.83936523,0.00150372
5695.76817261,0.00157527
5697.69697998,0.00154819
5699.62578735,0.00158702
5701.55459473,0.00156655
5703.48340210,0.00152473
5705.41220947,0.00150271
5707.34101685,0.00149396
5709.26982422,0.00154167
5711.19863159,0.00150358
5713.12743896,0.00149349
5715.05624634,0.00159547
5716.98505371,0.00152084
5718.91386108,0.00143264
5720.84266846,0.00155760
5722.77147583,0.00155585
5724.70028320,0.00148742
5726.62909058,0.00146354
5728.55789795,0.00140347
5730.48670532,0.00145245
5732.41551270,0.00149841
5734.34432007,0.00150179
5736.27312744,0.00147775
5738.20193481,0.00144921
5740.13074219,0.00146904
5742.05954956,0.00146390
5743.98835693,0.00147866
5745.91716431,0.00147059
5747.84597168,0.00146284
5749.77477905,0.00142945
5751.70358643,0.00139832
5753.63239380,0.00142114
5755.56120117,0.00137148
5757.49000854,0.00142381
5759.41881592,0.00145892
5761.34762329,0.00138007
5763.27643066,0.00139594
5765.20523804,0.00139779
5767.13404541,0.00142262
5769.06285278,0.00140818
5770.99166016,0.00135592
5772.92046753,0.00138378
5774.84927490,0.00133361
5776.77808228,0.00139012
5778.70688965,0.00142154
5780.63569702,0.00133053
5782.56450439,0.00140481
5784.49331177,0.00132804
5786.42211914,0.00129191
5788.35092651,0.00136780
5790.27973389,0.00126698
5792.20854126,0.00134766
5794.13734863,0.00138563
5796.06615601,0.00136369
5797.99496338,0.00141288
5799.92377075,0.00134020
5801.85257812,0.00136000
5803.78138550,0.00131914
5805.71019287,0.00130121
5807.63900024,0.00137990
5809.56780762,0.00134248
5811.49661499,0.00134604
5813.42542236,0.00130542
5815.35422974,0.00125124
5817.28303711,0.00129438
5819.21184448,0.00131293
5821.14065186,0.00129516
5823.06945923,0.00126692
5824.99826660,0.00126565
5826.92707397,0.00125886
5828.85588135,0.00124822
5830.78468872,0.00133177
5832.71349609,0.00132020
5834.64230347,0.00123700
5836.57111084,0.00129738
5838.49991821,0.00125727
5840.42872559,0.00122831
5842.35753296,0.00123020
5844.28634033,0.00120354
5846.21514770,0.00128279
5848.14395508,0.00121941
5850.07276245,0.00126773
5852.00156982,0.00130128
5853.93037720,0.00120827
5855.85918457,0.00126546
5857.78799194,0.00123223
5859.71679932,0.00123080
5861.64560669,0.00118202
5863.57441406,0.00117844
5865.50322144,0.00122813
5867.43202881,0.00114603
5869.36083618,0.00120137
5871.28964355,0.00118385
5873.21845093,0.00117165
5875.14725830,0.00123545
5877.07606567,0.00122693
5879.00487305,0.00117905
5880.93368042,0.00114408
5882.86248779,0.00118788
5884.79129517,0.00117626
5886.72010254,0.00119264
5888.64890991,0.00118114
5890.57771728,0.00124303
5892.50652466,0.00123474
5894.43533203,0.00109295
5896.36413940,0.00116226
5898.29294678,0.00117661
5900.22175415,0.00121257
5902.15056152,0.00114211
5904.07936890,0.00105937
5906.00817627,0.00114460
5907.93698364,0.00108183
5909.86579102,0.00112090
5911.79459839,0.00111626
5913.72340576,0.00114806
5915.65221313,0.00121704
5917.58102051,0.00115781
5919.50982788,0.00113411
5921.43863525,0.00104657
5923.36744263,0.00111242
5925.29625000,0.00109783
5927.22505737,0.00106265
5929.15386475,0.00113818
5931.08267212,0.00104830
5933.01147949,0.00110650
5934.94028686,0.00117409
5936.86909424,0.00113767
5938.79790161,0.00111645
5940.72670898,0.00108031
5942.65551636,0.00112347
5944.58432373,0.00111392
5946.51313110,0.00102767
5948.44193848,0.00107588
5950.37074585,0.00111461
5952.29955322,0.00102812
5954.22836060,0.00105644
5956.15716797,0.00103874
5958.08597534,0.00102833
5960.01478271,0.00110781
5961.94359009,0.00108295
5963.87239746,0.00107627
5965.80120483,0.00102060
5967.73001221,0.00099935
5969.65881958,0.00102365
5971.58762695,0.00102786
5973.51643433,0.00108223
5975.44524170,0.00106748
5977.37404907,0.00101333
5979.30285645,0.00102659
5981.23166382,0.00108032
5983.16047119,0.00101013
5985.08927856,0.00099418
5987.01808594,0.00101169
5988.94689331,0.00099542
5990.87570068,0.00106902
5992.80450806,0.00103383
5994.73331543,0.00103174
5996.66212280,0.00100180
5998.59093018,0.00099352
6000.51973755,0.00105137
