399.26312622,0.00036659
401.19193359,0.00037274
403.12074097,0.00066510
405.04954834,0.00057041
406.97835571,0.00040624
408.90716309,0.00049827
410.83597046,0.00094668
412.76477783,0.00079044
414.69358521,0.00027275
416.62239258,0.00061283
418.55119995,0.00079321
420.48000732,0.00086957
422.40881470,0.00093125
424.33762207,0.00038786
426.26642944,0.00041674
428.19523682,0.00085138
430.12404419,0.00048205
432.05285156,0.00062923
433.98165894,0.00077070
435.91046631,0.00024419
437.83927368,0.00110203
439.76808105,0.00120608
441.69688843,0.00043023
443.62569580,0.00055873
445.55450317,0.00046424
447.48331055,0.00074481
449.41211792,0.00059913
451.34092529,0.00037160
453.26973267,0.00044995
455.19854004,0.00054061
457.12734741,0.00066627
459.05615479,0.00012181
460.98496216,0.00083062
462.91376953,0.00078695
464.84257690,-0.00011302
466.77138428,0.00036209
468.70019165,0.00042159
470.62899902,0.00053848
472.55780640,0.00030852
474.48661377,-0.00002722
476.41542114,0.00021498
478.34422852,0.00013631
480.27303589,0.00029133
482.20184326,0.00039987
484.13065063,0.00001254
486.05945801,0.00008177
487.98826538,0.00046631
489.91707275,0.00040573
491.84588013,0.00025648
493.77468750,-0.00009631
495.70349487,0.00019733
497.63230225,0.00037920
499.56110962,-0.00011475
501.48991699,0.00023824
503.41872437,0.00025027
505.34753174,0.00025756
507.27633911,0.00038740
509.20514648,-0.00003179
511.13395386,0.00003869
513.06276123,0.00011734
514.99156860,-0.00000786
516.92037598,0.00013550
518.84918335,0.00004330
520.77799072,-0.00011709
522.70679810,0.00029080
524.63560547,0.00017851
526.56441284,0.00003421
528.49322021,-0.00000428
530.42202759,0.00004224
532.35083496,0.00053418
534.27964233,0.00026241
536.20844971,0.00002436
538.13725708,0.00007351
540.06606445,0.00031407
541.99487183,0.00025221
543.92367920,0.00017818
545.85248657,0.00042004
547.78129395,0.00023178
549.71010132,-0.00006411
551.63890869,0.00025638
553.56771606,0.00071657
555.49652344,0.00027711
557.42533081,0.00002100
559.35413818,-0.00031122
561.28294556,-0.00028220
563.21175293,0.00054427
565.14056030,0.00036382
567.06936768,0.00014919
568.99817505,0.00020659
570.92698242,0.00002431
572.85578979,0.00004709
574.78459717,0.00026096
576.71340454,0.00015455
578.64221191,-0.00027160
580.57101929,-0.00016864
582.49982666,0.00012291
584.42863403,0.00026051
586.35744141,0.00029122
588.28624878,0.00001195
590.21505615,0.00001810
592.14386353,0.00009563
594.07267090,-0.00007556
596.00147827,-0.00005173
597.93028564,-0.00008536
599.85909302,0.00004883
601.78790039,0.00016754
603.71670776,-0.00014816
605.64551514,-0.00006740
607.57432251,0.00014660
609.50312988,0.00003326
611.43193726,0.00017594
613.36074463,0.00020891
615.28955200,0.00012336
617.21835938,0.00008684
619.14716675,0.00027670
621.07597412,0.00034872
623.00478149,-0.00011959
624.93358887,-0.00003473
626.86239624,0.00019036
628.79120361,0.00026559
630.72001099,0.00023721
632.64881836,0.00003135
634.57762573,0.00032056
636.50643311,0.00058118
638.43524048,0.00092118
640.36404785,0.00086835
642.29285522,0.00066847
644.22166260,0.00097892
646.15046997,0.00086857
648.07927734,0.00068720
650.00808472,0.00065004
651.93689209,0.00097032
653.86569946,0.00098141
655.79450684,0.00090563
657.72331421,0.00146350
659.65212158,0.00130880
661.58092896,0.00128379
663.50973633,0.00128373
665.43854370,0.00107518
667.36735107,0.00121854
669.29615845,0.00118670
671.22496582,0.00128432
673.15377319,0.00122835
675.08258057,0.00137405
677.01138794,0.00139973
678.94019531,0.00158828
680.86900269,0.00175005
682.79781006,0.00111765
684.72661743,0.00134642
686.65542480,0.00141661
688.58423218,0.00123567
690.51303955,0.00143906
692.44184692,0.00131989
694.37065430,0.00176963
696.29946167,0.00221858
698.22826904,0.00240475
700.15707642,0.00248772
702.08588379,0.00222688
704.01469116,0.00211928
705.94349854,0.00214103
707.87230591,0.00190460
709.80111328,0.00159147
711.72992065,0.00151141
713.65872803,0.00115870
715.58753540,0.00048345
717.51634277,-0.00002146
719.44515015,0.00002479
721.37395752,0.00026004
723.30276489,0.00021067
725.23157227,-0.00000082
727.16037964,-0.00025086
729.08918701,-0.00015353
731.01799438,-0.00003269
732.94680176,-0.00012631
734.87560913,0.00022142
736.80441650,0.00031966
738.73322388,0.00012182
740.66203125,0.00031090
742.59083862,0.00022126
744.51964600,0.00014342
746.44845337,0.00023845
748.37726074,0.00004385
750.30606812,0.00006608
752.23487549,0.00009167
754.16368286,-0.00000721
756.09249023,0.00014984
758.02129761,0.00014266
759.95010498,0.00001719
761.87891235,0.00032762
763.80771973,0.00080230
765.73652710,0.00051871
767.66533447,0.00014043
769.59414185,0.00023027
771.52294922,0.00019121
773.45175659,0.00009766
775.38056396,0.00011925
777.30937134,0.00038248
779.23817871,0.00024435
781.16698608,0.00002187
783.09579346,0.00024484
785.02460083,0.00024153
786.95340820,0.00049793
788.88221558,0.00070591
790.81102295,0.00037091
792.73983032,0.00030323
794.66863770,0.00029743
796.59744507,0.00008030
798.52625244,0.00023553
800.45505981,0.00043813
802.38386719,0.00050020
804.31267456,0.00030435
806.24148193,0.00012474
808.17028931,0.00052468
810.09909668,0.00031950
812.02790405,0.00021130
813.95671143,0.00043722
815.88551880,0.00012224
817.81432617,0.00013150
819.74313354,0.00015778
821.67194092,0.00027514
823.60074829,0.00036756
825.52955566,0.00040427
827.45836304,0.00055356
829.38717041,0.00031522
831.31597778,0.00034390
833.24478516,0.00053407
835.17359253,0.00063771
837.10239990,0.00059693
839.03120728,0.00059321
840.96001465,0.00071807
842.88882202,0.00073226
844.81762939,0.00082394
846.74643677,0.00065639
848.67524414,0.00059163
850.60405151,0.00053207
852.53285889,0.00052224
854.46166626,0.00055913
856.39047363,0.00004813
858.31928101,0.00015099
860.24808838,0.00050588
862.17689575,0.00040569
864.10570313,0.00045415
866.03451050,0.00040139
867.96331787,0.00042296
869.89212524,0.00043235
871.82093262,0.00040946
873.74973999,0.00051083
875.67854736,0.00041738
877.60735474,0.00034231
879.53616211,0.00021865
881.46496948,0.00028201
883.39377686,0.00032083
885.32258423,0.00009442
887.25139160,0.00028848
889.18019897,0.00024837
891.10900635,0.00026524
893.03781372,0.00058968
894.96662109,0.00038135
896.89542847,0.00024959
898.82423584,0.00034997
900.75304321,0.00024876
902.68185059,0.00020202
904.61065796,0.00037510
906.53946533,0.00038170
908.46827271,0.00038026
910.39708008,0.00058571
912.32588745,0.00050982
914.25469482,0.00032144
916.18350220,0.00030634
918.11230957,0.00046843
920.04111694,0.00062619
921.96992432,0.00065085
923.89873169,0.00066944
925.82753906,0.00056100
927.75634644,0.00060655
929.68515381,0.00072594
931.61396118,0.00087013
933.54276855,0.00092632
935.47157593,0.00076440
937.40038330,0.00103944
939.32919067,0.00099776
941.25799805,0.00087130
943.18680542,0.00095321
945.11561279,0.00077023
947.04442017,0.00113091
948.97322754,0.00094085
950.90203491,0.00069431
952.83084229,0.00103704
954.75964966,0.00075644
956.68845703,0.00082704
958.61726440,0.00091192
960.54607178,0.00088529
962.47487915,0.00108035
964.40368652,0.00094803
966.33249390,0.00117747
968.26130127,0.00122758
970.19010864,0.00106792
972.11891602,0.00130720
974.04772339,0.00127663
975.97653076,0.00124741
977.90533813,0.00143014
979.83414551,0.00152612
981.76295288,0.00170169
983.69176025,0.00182026
985.62056763,0.00201799
987.54937500,0.00227106
989.47818237,0.00238521
991.40698975,0.00274547
993.33579712,0.00286264
995.26460449,0.00286582
997.19341187,0.00328057
999.12221924,0.00362525
1001.05102661,0.00402152
1002.97983398,0.00426325
1004.90864136,0.00441340
1006.83744873,0.00465429
1008.76625610,0.00490190
1010.69506348,0.00539001
1012.62387085,0.00552997
1014.55267822,0.00572422
1016.48148560,0.00619332
1018.41029297,0.00646677
1020.33910034,0.00679015
1022.26790771,0.00699641
1024.19671509,0.00727789
1026.12552246,0.00745943
1028.05432983,0.00759154
1029.98313721,0.00808139
1031.91194458,0.00835516
1033.84075195,0.00836536
1035.76955933,0.00857448
1037.69836670,0.00881486
1039.62717407,0.00860277
1041.55598145,0.00865630
1043.48478882,0.00891179
1045.41359619,0.00849474
1047.34240356,0.00828395
1049.27121094,0.00832059
1051.20001831,0.00809291
1053.12882568,0.00792652
1055.05763306,0.00780341
1056.98644043,0.00769868
1058.91524780,0.00771434
1060.84405518,0.00749057
1062.77286255,0.00707965
1064.70166992,0.00697637
1066.63047729,0.00669141
1068.55928467,0.00641474
1070.48809204,0.00617868
1072.41689941,0.00574709
1074.34570679,0.00566288
1076.27451416,0.00540359
1078.20332153,0.00509789
1080.13212891,0.00481815
1082.06093628,0.00452026
1083.98974365,0.00454142
1085.91855103,0.00431619
1087.84735840,0.00406664
1089.77616577,0.00393248
1091.70497314,0.00376552
1093.63378052,0.00362138
1095.56258789,0.00370636
1097.49139526,0.00373155
1099.42020264,0.00341293
1101.34901001,0.00333749
1103.27781738,0.00317341
1105.20662476,0.00322691
1107.13543213,0.00339392
1109.06423950,0.00316674
1110.99304687,0.00303154
1112.92185425,0.00289187
1114.85066162,0.00298625
1116.77946899,0.00305497
1118.70827637,0.00301407
1120.63708374,0.00304386
1122.56589111,0.00300648
1124.49469849,0.00301577
1126.42350586,0.00299999
1128.35231323,0.00305412
1130.28112061,0.00300459
1132.20992798,0.00328169
1134.13873535,0.00349104
1136.06754272,0.00334632
1137.99635010,0.00367555
1139.92515747,0.00388879
1141.85396484,0.00396000
1143.78277222,0.00423582
1145.71157959,0.00466456
1147.64038696,0.00498200
1149.56919434,0.00520554
1151.49800171,0.00570248
1153.42680908,0.00570850
1155.35561646,0.00565690
1157.28442383,0.00629490
1159.21323120,0.00663688
1161.14203857,0.00661718
1163.07084595,0.00700605
1164.99965332,0.00713748
1166.92846069,0.00715279
1168.85726807,0.00781018
1170.78607544,0.00825371
1172.71488281,0.00835715
1174.64369019,0.00838772
1176.57249756,0.00877149
1178.50130493,0.00924500
1180.43011230,0.00934023
1182.35891968,0.00992599
1184.28772705,0.01034987
1186.21653442,0.01075695
1188.14534180,0.01151581
1190.07414917,0.01183891
1192.00295654,0.01225694
1193.93176392,0.01298822
1195.86057129,0.01373757
1197.78937866,0.01410610
1199.71818604,0.01462536
1201.64699341,0.01540847
1203.57580078,0.01593507
1205.50460815,0.01676814
1207.43341553,0.01730736
1209.36222290,0.01778171
1211.29103027,0.01854820
1213.21983765,0.01882225
1215.14864502,0.01916698
1217.07745239,0.01974145
1219.00625977,0.02023799
1220.93506714,0.02043637
1222.86387451,0.02056230
1224.79268188,0.02083881
1226.72148926,0.02084676
1228.65029663,0.02105232
1230.57910400,0.02131509
1232.50791138,0.02140937
1234.43671875,0.02145820
1236.36552612,0.02135032
1238.29433350,0.02146403
1240.22314087,0.02137046
1242.15194824,0.02131948
1244.08075562,0.02135770
1246.00956299,0.02098913
1247.93837036,0.02104146
1249.86717773,0.02109332
1251.79598511,0.02093975
1253.72479248,0.02086551
1255.65359985,0.02041871
1257.58240723,0.02019399
1259.51121460,0.01993041
1261.44002197,0.01949821
1263.36882935,0.01947678
1265.29763672,0.01922276
1267.22644409,0.01900316
1269.15525146,0.01880234
1271.08405884,0.01829137
1273.01286621,0.01808700
1274.94167358,0.01782661
1276.87048096,0.01759702
1278.79928833,0.01714615
1280.72809570,0.01668690
1282.65690308,0.01677605
1284.58571045,0.01626311
1286.51451782,0.01591844
1288.44332520,0.01575696
1290.37213257,0.01532289
1292.30093994,0.01542568
1294.22974731,0.01543268
1296.15855469,0.01529300
1298.08736206,0.01505824
1300.01616943,0.01514678
1301.94497681,0.01531268
1303.87378418,0.01530255
1305.80259155,0.01561802
1307.73139893,0.01574618
1309.66020630,0.01620448
1311.58901367,0.01644945
1313.51782104,0.01659393
1315.44662842,0.01711243
1317.37543579,0.01724461
1319.30424316,0.01771922
1321.23305054,0.01843709
1323.16185791,0.01911702
1325.09066528,0.01958400
1327.01947266,0.02002914
1328.94828003,0.02064847
1330.87708740,0.02118394
1332.80589478,0.02182175
1334.73470215,0.02209516
1336.66350952,0.02215033
1338.59231689,0.02191347
1340.52112427,0.02234796
1342.44993164,0.02331233
1344.37873901,0.02336551
1346.30754639,0.02360765
1348.23635376,0.02357572
1350.16516113,0.02333392
1352.09396851,0.02335818
1354.02277588,0.02301280
1355.95158325,0.02286471
1357.88039062,0.02270329
1359.80919800,0.02231242
1361.73800537,0.02106915
1363.66681274,0.02078533
1365.59562012,0.02225298
1367.52442749,0.02174853
1369.45323486,0.02133045
1371.38204224,0.02195815
1373.31084961,0.02071561
1375.23965698,0.02037790
1377.16846436,0.02130551
1379.09727173,0.02137791
1381.02607910,0.02117957
1382.95488647,0.02133173
1384.88369385,0.02132593
1386.81250122,0.02009667
1388.74130859,0.02032739
1390.67011597,0.02263240
1392.59892334,0.02195816
1394.52773071,0.02001921
1396.45653809,0.02117349
1398.38534546,0.02099859
1400.31415283,0.02103646
1402.24296021,0.02310224
1404.17176758,0.02162766
1406.10057495,0.02177762
1408.02938232,0.02278182
1409.95818970,0.02182239
1411.88699707,0.02221403
1413.81580444,0.02143126
1415.74461182,0.02197425
1417.67341919,0.01962325
1419.60222656,0.01714936
1421.53103394,0.02035523
1423.45984131,0.01976692
1425.38864868,0.01896727
1427.31745605,0.01970062
1429.24626343,0.01811516
1431.17507080,0.01741123
1433.10387817,0.01782716
1435.03268555,0.01611914
1436.96149292,0.01341046
1438.89030029,0.01569960
1440.81910767,0.01643849
1442.74791504,0.01503743
1444.67672241,0.01592913
1446.60552979,0.01455848
1448.53433716,0.01450107
1450.46314453,0.01523677
1452.39195190,0.01565200
1454.32075928,0.01605301
1456.24956665,0.01280914
1458.17837402,0.01319009
1460.10718140,0.01821746
1462.03598877,0.01961333
1463.96479614,0.01931125
1465.89360352,0.02009635
1467.82241089,0.02303698
1469.75121826,0.02467977
1471.68002563,0.02139913
1473.60883301,0.02261398
1475.53764038,0.02621728
1477.46644775,0.02829466
1479.39525513,0.03137894
1481.32406250,0.03168549
1483.25286987,0.03388154
1485.18167725,0.03508278
1487.11048462,0.03403363
1489.03929199,0.03325896
1490.96809937,0.03324194
1492.89690674,0.04002023
1494.82571411,0.03900649
1496.75452148,0.03404779
1498.68332886,0.03912937
1500.61213623,0.04058288
1502.54094360,0.04404899
1504.46975098,0.04151285
1506.39855835,0.02795829
1508.32736572,0.03490990
1510.25617310,0.04285372
1512.18498047,0.04124509
1514.11378784,0.04532943
1516.04259521,0.04011855
1517.97140259,0.04193806
1519.90020996,0.04086673
1521.82901733,0.03365608
1523.75782471,0.04302157
1525.68663208,0.04247319
1527.61543945,0.04163679
1529.54424683,0.04759716
1531.47305420,0.04547392
1533.40186157,0.04077436
1535.33066895,0.04350085
1537.25947632,0.04758245
1539.18828369,0.03221574
1541.11709106,0.03317293
1543.04589844,0.04161865
1544.97470581,0.03944642
1546.90351318,0.04857798
1548.83232056,0.04487100
1550.76112793,0.04621007
1552.68993530,0.04665906
1554.61874268,0.04109056
1556.54755005,0.04478528
1558.47635742,0.02933790
1560.40516479,0.03163720
1562.33397217,0.04927714
1564.26277954,0.04611475
1566.19158691,0.04759323
1568.12039429,0.04721157
1570.04920166,0.04072399
1571.97800903,0.04827264
1573.90681641,0.04945606
1575.83562378,0.03743763
1577.76443115,0.04290227
1579.69323853,0.05014904
1581.62204590,0.04755397
1583.55085327,0.04892682
1585.47966064,0.04830630
1587.40846802,0.04865480
1589.33727539,0.04842768
1591.26608276,0.04837535
1593.19489014,0.04848433
1595.12369751,0.04775872
1597.05250488,0.04852954
1598.98131226,0.04827859
1600.91011963,0.04866171
1602.83892700,0.04761413
1604.76773437,0.04861147
1606.69654175,0.04800597
1608.62534912,0.04761594
1610.55415649,0.04775135
1612.48296387,0.04819398
1614.41177124,0.04906110
1616.34057861,0.03874362
1618.26938599,0.04209243
1620.19819336,0.05092660
1622.12700073,0.04425913
1624.05580811,0.04412948
1625.98461548,0.04707881
1627.91342285,0.04667022
1629.84223022,0.04642795
1631.77103760,0.05025703
1633.69984497,0.04582094
1635.62865234,0.03605927
1637.55745972,0.04318867
1639.48626709,0.04885915
1641.41507446,0.04738297
1643.34388184,0.04903639
1645.27268921,0.04358400
1647.20149658,0.03683109
1649.13030396,0.04760575
1651.05911133,0.04566999
1652.98791870,0.02672179
1654.91672607,0.03801306
1656.84553345,0.05027713
1658.77434082,0.04789060
1660.70314819,0.04947820
1662.63195557,0.04418875
1664.56076294,0.04675319
1666.48957031,0.05128001
1668.41837769,0.04355794
1670.34718506,0.04190783
1672.27599243,0.04904906
1674.20479980,0.04461844
1676.13360718,0.04218499
1678.06241455,0.05032628
1679.99122192,0.04825168
1681.92002930,0.04714442
1683.84883667,0.03711217
1685.77764404,0.03637668
1687.70645142,0.05304287
1689.63525879,0.04509012
1691.56406616,0.05014578
1693.49287354,0.05204323
1695.42168091,0.03550826
1697.35048828,0.04551790
1699.27929565,0.03938646
1701.20810303,0.03398910
1703.13691040,0.04977472
1705.06571777,0.04512860
1706.99452515,0.04541882
1708.92333252,0.05052017
1710.85213989,0.04832366
1712.78094727,0.04932738
1714.70975464,0.04506962
1716.63856201,0.03974766
1718.56736938,0.03878790
1720.49617676,0.04740918
1722.42498413,0.05009323
1724.35379150,0.04566284
1726.28259888,0.05056287
1728.21140625,0.04627158
1730.14021362,0.04634988
1732.06902100,0.04556646
1733.99782837,0.03268060
1735.92663574,0.04226300
1737.85544312,0.04800366
1739.78425049,0.04162922
1741.71305786,0.04599611
1743.64186523,0.04666198
1745.57067261,0.04678421
1747.49947998,0.04725226
1749.42828735,0.04467038
1751.35709473,0.04230451
1753.28590210,0.04793412
1755.21470947,0.05081656
1757.14351685,0.04522841
1759.07232422,0.05092576
1761.00113159,0.04747142
1762.92993896,0.04500160
1764.85874634,0.05325910
1766.78755371,0.04696487
1768.71636108,0.04735688
1770.64516846,0.04718338
1772.57397583,0.04130813
1774.50278320,0.04718433
1776.43159058,0.05052934
1778.36039795,0.04989263
1780.28920532,0.04889604
1782.21801270,0.04943902
1784.14682007,0.04950219
1786.07562744,0.04804261
1788.00443481,0.05123923
1789.93324219,0.04980584
1791.86204956,0.04398249
1793.79085693,0.04620099
1795.71966431,0.05042853
1797.64847168,0.04970504
1799.57727905,0.04884220
1801.50608643,0.04781947
1803.43489380,0.04950090
1805.36370117,0.05102231
1807.29250854,0.05011438
1809.22131592,0.05020460
1811.15012329,0.04867166
1813.07893066,0.05061412
1815.00773804,0.05098388
1816.93654541,0.05002133
1818.86535278,0.05077074
1820.79416016,0.05054434
1822.72296753,0.05151297
1824.65177490,0.04756158
1826.58058228,0.04936284
1828.50938965,0.04970031
1830.43819702,0.04563004
1832.36700439,0.05079542
1834.29581177,0.05077028
1836.22461914,0.05045481
1838.15342651,0.05057460
1840.08223389,0.05076755
1842.01104126,0.05085945
1843.93984863,0.04401046
1845.86865601,0.04729646
1847.79746338,0.05070224
1849.72627075,0.04947690
1851.65507812,0.05132395
1853.58388550,0.05009708
1855.51269287,0.05072677
1857.44150024,0.05033252
1859.37030762,0.05007586
1861.29911499,0.05062480
1863.22792236,0.04968277
1865.15672974,0.05043297
1867.08553711,0.04844069
1869.01434448,0.04584395
1870.94315186,0.04811679
1872.87195923,0.05054477
1874.80076660,0.04969791
1876.72957397,0.05000751
1878.65838135,0.04971664
1880.58718872,0.04939073
1882.51599609,0.05015659
1884.44480347,0.04894223
1886.37361084,0.04994302
1888.30241821,0.04885226
1890.23122559,0.04742023
1892.16003296,0.04984458
1894.08884033,0.04892417
1896.01764771,0.04862205
1897.94645508,0.04962175
1899.87526245,0.04918185
1901.80406982,0.04930535
1903.73287720,0.04902938
1905.66168457,0.04939041
1907.59049194,0.04880431
1909.51929932,0.04828991
1911.44810669,0.04859743
1913.37691406,0.04867485
1915.30572144,0.04947945
1917.23452881,0.04686608
1919.16333618,0.04669167
1921.09214355,0.04905134
1923.02095093,0.04714913
1924.94975830,0.04836495
1926.87856567,0.04917533
1928.80737305,0.04842228
1930.73618042,0.04927792
1932.66498779,0.04830161
1934.59379517,0.04879091
1936.52260254,0.04847612
1938.45140991,0.04868249
1940.38021729,0.04881735
1942.30902466,0.04668130
1944.23783203,0.04777690
1946.16663940,0.04852921
1948.09544678,0.04832702
1950.02425415,0.04859333
1951.95306152,0.04833822
1953.88186890,0.04842774
1955.81067627,0.04816016
1957.73948364,0.04840183
1959.66829102,0.04839611
1961.59709839,0.04827741
1963.52590576,0.04852846
1965.45471313,0.04815432
1967.38352051,0.04752814
1969.31232788,0.04799619
1971.24113525,0.04846309
1973.16994263,0.04808286
1975.09875000,0.04830661
1977.02755737,0.04804787
1978.95636475,0.04813305
1980.88517212,0.04820092
1982.81397949,0.04804296
1984.74278687,0.04828713
1986.67159424,0.04756583
1988.60040161,0.04779239
1990.52920898,0.04741252
1992.45801636,0.04667366
1994.38682373,0.04764536
1996.31563110,0.04770724
1998.24443848,0.04748777
2000.17324585,0.04760340
2002.10205322,0.04732766
2004.03086060,0.04735474
2005.95966797,0.04737458
2007.88847534,0.04723858
2009.81728271,0.04724554
2011.74609009,0.04694759
2013.67489746,0.04688944
2015.60370483,0.04671165
2017.53251221,0.04637317
2019.46131958,0.04683048
2021.39012695,0.04661278
2023.31893433,0.04650856
2025.24774170,0.04661166
2027.17654907,0.04629264
2029.10535645,0.04646153
2031.03416382,0.04624669
2032.96297119,0.04624412
2034.89177856,0.04616231
2036.82058594,0.04603933
2038.74939331,0.04617335
2040.67820068,0.04565023
2042.60700806,0.04566063
2044.53581543,0.04590154
2046.46462280,0.04566889
2048.39343018,0.04555149
2050.32223755,0.04553417
2052.25104492,0.04545969
2054.17985229,0.04541028
2056.10865967,0.04542706
2058.03746704,0.04527837
2059.96627441,0.04510919
2061.89508179,0.04519969
2063.82388916,0.04502396
2065.75269653,0.04470706
2067.68150391,0.04494880
2069.61031128,0.04482303
2071.53911865,0.04472985
2073.46792603,0.04486834
2075.39673340,0.04457325
2077.32554077,0.04462770
2079.25434814,0.04456782
2081.18315552,0.04452349
2083.11196289,0.04446733
2085.04077026,0.04433086
2086.96957764,0.04447968
2088.89838501,0.04422972
2090.82719238,0.04401633
2092.75599976,0.04395615
2094.68480713,0.04400006
2096.61361450,0.04399732
2098.54242187,0.04383295
2100.47122925,0.04387287
2102.40003662,0.04387333
2104.32884399,0.04382973
2106.25765137,0.04375895
2108.18645874,0.04359499
2110.11526611,0.04346346
2112.04407349,0.04353265
2113.97288086,0.04337735
2115.90168823,0.04327676
2117.83049561,0.04330898
2119.75930298,0.04322936
2121.68811035,0.04340663
2123.61691772,0.04315293
2125.54572510,0.04300403
2127.47453247,0.04318104
2129.40333984,0.04313035
2131.33214722,0.04297022
2133.26095459,0.04285531
2135.18976196,0.04297412
2137.11856934,0.04277936
2139.04737671,0.04279809
2140.97618408,0.04285035
2142.90499146,0.04264377
2144.83379883,0.04260973
2146.76260620,0.04257680
2148.69141357,0.04267092
2150.62022095,0.04253899
2152.54902832,0.04250785
2154.47783569,0.04252510
2156.40664307,0.04248235
2158.33545044,0.04241683
2160.26425781,0.04228648
2162.19306519,0.04239862
2164.12187256,0.04223550
2166.05067993,0.04214960
2167.97948730,0.04216518
2169.90829468,0.04226846
2171.83710205,0.04225396
2173.76590942,0.04197632
2175.69471680,0.04213904
2177.62352417,0.04217589
2179.55233154,0.04211191
2181.48113892,0.04200947
2183.40994629,0.04188672
2185.33875366,0.04191080
2187.26756104,0.04187199
2189.19636841,0.04187432
2191.12517578,0.04180922
2193.05398315,0.04181309
2194.98279053,0.04176126
2196.91159790,0.04173606
2198.84040527,0.04162182
2200.76921265,0.04149869
2202.69802002,0.04158634
2204.62682739,0.04154851
2206.55563477,0.04149031
2208.48444214,0.04131842
2210.41324951,0.04126495
2212.34205688,0.04133891
2214.27086426,0.04136502
2216.19967163,0.04132440
2218.12847900,0.04126891
2220.05728638,0.04119501
2221.98609375,0.04108803
2223.91490112,0.04119577
2225.84370850,0.04102890
2227.77251587,0.04099232
2229.70132324,0.04100416
2231.63013062,0.04091642
2233.55893799,0.04098911
2235.48774536,0.04073378
2237.41655273,0.04078005
2239.34536011,0.04069776
2241.27416748,0.04051388
2243.20297485,0.04058949
2245.13178223,0.04054283
2247.06058960,0.04058485
2248.98939697,0.04037963
2250.91820435,0.04036564
2252.84701172,0.04035115
2254.77581909,0.04016156
2256.70462646,0.04026162
2258.63343384,0.04029700
2260.56224121,0.04023530
2262.49104858,0.04011790
2264.41985596,0.04002200
2266.34866333,0.03998446
2268.27747070,0.04002503
2270.20627808,0.03993275
2272.13508545,0.03987330
2274.06389282,0.03994911
2275.99270020,0.03980798
2277.92150757,0.03973926
2279.85031494,0.03975350
2281.77912231,0.03977787
2283.70792969,0.03974164
2285.63673706,0.03963354
2287.56554443,0.03959068
2289.49435181,0.03951959
2291.42315918,0.03937330
2293.35196655,0.03928798
2295.28077393,0.03925516
2297.20958130,0.03915751
2299.13838867,0.03911681
2301.06719604,0.03885075
2302.99600342,0.03862879
2304.92481079,0.03855918
2306.85361816,0.03838924
2308.78242554,0.03816263
2310.71123291,0.03773802
2312.64004028,0.03743540
2314.56884766,0.03705869
2316.49765503,0.03675136
2318.42646240,0.03635586
2320.35526978,0.03574431
2322.28407715,0.03539916
2324.21288452,0.03494698
2326.14169189,0.03463781
2328.07049927,0.03422431
2329.99930664,0.03380720
2331.92811401,0.03372090
2333.85692139,0.03348346
2335.78572876,0.03334558
2337.71453613,0.03337283
2339.64334351,0.03335064
2341.57215088,0.03350210
2343.50095825,0.03399965
2345.42976562,0.03439765
2347.35857300,0.03567410
2349.28738037,0.03688545
2351.21618774,0.03575578
2353.14499512,0.03403079
2355.07380249,0.03284439
2357.00260986,0.03202306
2358.93141724,0.03135332
2360.86022461,0.03095403
2362.78903198,0.03098075
2364.71783936,0.03101745
2366.64664673,0.03160606
2368.57545410,0.03225672
2370.50426147,0.03294612
2372.43306885,0.03378367
2374.36187622,0.03465885
2376.29068359,0.03562130
2378.21949097,0.03619424
2380.14829834,0.03679436
2382.07710571,0.03716982
2384.00591309,0.03746170
2385.93472046,0.03763705
2387.86352783,0.03753155
2389.79233521,0.03754590
2391.72114258,0.03746521
2393.64994995,0.03746065
2395.57875732,0.03744745
2397.50756470,0.03752354
2399.43637207,0.03740624
2401.36517944,0.03729301
2403.29398682,0.03734290
2405.22279419,0.03717769
2407.15160156,0.03732195
2409.08040894,0.03731139
2411.00921631,0.03715613
2412.93802368,0.03707490
2414.86683105,0.03708919
2416.79563843,0.03713624
2418.72444580,0.03693295
2420.65325317,0.03698268
2422.58206055,0.03699292
2424.51086792,0.03694161
2426.43967529,0.03680541
2428.36848267,0.03669352
2430.29729004,0.03678929
2432.22609741,0.03674581
2434.15490479,0.03687868
2436.08371216,0.03683582
2438.01251953,0.03663866
2439.94132690,0.03659130
2441.87013428,0.03658908
2443.79894165,0.03657867
2445.72774902,0.03640774
2447.65655640,0.03638241
2449.58536377,0.03639408
2451.51417114,0.03637857
2453.44297852,0.03634526
2455.37178589,0.03618745
2457.30059326,0.03620274
2459.22940063,0.03622907
2461.15820801,0.03611247
2463.08701538,0.03611510
2465.01582275,0.03602216
2466.94463013,0.03600089
2468.87343750,0.03621032
2470.80224487,0.03603024
2472.73105225,0.03589718
2474.65985962,0.03594191
2476.58866699,0.03584776
2478.51747437,0.03583081
2480.44628174,0.03570230
2482.37508911,0.03568556
2484.30389648,0.03570941
2486.23270386,0.03563375
2488.16151123,0.03565630
2490.09031860,0.03567243
2492.01912598,0.03554056
2493.94793335,0.03540687
2495.87674072,0.03549756
2497.80554810,0.03548476
2499.73435547,0.03539574
2501.66316284,0.03533845
2503.59197021,0.03534666
2505.52077759,0.03531808
2507.44958496,0.03514182
2509.37839233,0.03515308
2511.30719971,0.03512029
2513.23600708,0.03504899
2515.16481445,0.03504184
2517.09362183,0.03504673
2519.02242920,0.03505762
2520.95123657,0.03501448
2522.88004395,0.03495346
2524.80885132,0.03486431
2526.73765869,0.03489767
2528.66646606,0.03472605
2530.59527344,0.03468998
2532.52408081,0.03487787
2534.45288818,0.03475993
2536.38169556,0.03468564
2538.31050293,0.03464409
2540.23931030,0.03472789
2542.16811768,0.03464457
2544.09692505,0.03438832
2546.02573242,0.03445775
2547.95453979,0.03446419
2549.88334717,0.03445718
2551.81215454,0.03448668
2553.74096191,0.03446230
2555.66976929,0.03433744
2557.59857666,0.03417432
2559.52738403,0.03411384
2561.45619141,0.03404035
2563.38499878,0.03413557
2565.31380615,0.03409987
2567.24261353,0.03401166
2569.17142090,0.03412317
2571.10022827,0.03401130
2573.02903564,0.03397281
2574.95784302,0.03402264
2576.88665039,0.03392982
2578.81545776,0.03388675
2580.74426514,0.03380811
2582.67307251,0.03372695
2584.60187988,0.03366958
2586.53068726,0.03379817
2588.45949463,0.03382905
2590.38830200,0.03359883
2592.31710937,0.03364670
2594.24591675,0.03357766
2596.17472412,0.03347830
2598.10353149,0.03351833
2600.03233887,0.03347181
2601.96114624,0.03352285
2603.88995361,0.03338295
2605.81876099,0.03329413
2607.74756836,0.03321596
2609.67637573,0.03329374
2611.60518311,0.03342032
2613.53399048,0.03313895
2615.46279785,0.03322583
2617.39160522,0.03321334
2619.32041260,0.03302746
2621.24921997,0.03309191
2623.17802734,0.03307030
2625.10683472,0.03298569
2627.03564209,0.03280402
2628.96444946,0.03289212
2630.89325684,0.03286470
2632.82206421,0.03270873
2634.75087158,0.03272710
2636.67967895,0.03271370
2638.60848633,0.03270867
2640.53729370,0.03254368
2642.46610107,0.03266000
2644.39490845,0.03266504
2646.32371582,0.03245925
2648.25252319,0.03251807
2650.18133057,0.03235947
2652.11013794,0.03228875
2654.03894531,0.03237164
2655.96775269,0.03229368
2657.89656006,0.03227276
2659.82536743,0.03233612
2661.75417480,0.03218124
2663.68298218,0.03209606
2665.61178955,0.03222616
2667.54059692,0.03212486
2669.46940430,0.03206961
2671.39821167,0.03198615
2673.32701904,0.03192331
2675.25582642,0.03200545
2677.18463379,0.03194175
2679.11344116,0.03187121
2681.04224854,0.03178109
2682.97105591,0.03181496
2684.89986328,0.03174435
2686.82867065,0.03162313
2688.75747803,0.03175718
2690.68628540,0.03172875
2692.61509277,0.03167846
2694.54390015,0.03159463
2696.47270752,0.03146417
2698.40151489,0.03153376
2700.33032227,0.03148521
2702.25912964,0.03139558
2704.18793701,0.03136837
2706.11674438,0.03130404
2708.04555176,0.03129078
2709.97435913,0.03121147
2711.90316650,0.03119342
2713.83197388,0.03125935
2715.76078125,0.03124207
2717.68958862,0.03115214
2719.61839600,0.03102352
2721.54720337,0.03106672
2723.47601074,0.03106685
2725.40481812,0.03098591
2727.33362549,0.03097445
2729.26243286,0.03092224
2731.19124023,0.03093871
2733.12004761,0.03077475
2735.04885498,0.03060867
2736.97766235,0.03071696
2738.90646973,0.03070145
2740.83527710,0.03052069
2742.76408447,0.03049175
2744.69289185,0.03055631
2746.62169922,0.03045093
2748.55050659,0.03039951
2750.47931396,0.03036296
2752.40812134,0.03027445
2754.33692871,0.03027879
2756.26573608,0.03028631
2758.19454346,0.03028470
2760.12335083,0.03020588
2762.05215820,0.03010273
2763.98096558,0.02996665
2765.90977295,0.02999035
2767.83858032,0.03007354
2769.76738770,0.02998442
2771.69619507,0.03000445
2773.62500244,0.02998247
2775.55380981,0.02988012
2777.48261719,0.02980015
2779.41142456,0.02978100
2781.34023193,0.02972987
2783.26903931,0.02961037
2785.19784668,0.02956996
2787.12665405,0.02949791
2789.05546143,0.02951571
2790.98426880,0.02947306
2792.91307617,0.02938037
2794.84188354,0.02941555
2796.77069092,0.02938792
2798.69949829,0.02925336
2800.62830566,0.02910663
2802.55711304,0.02910668
2804.48592041,0.02915097
2806.41472778,0.02914771
2808.34353516,0.02899545
2810.27234253,0.02891052
2812.20114990,0.02892575
2814.12995728,0.02879124
2816.05876465,0.02882151
2817.98757202,0.02883825
2819.91637939,0.02869519
2821.84518677,0.02868757
2823.77399414,0.02877381
2825.70280151,0.02862715
2827.63160889,0.02850157
2829.56041626,0.02850759
2831.48922363,0.02830487
2833.41803101,0.02824175
2835.34683838,0.02819851
2837.27564575,0.02817741
2839.20445312,0.02806825
2841.13326050,0.02786055
2843.06206787,0.02788334
2844.99087524,0.02765888
2846.91968262,0.02745713
2848.84848999,0.02727614
2850.77729736,0.02716683
2852.70610474,0.02726625
2854.63491211,0.02733921
2856.56371948,0.02747389
2858.49252686,0.02731059
2860.42133423,0.02728428
2862.35014160,0.02737956
2864.27894897,0.02735424
2866.20775635,0.02736201
2868.13656372,0.02730171
2870.06537109,0.02726296
2871.99417847,0.02709430
2873.92298584,0.02711451
2875.85179321,0.02704575
2877.78060059,0.02697516
2879.70940796,0.02709773
2881.63821533,0.02698530
2883.56702270,0.02697594
2885.49583008,0.02689939
2887.42463745,0.02681550
2889.35344482,0.02674207
2891.28225220,0.02665200
2893.21105957,0.02662600
2895.13986694,0.02650894
2897.06867432,0.02645002
2898.99748169,0.02638855
2900.92628906,0.02642814
2902.85509644,0.02625532
2904.78390381,0.02618144
2906.71271118,0.02624092
2908.64151855,0.02600402
2910.57032593,0.02594232
2912.49913330,0.02574729
2914.42794067,0.02556563
2916.35674805,0.02547942
2918.28555542,0.02539632
2920.21436279,0.02545572
2922.14317017,0.02544379
2924.07197754,0.02552802
2926.00078491,0.02546585
2927.92959229,0.02551982
2929.85839966,0.02560394
2931.78720703,0.02549805
2933.71601440,0.02564308
2935.64482178,0.02563886
2937.57362915,0.02558963
2939.50243652,0.02570469
2941.43124390,0.02571716
2943.36005127,0.02573140
2945.28885864,0.02575136
2947.21766602,0.02566392
2949.14647339,0.02556500
2951.07528076,0.02547771
2953.00408813,0.02541310
2954.93289551,0.02544405
2956.86170288,0.02538109
2958.79051025,0.02528169
2960.71931763,0.02521445
2962.64812500,0.02521588
2964.57693237,0.02522799
2966.50573975,0.02514203
2968.43454712,0.02517420
2970.36335449,0.02519515
2972.29216187,0.02519972
2974.22096924,0.02520145
2976.14977661,0.02521522
2978.07858398,0.02529040
2980.00739136,0.02528565
2981.93619873,0.02534038
2983.86500610,0.02527749
2985.79381348,0.02516007
2987.72262085,0.02517657
2989.65142822,0.02517973
2991.58023560,0.02515815
2993.50904297,0.02505665
2995.43785034,0.02501589
2997.36665771,0.02499153
2999.29546509,0.02496406
3001.22427246,0.02498991
3003.15307983,0.02494294
3005.08188721,0.02493568
3007.01069458,0.02480705
3008.93950195,0.02465352
3010.86830933,0.02471058
3012.79711670,0.02465274
3014.72592407,0.02453988
3016.65473145,0.02450836
3018.58353882,0.02456620
3020.51234619,0.02460546
3022.44115356,0.02444429
3024.36996094,0.02439898
3026.29876831,0.02437324
3028.22757568,0.02433595
3030.15638306,0.02428439
3032.08519043,0.02410491
3034.01399780,0.02418488
3035.94280518,0.02414121
3037.87161255,0.02404763
3039.80041992,0.02409007
3041.72922729,0.02394617
3043.65803467,0.02398359
3045.58684204,0.02391572
3047.51564941,0.02379163
3049.44445679,0.02383464
3051.37326416,0.02376342
3053.30207153,0.02378078
3055.23087891,0.02368787
3057.15968628,0.02358397
3059.08849365,0.02363743
3061.01730103,0.02352069
3062.94610840,0.02341355
3064.87491577,0.02344341
3066.80372314,0.02340501
3068.73253052,0.02326857
3070.66133789,0.02321072
3072.59014526,0.02328362
3074.51895264,0.02333908
3076.44776001,0.02324742
3078.37656738,0.02309542
3080.30537476,0.02315237
3082.23418213,0.02318849
3084.16298950,0.02301437
3086.09179687,0.02301301
3088.02060425,0.02301601
3089.94941162,0.02294908
3091.87821899,0.02296594
3093.80702637,0.02279673
3095.73583374,0.02264971
3097.66464111,0.02270696
3099.59344849,0.02280627
3101.52225586,0.02273263
3103.45106323,0.02261221
3105.37987061,0.02260451
3107.30867798,0.02248359
3109.23748535,0.02248632
3111.16629272,0.02248146
3113.09510010,0.02239063
3115.02390747,0.02236276
3116.95271484,0.02228379
3118.88152222,0.02225420
3120.81032959,0.02207920
3122.73913696,0.02210701
3124.66794434,0.02221636
3126.59675171,0.02200774
3128.52555908,0.02200742
3130.45436645,0.02198122
3132.38317383,0.02181384
3134.31198120,0.02178573
3136.24078857,0.02181419
3138.16959595,0.02179876
3140.09840332,0.02168638
3142.02721069,0.02167487
3143.95601807,0.02162209
3145.88482544,0.02149630
3147.81363281,0.02147879
3149.74244019,0.02133816
3151.67124756,0.02132436
3153.60005493,0.02140614
3155.52886230,0.02126707
3157.45766968,0.02126790
3159.38647705,0.02115334
3161.31528442,0.02102999
3163.24409180,0.02116213
3165.17289917,0.02102650
3167.10170654,0.02085988
3169.03051392,0.02084062
3170.95932129,0.02082965
3172.88812866,0.02076668
3174.81693604,0.02075110
3176.74574341,0.02069700
3178.67455078,0.02051690
3180.60335815,0.02068512
3182.53216553,0.02067561
3184.46097290,0.02045113
3186.38978027,0.02047641
3188.31858765,0.02041899
3190.24739502,0.02033742
3192.17620239,0.02029122
3194.10500977,0.02029109
3196.03381714,0.02021441
3197.96262451,0.02015004
3199.89143188,0.02013817
3201.82023926,0.02004626
3203.74904663,0.02003528
3205.67785400,0.01999176
3207.60666138,0.01997225
3209.53546875,0.01994589
3211.46427612,0.01986566
3213.39308350,0.01982633
3215.32189087,0.01981596
3217.25069824,0.01978135
3219.17950562,0.01969663
3221.10831299,0.01964338
3223.03712036,0.01966740
3224.96592773,0.01976571
3226.89473511,0.01961390
3228.82354248,0.01950502
3230.75234985,0.01955786
3232.68115723,0.01948458
3234.60996460,0.01952504
3236.53877197,0.01951024
3238.46757935,0.01947792
3240.39638672,0.01943844
3242.32519409,0.01931455
3244.25400146,0.01920918
3246.18280884,0.01924101
3248.11161621,0.01934651
3250.04042358,0.01923571
3251.96923096,0.01922902
3253.89803833,0.01925445
3255.82684570,0.01921058
3257.75565308,0.01918888
3259.68446045,0.01913402
3261.61326782,0.01913273
3263.54207520,0.01912465
3265.47088257,0.01908292
3267.39968994,0.01899541
3269.32849731,0.01908851
3271.25730469,0.01902623
3273.18611206,0.01891681
3275.11491943,0.01901579
3277.04372681,0.01894960
3278.97253418,0.01900271
3280.90134155,0.01898136
3282.83014893,0.01892450
3284.75895630,0.01890779
3286.68776367,0.01876437
3288.61657104,0.01878756
3290.54537842,0.01884171
3292.47418579,0.01883527
3294.40299316,0.01884770
3296.33180054,0.01879034
3298.26060791,0.01864212
3300.18941528,0.01874951
3302.11822266,0.01881879
3304.04703003,0.01879824
3305.97583740,0.01882237
3307.90464478,0.01863219
3309.83345215,0.01865276
3311.76225952,0.01860305
3313.69106689,0.01857797
3315.61987427,0.01861123
3317.54868164,0.01851102
3319.47748901,0.01859757
3321.40629639,0.01851010
3323.33510376,0.01846270
3325.26391113,0.01849120
3327.19271851,0.01842711
3329.12152588,0.01835456
3331.05033325,0.01841293
3332.97914062,0.01841922
3334.90794800,0.01828439
3336.83675537,0.01834882
3338.76556274,0.01820727
3340.69437012,0.01818343
3342.62317749,0.01825687
3344.55198486,0.01823517
3346.48079224,0.01826478
3348.40959961,0.01816898
3350.33840698,0.01813264
3352.26721436,0.01808361
3354.19602173,0.01816334
3356.12482910,0.01804737
3358.05363647,0.01806244
3359.98244385,0.01807038
3361.91125122,0.01776742
3363.84005859,0.01781734
3365.76886597,0.01773862
3367.69767334,0.01784768
3369.62648071,0.01781995
3371.55528809,0.01771780
3373.48409546,0.01792526
3375.41290283,0.01777831
3377.34171020,0.01776847
3379.27051758,0.01768754
3381.19932495,0.01760022
3383.12813232,0.01758732
3385.05693970,0.01754766
3386.98574707,0.01755958
3388.91455444,0.01748941
3390.84336182,0.01752443
3392.77216919,0.01740063
3394.70097656,0.01743358
3396.62978394,0.01745964
3398.55859131,0.01736125
3400.48739868,0.01735727
3402.41620605,0.01731128
3404.34501343,0.01722427
3406.27382080,0.01715482
3408.20262817,0.01726349
3410.13143555,0.01718668
3412.06024292,0.01720245
3413.98905029,0.01711632
3415.91785767,0.01706914
3417.84666504,0.01723458
3419.77547241,0.01699154
3421.70427979,0.01697065
3423.63308716,0.01703599
3425.56189453,0.01702532
3427.49070190,0.01690910
3429.41950928,0.01679847
3431.34831665,0.01689582
3433.27712402,0.01685110
3435.20593140,0.01679394
3437.13473877,0.01675502
3439.06354614,0.01687369
3440.99235352,0.01668331
3442.92116089,0.01667011
3444.84996826,0.01679906
3446.77877563,0.01649806
3448.70758301,0.01653622
3450.63639038,0.01655641
3452.56519775,0.01667343
3454.49400513,0.01666884
3456.42281250,0.01650681
3458.35161987,0.01660932
3460.28042725,0.01652491
3462.20923462,0.01643378
3464.13804199,0.01641286
3466.06684937,0.01652120
3467.99565674,0.01649648
3469.92446411,0.01642825
3471.85327148,0.01651024
3473.78207886,0.01651855
3475.71088623,0.01636039
3477.63969360,0.01635939
3479.56850098,0.01645267
3481.49730835,0.01603637
3483.42611572,0.01609871
3485.35492310,0.01633700
3487.28373047,0.01620891
3489.21253784,0.01617411
3491.14134521,0.01615762
3493.07015259,0.01629092
3494.99895996,0.01615926
3496.92776733,0.01616085
3498.85657471,0.01628877
3500.78538208,0.01623495
3502.71418945,0.01588948
3504.64299683,0.01583861
3506.57180420,0.01635369
3508.50061157,0.01606001
3510.42941895,0.01593409
3512.35822632,0.01618007
3514.28703369,0.01618481
3516.21584106,0.01619976
3518.14464844,0.01606019
3520.07345581,0.01619039
3522.00226318,0.01602556
3523.93107056,0.01575035
3525.85987793,0.01585762
3527.78868530,0.01588202
3529.71749268,0.01583061
3531.64630005,0.01605555
3533.57510742,0.01621658
3535.50391479,0.01595272
3537.43272217,0.01592509
3539.36152954,0.01609012
3541.29033691,0.01615104
3543.21914429,0.01603031
3545.14795166,0.01560729
3547.07675903,0.01533092
3549.00556641,0.01589973
3550.93437378,0.01601085
3552.86318115,0.01550364
3554.79198853,0.01599065
3556.72079590,0.01615302
3558.64960327,0.01598228
3560.57841064,0.01578166
3562.50721802,0.01576452
3564.43602539,0.01588193
3566.36483276,0.01450622
3568.29364014,0.01416480
3570.22244751,0.01559624
3572.15125488,0.01614329
3574.08006226,0.01593022
3576.00886963,0.01594410
3577.93767700,0.01583358
3579.86648437,0.01573432
3581.79529175,0.01581199
3583.72409912,0.01593589
3585.65290649,0.01558219
3587.58171387,0.01389519
3589.51052124,0.01440991
3591.43932861,0.01605810
3593.36813599,0.01538522
3595.29694336,0.01515739
3597.22575073,0.01549960
3599.15455811,0.01561285
3601.08336548,0.01542645
3603.01217285,0.01557680
3604.94098022,0.01604861
3606.86978760,0.01532656
3608.79859497,0.01419683
3610.72740234,0.01462898
3612.65620972,0.01502829
3614.58501709,0.01447750
3616.51382446,0.01574047
3618.44263184,0.01434523
3620.37143921,0.01368812
3622.30024658,0.01586794
3624.22905395,0.01531035
3626.15786133,0.01617707
3628.08666870,0.01339723
3630.01547607,0.01185807
3631.94428345,0.01569395
3633.87309082,0.01525510
3635.80189819,0.01548759
3637.73070557,0.01587487
3639.65951294,0.01557711
3641.58832031,0.01577972
3643.51712769,0.01555436
3645.44593506,0.01569985
3647.37474243,0.01384946
3649.30354980,0.01250587
3651.23235718,0.01263176
3653.16116455,0.01559271
3655.08997192,0.01540404
3657.01877930,0.01339361
3658.94758667,0.01589542
3660.87639404,0.01550430
3662.80520142,0.01574812
3664.73400879,0.01578080
3666.66281616,0.01544521
3668.59162354,0.01488097
3670.52043091,0.01175003
3672.44923828,0.01480051
3674.37804565,0.01401502
3676.30685303,0.01116002
3678.23566040,0.01471403
3680.16446777,0.01509297
3682.09327515,0.01506948
3684.02208252,0.01567405
3685.95088989,0.01539523
3687.87969727,0.01357979
3689.80850464,0.01223307
3691.73731201,0.01427314
3693.66611938,0.01480242
3695.59492676,0.01520609
3697.52373413,0.01515901
3699.45254150,0.01511706
3701.38134888,0.01464825
3703.31015625,0.01389108
3705.23896362,0.01566784
3707.16777100,0.01468993
3709.09657837,0.01422600
3711.02538574,0.01336607
3712.95419312,0.01222751
3714.88300049,0.01484072
3716.81180786,0.01464231
3718.74061523,0.01471393
3720.66942261,0.01444808
3722.59822998,0.01382952
3724.52703735,0.01447741
3726.45584473,0.01330144
3728.38465210,0.01454230
3730.31345947,0.01444034
3732.24226685,0.01311820
3734.17107422,0.01261744
3736.09988159,0.01179986
3738.02868896,0.01273312
3739.95749634,0.01402821
3741.88630371,0.01475331
3743.81511108,0.01104149
3745.74391846,0.01030391
3747.67272583,0.01394336
3749.60153320,0.01178454
3751.53034058,0.01064875
3753.45914795,0.01252380
3755.38795532,0.01381427
3757.31676270,0.01439099
3759.24557007,0.01311109
3761.17437744,0.01377990
3763.10318481,0.01475852
3765.03199219,0.01350575
3766.96079956,0.01386953
3768.88960693,0.01370572
3770.81841431,0.01287733
3772.74722168,0.01424531
3774.67602905,0.01427864
3776.60483643,0.01430728
3778.53364380,0.01386123
3780.46245117,0.01312849
3782.39125854,0.01435391
3784.32006592,0.01387496
3786.24887329,0.01374590
3788.17768066,0.01422689
3790.10648804,0.01403370
3792.03529541,0.01398524
3793.96410278,0.01421354
3795.89291016,0.01329617
3797.82171753,0.01305724
3799.75052490,0.01383733
3801.67933228,0.01066917
3803.60813965,0.01269684
3805.53694702,0.01401205
3807.46575439,0.01106014
3809.39456177,0.01384001
3811.32336914,0.01358271
3813.25217651,0.01403823
3815.18098389,0.01253763
3817.10979126,0.01073350
3819.03859863,0.01407463
3820.96740601,0.01090371
3822.89621338,0.01163590
3824.82502075,0.01404564
3826.75382812,0.01246153
3828.68263550,0.01367190
3830.61144287,0.01291021
3832.54025024,0.01243979
3834.46905762,0.01290595
3836.39786499,0.01207804
3838.32667236,0.01078216
3840.25547974,0.01169833
3842.18428711,0.01275568
3844.11309448,0.01215400
3846.04190186,0.01323590
3847.97070923,0.01310779
3849.89951660,0.01310419
3851.82832397,0.01157206
3853.75713135,0.00826292
3855.68593872,0.01009981
3857.61474609,0.01314543
3859.54355347,0.01282235
3861.47236084,0.01267245
3863.40116821,0.01222493
3865.32997559,0.01119180
3867.25878296,0.01285078
3869.18759033,0.01160132
3871.11639770,0.01069009
3873.04520508,0.01289118
3874.97401245,0.01153145
3876.90281982,0.01284457
3878.83162720,0.01307011
3880.76043457,0.01083049
3882.68924194,0.01292270
3884.61804932,0.01196708
3886.54685669,0.01080797
3888.47566406,0.01292033
3890.40447144,0.01206003
3892.33327881,0.01120692
3894.26208618,0.01256991
3896.19089355,0.01281360
3898.11970093,0.01205659
3900.04850830,0.01132546
3901.97731567,0.01113344
3903.90612305,0.01111073
3905.83493042,0.01129534
3907.76373779,0.01254988
3909.69254517,0.01271548
3911.62135254,0.01239942
3913.55015991,0.01271444
3915.47896728,0.01231333
3917.40777466,0.01180663
3919.33658203,0.01174167
3921.26538940,0.01215771
3923.19419678,0.01215143
3925.12300415,0.01192876
3927.05181152,0.01209516
3928.98061890,0.01225522
3930.90942627,0.01190906
3932.83823364,0.01144864
3934.76704102,0.01208858
3936.69584839,0.01229048
3938.62465576,0.01213446
3940.55346313,0.01221149
3942.48227051,0.01169763
3944.41107788,0.01177645
3946.33988525,0.01204669
3948.26869263,0.01175675
3950.19750000,0.01172619
3952.12630737,0.01195662
3954.05511475,0.01200453
3955.98392212,0.01191801
3957.91272949,0.01189715
3959.84153687,0.01199988
3961.77034424,0.01183180
3963.69915161,0.01173869
3965.62795898,0.01187962
3967.55676636,0.01179884
3969.48557373,0.01187791
3971.41438110,0.01175682
3973.34318848,0.01175934
3975.27199585,0.01172795
3977.20080322,0.01159628
3979.12961060,0.01187224
3981.05841797,0.01166671
3982.98722534,0.01155440
3984.91603271,0.01156841
3986.84484009,0.01165920
3988.77364746,0.01169418
3990.70245483,0.01149716
3992.63126221,0.01161891
3994.56006958,0.01146325
3996.48887695,0.01154346
3998.41768433,0.01154951
4000.34649170,0.01142279
4002.27529907,0.01149934
4004.20410645,0.01137177
4006.13291382,0.01137473
4008.06172119,0.01132758
4009.99052856,0.01140730
4011.91933594,0.01131816
4013.84814331,0.01129257
4015.77695068,0.01135173
4017.70575806,0.01122241
4019.63456543,0.01129787
4021.56337280,0.01123219
4023.49218018,0.01121301
4025.42098755,0.01111749
4027.34979492,0.01110906
4029.27860229,0.01117459
4031.20740967,0.01110001
4033.13621704,0.01105868
4035.06502441,0.01105679
4036.99383179,0.01111581
4038.92263916,0.01098258
4040.85144653,0.01105175
4042.78025391,0.01100321
4044.70906128,0.01095944
4046.63786865,0.01098991
4048.56667603,0.01095834
4050.49548340,0.01107229
4052.42429077,0.01088530
4054.35309814,0.01093340
4056.28190552,0.01078263
4058.21071289,0.01075712
4060.13952026,0.01090810
4062.06832764,0.01070371
4063.99713501,0.01081627
4065.92594238,0.01072630
4067.85474976,0.01077870
4069.78355713,0.01076410
4071.71236450,0.01068686
4073.64117187,0.01071242
4075.56997925,0.01054683
4077.49878662,0.01068775
4079.42759399,0.01054723
4081.35640137,0.01053518
4083.28520874,0.01059733
4085.21401611,0.01048800
4087.14282349,0.01053950
4089.07163086,0.01048794
4091.00043823,0.01051150
4092.92924561,0.01045465
4094.85805298,0.01044685
4096.78686035,0.01038310
4098.71566772,0.01033291
4100.64447510,0.01039251
4102.57328247,0.01037767
4104.50208984,0.01034839
4106.43089722,0.01026832
4108.35970459,0.01031997
4110.28851196,0.01031257
4112.21731934,0.01026175
4114.14612671,0.01016085
4116.07493408,0.01020157
4118.00374145,0.01025998
4119.93254883,0.01016190
4121.86135620,0.01022015
4123.79016357,0.01015176
4125.71897095,0.01011464
4127.64777832,0.00999027
4129.57658569,0.00998977
4131.50539307,0.01013599
4133.43420044,0.01004610
4135.36300781,0.01002693
4137.29181519,0.00995457
4139.22062256,0.00995407
4141.14942993,0.00994979
4143.07823730,0.00991615
4145.00704468,0.00986661
4146.93585205,0.00988683
4148.86465942,0.00994303
4150.79346680,0.00980747
4152.72227417,0.00981774
4154.65108154,0.00974944
4156.57988892,0.00980879
4158.50869629,0.00977927
4160.43750366,0.00963499
4162.36631103,0.00977802
4164.29511841,0.00972529
4166.22392578,0.00969819
4168.15273315,0.00962445
4170.08154053,0.00957161
4172.01034790,0.00960199
4173.93915527,0.00961170
4175.86796265,0.00966501
4177.79677002,0.00954095
4179.72557739,0.00946996
4181.65438477,0.00943736
4183.58319214,0.00954724
4185.51199951,0.00954826
4187.44080688,0.00947238
4189.36961426,0.00954600
4191.29842163,0.00942671
4193.22722900,0.00943598
4195.15603638,0.00941246
4197.08484375,0.00932012
4199.01365112,0.00934773
4200.94245850,0.00932849
4202.87126587,0.00937466
4204.80007324,0.00936379
4206.72888062,0.00930205
4208.65768799,0.00933190
4210.58649536,0.00929405
4212.51530273,0.00919146
4214.44411011,0.00917517
4216.37291748,0.00909297
4218.30172485,0.00910835
4220.23053223,0.00919822
4222.15933960,0.00918209
4224.08814697,0.00914499
4226.01695435,0.00901100
4227.94576172,0.00906054
4229.87456909,0.00909336
4231.80337646,0.00901501
4233.73218384,0.00902158
4235.66099121,0.00894953
4237.58979858,0.00892917
4239.51860596,0.00892184
4241.44741333,0.00895378
4243.37622070,0.00893582
4245.30502808,0.00886670
4247.23383545,0.00889231
4249.16264282,0.00887171
4251.09145020,0.00886249
4253.02025757,0.00887679
4254.94906494,0.00888261
4256.87787231,0.00883266
4258.80667969,0.00881621
4260.73548706,0.00882341
4262.66429443,0.00872210
4264.59310181,0.00866386
4266.52190918,0.00868105
4268.45071655,0.00872011
4270.37952393,0.00868203
4272.30833130,0.00861576
4274.23713867,0.00867196
4276.16594604,0.00864751
4278.09475342,0.00856919
4280.02356079,0.00863905
4281.95236816,0.00861103
4283.88117554,0.00856185
4285.80998291,0.00860766
4287.73879028,0.00856349
4289.66759766,0.00852446
4291.59640503,0.00845212
4293.52521240,0.00842216
4295.45401978,0.00844061
4297.38282715,0.00840769
4299.31163452,0.00841648
4301.24044189,0.00840566
4303.16924927,0.00829407
4305.09805664,0.00825443
4307.02686401,0.00839866
4308.95567139,0.00830637
4310.88447876,0.00822525
4312.81328613,0.00830488
4314.74209351,0.00822511
4316.67090088,0.00824575
4318.59970825,0.00819797
4320.52851562,0.00817436
4322.45732300,0.00824749
4324.38613037,0.00817773
4326.31493774,0.00814641
4328.24374512,0.00818336
4330.17255249,0.00813543
4332.10135986,0.00806399
4334.03016724,0.00815315
4335.95897461,0.00812851
4337.88778198,0.00809271
4339.81658936,0.00811075
4341.74539673,0.00803820
4343.67420410,0.00806066
4345.60301147,0.00804060
4347.53181885,0.00801288
4349.46062622,0.00797131
4351.38943359,0.00795136
4353.31824097,0.00792217
4355.24704834,0.00790205
4357.17585571,0.00792182
4359.10466309,0.00785756
4361.03347046,0.00790888
4362.96227783,0.00785090
4364.89108520,0.00780192
4366.81989258,0.00778215
4368.74869995,0.00773683
4370.67750732,0.00787710
4372.60631470,0.00778547
4374.53512207,0.00767983
4376.46392944,0.00776334
4378.39273682,0.00775144
4380.32154419,0.00766522
4382.25035156,0.00764140
4384.17915894,0.00764954
4386.10796631,0.00765872
4388.03677368,0.00768544
4389.96558105,0.00766092
4391.89438843,0.00764262
4393.82319580,0.00753579
4395.75200317,0.00753298
4397.68081055,0.00754954
4399.60961792,0.00752939
4401.53842529,0.00760407
4403.46723267,0.00750095
4405.39604004,0.00745954
4407.32484741,0.00744214
4409.25365478,0.00746203
4411.18246216,0.00749495
4413.11126953,0.00741332
4415.04007690,0.00740119
4416.96888428,0.00736702
4418.89769165,0.00738265
4420.82649902,0.00733681
4422.75530640,0.00732606
4424.68411377,0.00731514
4426.61292114,0.00730478
4428.54172852,0.00732636
4430.47053589,0.00722640
4432.39934326,0.00726410
4434.32815063,0.00719824
4436.25695801,0.00723724
4438.18576538,0.00731187
4440.11457275,0.00722151
4442.04338013,0.00723440
4443.97218750,0.00716825
4445.90099487,0.00723520
4447.82980225,0.00713766
4449.75860962,0.00703482
4451.68741699,0.00720113
4453.61622437,0.00712936
4455.54503174,0.00706457
4457.47383911,0.00704686
4459.40264648,0.00699446
4461.33145386,0.00708338
4463.26026123,0.00709280
4465.18906860,0.00693516
4467.11787598,0.00697140
4469.04668335,0.00708177
4470.97549072,0.00698056
4472.90429810,0.00693395
4474.83310547,0.00701082
4476.76191284,0.00693214
4478.69072021,0.00685546
4480.61952759,0.00700119
4482.54833496,0.00690041
4484.47714233,0.00685913
4486.40594971,0.00692473
4488.33475708,0.00677833
4490.26356445,0.00681021
4492.19237183,0.00675839
4494.12117920,0.00679151
4496.04998657,0.00676686
4497.97879395,0.00665566
4499.90760132,0.00677727
4501.83640869,0.00668689
4503.76521606,0.00668993
4505.69402344,0.00669460
4507.62283081,0.00663201
4509.55163818,0.00665373
4511.48044556,0.00659714
4513.40925293,0.00663792
4515.33806030,0.00666936
4517.26686768,0.00664232
4519.19567505,0.00656607
4521.12448242,0.00656743
4523.05328979,0.00653774
4524.98209717,0.00648527
4526.91090454,0.00653568
4528.83971191,0.00653035
4530.76851929,0.00653684
4532.69732666,0.00647405
4534.62613403,0.00645941
4536.55494141,0.00643277
4538.48374878,0.00644541
4540.41255615,0.00644602
4542.34136353,0.00631914
4544.27017090,0.00641756
4546.19897827,0.00636998
4548.12778564,0.00629167
4550.05659302,0.00633141
4551.98540039,0.00623750
4553.91420776,0.00626234
4555.84301514,0.00632709
4557.77182251,0.00632721
4559.70062988,0.00625677
4561.62943726,0.00623969
4563.55824463,0.00627688
4565.48705200,0.00627648
4567.41585937,0.00624274
4569.34466675,0.00617101
4571.27347412,0.00619089
4573.20228149,0.00617446
4575.13108887,0.00616220
4577.05989624,0.00616106
4578.98870361,0.00609023
4580.91751099,0.00610631
4582.84631836,0.00616162
4584.77512573,0.00615159
4586.70393311,0.00609495
4588.63274048,0.00609035
4590.56154785,0.00605424
4592.49035522,0.00601654
4594.41916260,0.00604241
4596.34796997,0.00600261
4598.27677734,0.00598375
4600.20558472,0.00596820
4602.13439209,0.00601571
4604.06319946,0.00608629
4605.99200684,0.00595556
4607.92081421,0.00593946
4609.84962158,0.00604624
4611.77842895,0.00598968
4613.70723633,0.00590672
4615.63604370,0.00586373
4617.56485107,0.00590063
4619.49365845,0.00588157
4621.42246582,0.00579371
4623.35127319,0.00587299
4625.28008057,0.00590519
4627.20888794,0.00584129
4629.13769531,0.00584482
4631.06650269,0.00582860
4632.99531006,0.00574620
4634.92411743,0.00569668
4636.85292480,0.00576206
4638.78173218,0.00579349
4640.71053955,0.00568539
4642.63934692,0.00565507
4644.56815430,0.00571065
4646.49696167,0.00565544
4648.42576904,0.00568028
4650.35457642,0.00568071
4652.28338379,0.00561836
4654.21219116,0.00569329
4656.14099853,0.00563142
4658.06980591,0.00562008
4659.99861328,0.00566888
4661.92742065,0.00557340
4663.85622803,0.00555365
4665.78503540,0.00556987
4667.71384277,0.00555788
4669.64265015,0.00549190
4671.57145752,0.00550537
4673.50026489,0.00549739
4675.42907227,0.00540194
4677.35787964,0.00546141
4679.28668701,0.00549100
4681.21549438,0.00545232
4683.14430176,0.00544562
4685.07310913,0.00547821
4687.00191650,0.00548662
4688.93072388,0.00540215
4690.85953125,0.00535788
4692.78833862,0.00536041
4694.71714600,0.00541232
4696.64595337,0.00545160
4698.57476074,0.00536157
4700.50356812,0.00529767
4702.43237549,0.00533367
4704.36118286,0.00532995
4706.28999023,0.00530074
4708.21879761,0.00530815
4710.14760498,0.00532900
4712.07641235,0.00527853
4714.00521973,0.00524945
4715.93402710,0.00526087
4717.86283447,0.00517823
4719.79164185,0.00525600
4721.72044922,0.00528439
4723.64925659,0.00517001
4725.57806396,0.00516417
4727.50687134,0.00509718
4729.43567871,0.00512917
4731.36448608,0.00515862
4733.29329346,0.00514036
4735.22210083,0.00515201
4737.15090820,0.00510604
4739.07971558,0.00513164
4741.00852295,0.00510027
4742.93733032,0.00506755
4744.86613770,0.00504952
4746.79494507,0.00509572
4748.72375244,0.00509599
4750.65255981,0.00495841
4752.58136719,0.00502911
4754.51017456,0.00501317
4756.43898193,0.00495818
4758.36778931,0.00504772
4760.29659668,0.00496148
4762.22540405,0.00491172
4764.15421143,0.00497264
4766.08301880,0.00494124
4768.01182617,0.00496940
4769.94063354,0.00503579
4771.86944092,0.00494391
4773.79824829,0.00490438
4775.72705566,0.00497683
4777.65586304,0.00491817
4779.58467041,0.00483032
4781.51347778,0.00490795
4783.44228516,0.00489167
4785.37109253,0.00479570
4787.29989990,0.00486747
4789.22870728,0.00482753
4791.15751465,0.00477135
4793.08632202,0.00479423
4795.01512939,0.00477572
4796.94393677,0.00479596
4798.87274414,0.00476518
4800.80155151,0.00471352
4802.73035889,0.00467702
4804.65916626,0.00473695
4806.58797363,0.00478665
4808.51678101,0.00474432
4810.44558838,0.00472365
4812.37439575,0.00471673
4814.30320312,0.00468031
4816.23201050,0.00456765
4818.16081787,0.00463210
4820.08962524,0.00469252
4822.01843262,0.00463722
4823.94723999,0.00464374
4825.87604736,0.00459787
4827.80485474,0.00461051
4829.73366211,0.00463486
4831.66246948,0.00468542
4833.59127686,0.00464620
4835.52008423,0.00452141
4837.44889160,0.00455772
4839.37769897,0.00455504
4841.30650635,0.00451720
4843.23531372,0.00452239
4845.16412109,0.00452879
4847.09292847,0.00449860
4849.02173584,0.00445157
4850.95054321,0.00447588
4852.87935059,0.00455345
4854.80815796,0.00451043
4856.73696533,0.00441924
4858.66577270,0.00448625
4860.59458008,0.00441396
4862.52338745,0.00431905
4864.45219482,0.00438346
4866.38100220,0.00437668
4868.30980957,0.00437656
4870.23861694,0.00442431
4872.16742432,0.00436169
4874.09623169,0.00429921
4876.02503906,0.00438568
4877.95384644,0.00433200
4879.88265381,0.00430257
4881.81146118,0.00433348
4883.74026855,0.00426661
4885.66907593,0.00433219
4887.59788330,0.00431174
4889.52669067,0.00426402
4891.45549805,0.00430062
4893.38430542,0.00427173
4895.31311279,0.00416747
4897.24192017,0.00421953
4899.17072754,0.00432642
4901.09953491,0.00417568
4903.02834228,0.00418706
4904.95714966,0.00424499
4906.88595703,0.00424583
4908.81476440,0.00428458
4910.74357178,0.00422042
4912.67237915,0.00416373
4914.60118652,0.00410770
4916.52999390,0.00418068
4918.45880127,0.00413271
4920.38760864,0.00406499
4922.31641602,0.00410530
4924.24522339,0.00408213
4926.17403076,0.00412943
4928.10283813,0.00407761
4930.03164551,0.00409163
4931.96045288,0.00405600
4933.88926025,0.00400127
4935.81806763,0.00409443
4937.74687500,0.00404045
4939.67568237,0.00399779
4941.60448975,0.00400488
4943.53329712,0.00404550
4945.46210449,0.00399898
4947.39091187,0.00392421
4949.31971924,0.00400964
4951.24852661,0.00405482
4953.17733398,0.00401965
4955.10614136,0.00398859
4957.03494873,0.00397541
4958.96375610,0.00388274
4960.89256348,0.00386814
4962.82137085,0.00387496
4964.75017822,0.00385514
4966.67898560,0.00391293
4968.60779297,0.00385850
4970.53660034,0.00386705
4972.46540771,0.00385047
4974.39421509,0.00376501
4976.32302246,0.00385803
4978.25182983,0.00390190
4980.18063721,0.00380441
4982.10944458,0.00379037
4984.03825195,0.00381684
4985.96705933,0.00374397
4987.89586670,0.00375647
4989.82467407,0.00379921
4991.75348145,0.00379200
4993.68228882,0.00380649
4995.61109619,0.00375360
4997.53990356,0.00371179
4999.46871094,0.00370334
5001.39751831,0.00368981
5003.32632568,0.00372587
5005.25513306,0.00372299
5007.18394043,0.00364166
5009.11274780,0.00368008
5011.04155518,0.00369613
5012.97036255,0.00365365
5014.89916992,0.00374258
5016.82797729,0.00370861
5018.75678467,0.00365071
5020.68559204,0.00366959
5022.61439941,0.00361719
5024.54320679,0.00361250
5026.47201416,0.00362539
5028.40082153,0.00358072
5030.32962891,0.00358278
5032.25843628,0.00358489
5034.18724365,0.00351039
5036.11605103,0.00360263
5038.04485840,0.00367342
5039.97366577,0.00356320
5041.90247314,0.00354814
5043.83128052,0.00359104
5045.76008789,0.00362394
5047.68889526,0.00354751
5049.61770264,0.00350355
5051.54651001,0.00356924
5053.47531738,0.00353043
5055.40412476,0.00349409
5057.33293213,0.00348115
5059.26173950,0.00345029
5061.19054687,0.00347705
5063.11935425,0.00345993
5065.04816162,0.00343438
5066.97696899,0.00350050
5068.90577637,0.00345407
5070.83458374,0.00342608
5072.76339111,0.00340978
5074.69219849,0.00336860
5076.62100586,0.00348134
5078.54981323,0.00338956
5080.47862061,0.00338086
5082.40742798,0.00345462
5084.33623535,0.00332605
5086.26504272,0.00333851
5088.19385010,0.00332762
5090.12265747,0.00335526
5092.05146484,0.00334797
5093.98027222,0.00333642
5095.90907959,0.00340368
5097.83788696,0.00328834
5099.76669434,0.00331698
5101.69550171,0.00337708
5103.62430908,0.00331313
5105.55311645,0.00327366
5107.48192383,0.00327598
5109.41073120,0.00328275
5111.33953857,0.00322469
5113.26834595,0.00327097
5115.19715332,0.00325613
5117.12596069,0.00321754
5119.05476807,0.00328260
5120.98357544,0.00325646
5122.91238281,0.00321965
5124.84119019,0.00321610
5126.76999756,0.00322474
5128.69880493,0.00318076
5130.62761230,0.00317566
5132.55641968,0.00327948
5134.48522705,0.00321369
5136.41403442,0.00308988
5138.34284180,0.00312958
5140.27164917,0.00314714
5142.20045654,0.00307481
5144.12926392,0.00309543
5146.05807129,0.00317388
5147.98687866,0.00309301
5149.91568603,0.00309997
5151.84449341,0.00319480
5153.77330078,0.00306706
5155.70210815,0.00307329
5157.63091553,0.00314991
5159.55972290,0.00306713
5161.48853027,0.00306129
5163.41733765,0.00310811
5165.34614502,0.00314432
5167.27495239,0.00308364
5169.20375977,0.00304034
5171.13256714,0.00304706
5173.06137451,0.00302651
5174.99018188,0.00304983
5176.91898926,0.00304173
5178.84779663,0.00304322
5180.77660400,0.00302890
5182.70541138,0.00301428
5184.63421875,0.00292070
5186.56302612,0.00286783
5188.49183350,0.00303026
5190.42064087,0.00298618
5192.34944824,0.00290338
5194.27825562,0.00296720
5196.20706299,0.00288937
5198.13587036,0.00288595
5200.06467773,0.00299136
5201.99348511,0.00296590
5203.92229248,0.00294033
5205.85109985,0.00288124
5207.77990723,0.00277295
5209.70871460,0.00284360
5211.63752197,0.00292793
5213.56632935,0.00291189
5215.49513672,0.00281973
5217.42394409,0.00280723
5219.35275146,0.00283900
5221.28155884,0.00280660
5223.21036621,0.00288183
5225.13917358,0.00279745
5227.06798096,0.00281239
5228.99678833,0.00286192
5230.92559570,0.00270657
5232.85440308,0.00278939
5234.78321045,0.00279781
5236.71201782,0.00278528
5238.64082520,0.00278627
5240.56963257,0.00277504
5242.49843994,0.00283713
5244.42724731,0.00272953
5246.35605469,0.00276067
5248.28486206,0.00268139
5250.21366943,0.00262617
5252.14247681,0.00277208
5254.07128418,0.00268650
5256.00009155,0.00267625
5257.92889893,0.00270370
5259.85770630,0.00270670
5261.78651367,0.00267419
5263.71532104,0.00258323
5265.64412842,0.00267295
5267.57293579,0.00267334
5269.50174316,0.00264694
5271.43055054,0.00273280
5273.35935791,0.00266728
5275.28816528,0.00263037
5277.21697266,0.00268011
5279.14578003,0.00261358
5281.07458740,0.00261709
5283.00339478,0.00263113
5284.93220215,0.00258478
5286.86100952,0.00266641
5288.78981689,0.00268738
5290.71862427,0.00263539
5292.64743164,0.00264187
5294.57623901,0.00262852
5296.50504639,0.00257433
5298.43385376,0.00254570
5300.36266113,0.00257787
5302.29146851,0.00260626
5304.22027588,0.00258948
5306.14908325,0.00253113
5308.07789062,0.00253227
5310.00669800,0.00253858
5311.93550537,0.00252175
5313.86431274,0.00255871
5315.79312012,0.00256752
5317.72192749,0.00257456
5319.65073486,0.00252347
5321.57954224,0.00248771
5323.50834961,0.00252363
5325.43715698,0.00245205
5327.36596436,0.00242403
5329.29477173,0.00249327
5331.22357910,0.00248561
5333.15238647,0.00246419
5335.08119385,0.00251461
5337.01000122,0.00243418
5338.93880859,0.00230154
5340.86761597,0.00239087
5342.79642334,0.00240147
5344.72523071,0.00234063
5346.65403809,0.00244588
5348.58284546,0.00248500
5350.51165283,0.00246023
5352.44046020,0.00241296
5354.36926758,0.00232479
5356.29807495,0.00234253
5358.22688232,0.00243050
5360.15568970,0.00241491
5362.08449707,0.00233870
5364.01330444,0.00242745
5365.94211182,0.00246620
5367.87091919,0.00238609
5369.79972656,0.00238554
5371.72853394,0.00230651
5373.65734131,0.00233369
5375.58614868,0.00237859
5377.51495605,0.00227400
5379.44376343,0.00232373
5381.37257080,0.00233091
5383.30137817,0.00228336
5385.23018555,0.00229245
5387.15899292,0.00230695
5389.08780029,0.00236114
5391.01660767,0.00230490
5392.94541504,0.00224241
5394.87422241,0.00223575
5396.80302978,0.00227755
5398.73183716,0.00227215
5400.66064453,0.00220995
5402.58945190,0.00230273
5404.51825928,0.00227136
5406.44706665,0.00224330
5408.37587402,0.00230403
5410.30468140,0.00217640
5412.23348877,0.00217059
5414.16229614,0.00218466
5416.09110352,0.00214235
5418.01991089,0.00225529
5419.94871826,0.00230093
5421.87752563,0.00224176
5423.80633301,0.00220971
5425.73514038,0.00227077
5427.66394775,0.00228911
5429.59275513,0.00218117
5431.52156250,0.00219292
5433.45036987,0.00222116
5435.37917725,0.00207820
5437.30798462,0.00207941
5439.23679199,0.00220662
5441.16559936,0.00218333
5443.09440674,0.00216653
5445.02321411,0.00211347
5446.95202148,0.00206018
5448.88082886,0.00213567
5450.80963623,0.00217726
5452.73844360,0.00217704
5454.66725098,0.00208445
5456.59605835,0.00208484
5458.52486572,0.00217596
5460.45367310,0.00215276
5462.38248047,0.00209171
5464.31128784,0.00200186
5466.24009521,0.00213205
5468.16890259,0.00214505
5470.09770996,0.00198027
5472.02651733,0.00212760
5473.95532471,0.00208079
5475.88413208,0.00198092
5477.81293945,0.00213574
5479.74174683,0.00210380
5481.67055420,0.00203706
5483.59936157,0.00202809
5485.52816895,0.00200810
5487.45697632,0.00206881
5489.38578369,0.00206776
5491.31459106,0.00201768
5493.24339844,0.00199979
5495.17220581,0.00198640
5497.10101318,0.00201570
5499.02982056,0.00201670
5500.95862793,0.00202774
5502.88743530,0.00204120
5504.81624268,0.00206040
5506.74505005,0.00209495
5508.67385742,0.00195413
5510.60266479,0.00195069
5512.53147217,0.00203388
5514.46027954,0.00194113
5516.38908691,0.00193784
5518.31789429,0.00193491
5520.24670166,0.00194456
5522.17550903,0.00197843
5524.10431641,0.00195972
5526.03312378,0.00196003
5527.96193115,0.00194555
5529.89073853,0.00195466
5531.81954590,0.00194204
5533.74835327,0.00188344
5535.67716064,0.00185700
5537.60596802,0.00191670
5539.53477539,0.00190238
5541.46358276,0.00187910
5543.39239014,0.00193835
5545.32119751,0.00188612
5547.25000488,0.00186564
5549.17881226,0.00186502
5551.10761963,0.00187007
5553.03642700,0.00183849
5554.96523437,0.00179903
5556.89404175,0.00185581
5558.82284912,0.00179305
5560.75165649,0.00183205
5562.68046387,0.00186635
5564.60927124,0.00183194
5566.53807861,0.00187962
5568.46688599,0.00183104
5570.39569336,0.00182802
5572.32450073,0.00177615
5574.25330811,0.00181129
5576.18211548,0.00188227
5578.11092285,0.00177761
5580.03973022,0.00182104
5581.96853760,0.00185617
5583.89734497,0.00181379
5585.82615234,0.00175762
5587.75495972,0.00176030
5589.68376709,0.00185647
5591.61257446,0.00180229
5593.54138184,0.00179136
5595.47018921,0.00182735
5597.39899658,0.00179446
5599.32780395,0.00179482
5601.25661133,0.00173363
5603.18541870,0.00174258
5605.11422607,0.00180968
5607.04303345,0.00174120
5608.97184082,0.00177219
5610.90064819,0.00184842
5612.82945557,0.00174743
5614.75826294,0.00173891
5616.68707031,0.00177894
5618.61587769,0.00174956
5620.54468506,0.00177844
5622.47349243,0.00173001
5624.40229980,0.00170689
5626.33110718,0.00174436
5628.25991455,0.00171030
5630.18872192,0.00171930
5632.11752930,0.00169749
5634.04633667,0.00168643
5635.97514404,0.00170400
5637.90395142,0.00166962
5639.83275879,0.00174247
5641.76156616,0.00178736
5643.69037353,0.00171567
5645.61918091,0.00168770
5647.54798828,0.00170852
5649.47679565,0.00172859
5651.40560303,0.00169942
5653.33441040,0.00164011
5655.26321777,0.00163641
5657.19202515,0.00168368
5659.12083252,0.00165324
5661.04963989,0.00163211
5662.97844727,0.00164078
5664.90725464,0.00161051
5666.83606201,0.00168474
5668.76486938,0.00168920
5670.69367676,0.00161202
5672.62248413,0.00165074
5674.55129150,0.00164860
5676.48009888,0.00155399
5678.40890625,0.00158973
5680.33771362,0.00167101
5682.26652100,0.00156417
5684.19532837,0.00160975
5686.12413574,0.00168811
5688.05294311,0.00154132
5689.98175049,0.00152501
5691.91055786,0.00158105
5693.83936523,0.00162246
5695.76817261,0.00158066
5697.69697998,0.00152249
5699.62578735,0.00154729
5701.55459473,0.00151884
5703.48340210,0.00157784
5705.41220947,0.00156477
5707.34101685,0.00154095
5709.26982422,0.00158228
5711.19863159,0.00150855
5713.12743896,0.00154570
5715.05624634,0.00155595
5716.98505371,0.00153554
5718.91386108,0.00157414
5720.84266846,0.00155381
5722.77147583,0.00156266
5724.70028320,0.00150515
5726.62909058,0.00148835
5728.55789795,0.00151127
5730.48670532,0.00149649
5732.41551270,0.00150723
5734.34432007,0.00146059
5736.27312744,0.00149821
5738.20193481,0.00146765
5740.13074219,0.00141455
5742.05954956,0.00146058
5743.98835693,0.00139801
5745.91716431,0.00145038
5747.84597168,0.00148493
5749.77477905,0.00151018
5751.70358643,0.00152968
5753.63239380,0.00135963
5755.56120117,0.00143815
5757.49000854,0.00151976
5759.41881592,0.00143113
5761.34762329,0.00143141
5763.27643066,0.00141053
5765.20523804,0.00141508
5767.13404541,0.00144248
5769.06285278,0.00146672
5770.99166016,0.00143560
5772.92046753,0.00142508
5774.84927490,0.00139666
5776.77808228,0.00134365
5778.70688965,0.00143070
5780.63569702,0.00135775
5782.56450439,0.00128871
5784.49331177,0.00144113
5786.42211914,0.00146161
5788.35092651,0.00141585
5790.27973389,0.00144193
5792.20854126,0.00136635
5794.13734863,0.00130993
5796.06615601,0.00135196
5797.99496338,0.00133613
5799.92377075,0.00135570
5801.85257812,0.00132927
5803.78138550,0.00136266
5805.71019287,0.00144075
5807.63900024,0.00137116
5809.56780762,0.00138954
5811.49661499,0.00134955
5813.42542236,0.00133991
5815.35422974,0.00134596
5817.28303711,0.00131764
5819.21184448,0.00143718
5821.14065186,0.00137800
5823.06945923,0.00134778
5824.99826660,0.00132680
5826.92707397,0.00127751
5828.85588135,0.00134117
5830.78468872,0.00127742
5832.71349609,0.00133162
5834.64230347,0.00130552
5836.57111084,0.00125168
5838.49991821,0.00138443
5840.42872559,0.00135423
5842.35753296,0.00134806
5844.28634033,0.00135672
5846.21514770,0.00130196
5848.14395508,0.00130390
5850.07276245,0.00129593
5852.00156982,0.00125713
5853.93037720,0.00121005
5855.85918457,0.00127284
5857.78799194,0.00131697
5859.71679932,0.00125980
5861.64560669,0.00125674
5863.57441406,0.00126554
5865.50322144,0.00121691
5867.43202881,0.00121804
5869.36083618,0.00127845
5871.28964355,0.00122219
5873.21845093,0.00121395
5875.14725830,0.00125376
5877.07606567,0.00115770
5879.00487305,0.00121374
5880.93368042,0.00124676
5882.86248779,0.00116493
5884.79129517,0.00123196
5886.72010254,0.00116460
5888.64890991,0.00110844
5890.57771728,0.00120321
5892.50652466,0.00118738
5894.43533203,0.00120187
5896.36413940,0.00117986
5898.29294678,0.00107502
5900.22175415,0.00112767
5902.15056152,0.00118637
5904.07936890,0.00113539
5906.00817627,0.00118889
5907.93698364,0.00122482
5909.86579102,0.00115340
5911.79459839,0.00116342
5913.72340576,0.00114848
5915.65221313,0.00110788
5917.58102051,0.00112222
5919.50982788,0.00111999
5921.43863525,0.00111703
5923.36744263,0.00115140
5925.29625000,0.00117055
5927.22505737,0.00111799
5929.15386475,0.00113337
5931.08267212,0.00114494
5933.01147949,0.00110693
5934.94028686,0.00110595
5936.86909424,0.00109033
5938.79790161,0.00114094
5940.72670898,0.00112215
5942.65551636,0.00106615
5944.58432373,0.00109133
5946.51313110,0.00111540
5948.44193848,0.00114234
5950.37074585,0.00107615
5952.29955322,0.00109241
5954.22836060,0.00113063
5956.15716797,0.00108022
5958.08597534,0.00108538
5960.01478271,0.00104442
5961.94359009,0.00110824
5963.87239746,0.00116602
5965.80120483,0.00109539
5967.73001221,0.00107201
5969.65881958,0.00107387
5971.58762695,0.00108539
5973.51643433,0.00101378
5975.44524170,0.00106441
5977.37404907,0.00110210
5979.30285645,0.00099946
5981.23166382,0.00106057
5983.16047119,0.00100182
5985.08927856,0.00098020
5987.01808594,0.00104824
5988.94689331,0.00101885
5990.87570068,0.00108036
5992.80450806,0.00103960
5994.73331543,0.00103631
5996.66212280,0.00103494
5998.59093018,0.00101391
6000.51973755,0.00108417
