399.26312622,0.00003677
401.19193359,0.00028108
403.12074097,0.00063004
405.04954834,0.00073541
406.97835571,0.00117779
408.90716309,0.00109281
410.83597046,0.00095465
412.76477783,0.00059911
414.69358521,0.00097088
416.62239258,0.00135905
418.55119995,0.00072016
420.48000732,0.00097111
422.40881470,0.00128779
424.33762207,0.00101628
426.26642944,0.00091629
428.19523682,0.00126418
430.12404419,0.00132789
432.05285156,0.00079374
433.98165894,0.00084174
435.91046631,0.00111502
437.83927368,0.00093051
439.76808105,0.00067364
441.69688843,0.00093217
443.62569580,0.00085165
445.55450317,0.00058525
447.48331055,0.00095980
449.41211792,0.00090472
451.34092529,0.00086272
453.26973267,0.00079889
455.19854004,0.00061172
457.12734741,0.00073492
459.05615479,0.00055917
460.98496216,0.00074361
462.91376953,0.00082187
464.84257690,0.00061520
466.77138428,0.00081639
468.70019165,0.00052027
470.62899902,0.00029262
472.55780640,0.00063769
474.48661377,0.00048197
476.41542114,0.00009612
478.34422852,0.00027327
480.27303589,0.00048486
482.20184326,0.00024268
484.13065063,-0.00020562
486.05945801,-0.00014498
487.98826538,0.00029579
489.91707275,-0.00004423
491.84588013,0.00010391
493.77468750,0.00058210
495.70349487,0.00005249
497.63230225,0.00017273
499.56110962,0.00023747
501.48991699,0.00013894
503.41872437,0.00010324
505.34753174,0.00015933
507.27633911,0.00032545
509.20514648,0.00007684
511.13395386,0.00030045
513.06276123,0.00012104
514.99156860,0.00001490
516.92037598,0.00017184
518.84918335,0.00014553
520.77799072,0.00043838
522.70679810,0.00048605
524.63560547,0.00053544
526.56441284,0.00033399
528.49322021,-0.00009433
530.42202759,0.00017171
532.35083496,0.00016964
534.27964233,0.00000286
536.20844971,0.00020942
538.13725708,0.00033414
540.06606445,0.00025606
541.99487183,-0.00002953
543.92367920,-0.00000591
545.85248657,0.00024477
547.78129395,0.00031642
549.71010132,-0.00006611
551.63890869,-0.00003009
553.56771606,0.00058043
555.49652344,0.00046516
557.42533081,0.00045233
559.35413818,0.00027513
561.28294556,0.00009870
563.21175293,0.00043312
565.14056030,-0.00009572
567.06936768,-0.00059092
568.99817505,-0.00023571
570.92698242,0.00005129
572.85578979,-0.00019823
574.78459717,-0.00014157
576.71340454,0.00034674
578.64221191,0.00019817
580.57101929,0.00014222
582.49982666,0.00030167
584.42863403,0.00001190
586.35744141,-0.00001096
588.28624878,0.00040462
590.21505615,0.00019276
592.14386353,0.00003912
594.07267090,0.00048885
596.00147827,0.00036741
597.93028564,0.00002440
599.85909302,-0.00023769
601.78790039,0.00010188
603.71670776,0.00030270
605.64551514,-0.00022394
607.57432251,0.00014579
609.50312988,-0.00006834
611.43193726,-0.00003198
613.36074463,0.00036210
615.28955200,-0.00005506
617.21835938,-0.00004270
619.14716675,0.00006315
621.07597412,-0.00002559
623.00478149,0.00016403
624.93358887,0.00024052
626.86239624,-0.00013900
628.79120361,0.00039858
630.72001099,0.00078757
632.64881836,0.00019020
634.57762573,0.00047583
636.50643311,0.00070496
638.43524048,0.00055364
640.36404785,0.00098007
642.29285522,0.00121150
644.22166260,0.00118104
646.15046997,0.00122721
648.07927734,0.00129803
650.00808472,0.00131785
651.93689209,0.00140139
653.86569946,0.00153585
655.79450684,0.00119430
657.72331421,0.00121844
659.65212158,0.00179031
661.58092896,0.00172655
663.50973633,0.00158152
665.43854370,0.00165555
667.36735107,0.00160847
669.29615845,0.00167140
671.22496582,0.00202930
673.15377319,0.00215695
675.08258057,0.00195419
677.01138794,0.00210556
678.94019531,0.00198658
680.86900269,0.00192302
682.79781006,0.00221540
684.72661743,0.00210882
686.65542480,0.00201350
688.58423218,0.00212874
690.51303955,0.00230148
692.44184692,0.00221550
694.37065430,0.00233807
696.29946167,0.00287606
698.22826904,0.00328522
700.15707642,0.00341166
702.08588379,0.00314652
704.01469116,0.00308684
705.94349854,0.00277659
707.87230591,0.00217565
709.80111328,0.00184683
711.72992065,0.00125546
713.65872803,0.00081824
715.58753540,0.00072993
717.51634277,0.00061898
719.44515015,0.00033644
721.37395752,-0.00000325
723.30276489,-0.00001099
725.23157227,0.00038622
727.16037964,0.00038269
729.08918701,-0.00004078
731.01799438,-0.00000595
732.94680176,0.00005766
734.87560913,0.00026978
736.80441650,0.00008019
738.73322388,-0.00019294
740.66203125,0.00004046
742.59083862,-0.00013985
744.51964600,-0.00005715
746.44845337,-0.00011405
748.37726074,0.00019921
750.30606812,0.00042091
752.23487549,-0.00006984
754.16368286,0.00021573
756.09249023,0.00034266
758.02129761,0.00027289
759.95010498,0.00031240
761.87891235,0.00025781
763.80771973,0.00037999
765.73652710,0.00039974
767.66533447,0.00038430
769.59414185,0.00022560
771.52294922,0.00036768
773.45175659,0.00042403
775.38056396,0.00009429
777.30937134,0.00037580
779.23817871,0.00047089
781.16698608,0.00027829
783.09579346,0.00028882
785.02460083,0.00029058
786.95340820,0.00043171
788.88221558,0.00030012
790.81102295,0.00002673
792.73983032,0.00019936
794.66863770,0.00035952
796.59744507,0.00032268
798.52625244,0.00072215
800.45505981,0.00074122
802.38386719,0.00018858
804.31267456,0.00024862
806.24148193,0.00028569
808.17028931,0.00029862
810.09909668,0.00053623
812.02790405,0.00028440
813.95671143,0.00037643
815.88551880,0.00037153
817.81432617,0.00006971
819.74313354,0.00034162
821.67194092,0.00031740
823.60074829,0.00040980
825.52955566,0.00057472
827.45836304,0.00038830
829.38717041,0.00034622
831.31597778,0.00045845
833.24478516,0.00090109
835.17359253,0.00070020
837.10239990,0.00053336
839.03120728,0.00089518
840.96001465,0.00073574
842.88882202,0.00068240
844.81762939,0.00060122
846.74643677,0.00039756
848.67524414,0.00035846
850.60405151,0.00055175
852.53285889,0.00067995
854.46166626,0.00060081
856.39047363,0.00050307
858.31928101,0.00030106
860.24808838,0.00062347
862.17689575,0.00054598
864.10570313,0.00024802
866.03451050,0.00041914
867.96331787,0.00024333
869.89212524,0.00039417
871.82093262,0.00028206
873.74973999,-0.00003469
875.67854736,0.00025141
877.60735474,0.00033183
879.53616211,0.00007032
881.46496948,0.00006153
883.39377686,0.00024680
885.32258423,0.00009431
887.25139160,0.00004939
889.18019897,0.00026777
891.10900635,0.00064460
893.03781372,0.00057028
894.96662109,0.00021948
896.89542847,0.00054589
898.82423584,0.00059759
900.75304321,0.00037701
902.68185059,0.00028683
904.61065796,0.00033376
906.53946533,0.00046189
908.46827271,0.00044204
910.39708008,0.00043884
912.32588745,0.00031934
914.25469482,0.00038552
916.18350220,0.00054484
918.11230957,0.00072395
920.04111694,0.00058199
921.96992432,0.00051490
923.89873169,0.00084989
925.82753906,0.00077948
927.75634644,0.00084945
929.68515381,0.00084321
931.61396118,0.00084158
933.54276855,0.00094672
935.47157593,0.00093962
937.40038330,0.00105111
939.32919067,0.00102683
941.25799805,0.00126021
943.18680542,0.00120132
945.11561279,0.00124854
947.04442017,0.00127383
948.97322754,0.00096592
950.90203491,0.00131507
952.83084229,0.00117467
954.75964966,0.00091422
956.68845703,0.00113913
958.61726440,0.00120474
960.54607178,0.00110940
962.47487915,0.00097020
964.40368652,0.00113159
966.33249390,0.00125870
968.26130127,0.00142151
970.19010864,0.00141125
972.11891602,0.00134077
974.04772339,0.00165335
975.97653076,0.00173110
977.90533813,0.00173380
979.83414551,0.00190378
981.76295288,0.00194105
983.69176025,0.00208288
985.62056763,0.00244397
987.54937500,0.00259415
989.47818237,0.00285727
991.40698975,0.00311260
993.33579712,0.00340644
995.26460449,0.00387860
997.19341187,0.00396460
999.12221924,0.00453650
1001.05102661,0.00473298
1002.97983398,0.00461945
1004.90864136,0.00535698
1006.83744873,0.00557514
1008.76625610,0.00587137
1010.69506348,0.00641532
1012.62387085,0.00665183
1014.55267822,0.00709784
1016.48148560,0.00750300
1018.41029297,0.00785051
1020.33910034,0.00827590
1022.26790771,0.00871914
1024.19671509,0.00882585
1026.12552246,0.00896454
1028.05432983,0.00923824
1029.98313721,0.00951495
1031.91194458,0.00989990
1033.84075195,0.00998542
1035.76955933,0.01022072
1037.69836670,0.01035211
1039.62717407,0.01034035
1041.55598145,0.01060061
1043.48478882,0.01049765
1045.41359619,0.01025728
1047.34240356,0.01015329
1049.27121094,0.00995273
1051.20001831,0.00967269
1053.12882568,0.00952178
1055.05763306,0.00944946
1056.98644043,0.00917999
1058.91524780,0.00899650
1060.84405518,0.00888067
1062.77286255,0.00844198
1064.70166992,0.00814529
1066.63047729,0.00800619
1068.55928467,0.00753107
1070.48809204,0.00729267
1072.41689941,0.00703499
1074.34570679,0.00646498
1076.27451416,0.00621763
1078.20332153,0.00608113
1080.13212891,0.00587628
1082.06093628,0.00553402
1083.98974365,0.00516146
1085.91855103,0.00489785
1087.84735840,0.00467630
1089.77616577,0.00442888
1091.70497314,0.00422698
1093.63378052,0.00437255
1095.56258789,0.00426809
1097.49139526,0.00402635
1099.42020264,0.00394667
1101.34901001,0.00366584
1103.27781738,0.00358618
1105.20662476,0.00361235
1107.13543213,0.00353759
1109.06423950,0.00337619
1110.99304687,0.00333426
1112.92185425,0.00340514
1114.85066162,0.00340255
1116.77946899,0.00360245
1118.70827637,0.00348419
1120.63708374,0.00340489
1122.56589111,0.00357381
1124.49469849,0.00344205
1126.42350586,0.00365734
1128.35231323,0.00378482
1130.28112061,0.00364823
1132.20992798,0.00391885
1134.13873535,0.00411763
1136.06754272,0.00404310
1137.99635010,0.00417486
1139.92515747,0.00444103
1141.85396484,0.00461548
1143.78277222,0.00513799
1145.71157959,0.00552855
1147.64038696,0.00566871
1149.56919434,0.00602706
1151.49800171,0.00623622
1153.42680908,0.00654892
1155.35561646,0.00688335
1157.28442383,0.00719343
1159.21323120,0.00733558
1161.14203857,0.00750410
1163.07084595,0.00804234
1164.99965332,0.00806009
1166.92846069,0.00837266
1168.85726807,0.00888401
1170.78607544,0.00893980
1172.71488281,0.00931487
1174.64369019,0.00958429
1176.57249756,0.01010347
1178.50130493,0.01063589
1180.43011230,0.01086742
1182.35891968,0.01151536
1184.28772705,0.01199057
1186.21653442,0.01233100
1188.14534180,0.01288149
1190.07414917,0.01354303
1192.00295654,0.01425886
1193.93176392,0.01489482
1195.86057129,0.01557588
1197.78937866,0.01623712
1199.71818604,0.01693921
1201.64699341,0.01770569
1203.57580078,0.01835163
1205.50460815,0.01900863
1207.43341553,0.01977644
1209.36222290,0.02046913
1211.29103027,0.02111187
1213.21983765,0.02171944
1215.14864502,0.02213857
1217.07745239,0.02253943
1219.00625977,0.02298502
1220.93506714,0.02341416
1222.86387451,0.02375237
1224.79268188,0.02381855
1226.72148926,0.02388096
1228.65029663,0.02405211
1230.57910400,0.02404502
1232.50791138,0.02408354
1234.43671875,0.02422348
1236.36552612,0.02427133
1238.29433350,0.02418543
1240.22314087,0.02395305
1242.15194824,0.02396061
1244.08075562,0.02384965
1246.00956299,0.02347211
1247.93837036,0.02346860
1249.86717773,0.02336531
1251.79598511,0.02310738
1253.72479248,0.02305057
1255.65359985,0.02260166
1257.58240723,0.02202692
1259.51121460,0.02191102
1261.44002197,0.02170095
1263.36882935,0.02140102
1265.29763672,0.02110651
1267.22644409,0.02069083
1269.15525146,0.02054465
1271.08405884,0.02021615
1273.01286621,0.01983810
1274.94167358,0.01960677
1276.87048096,0.01910539
1278.79928833,0.01872491
1280.72809570,0.01849796
1282.65690308,0.01829139
1284.58571045,0.01788082
1286.51451782,0.01754309
1288.44332520,0.01728228
1290.37213257,0.01681304
1292.30093994,0.01683265
1294.22974731,0.01673769
1296.15855469,0.01645502
1298.08736206,0.01663849
1300.01616943,0.01671790
1301.94497681,0.01670484
1303.87378418,0.01675633
1305.80259155,0.01676475
1307.73139893,0.01696354
1309.66020630,0.01739527
1311.58901367,0.01768224
1313.51782104,0.01798485
1315.44662842,0.01848063
1317.37543579,0.01890230
1319.30424316,0.01938801
1321.23305054,0.01998761
1323.16185791,0.02055231
1325.09066528,0.02093944
1327.01947266,0.02159537
1328.94828003,0.02236603
1330.87708740,0.02268192
1332.80589478,0.02321439
1334.73470215,0.02375667
1336.66350952,0.02373746
1338.59231689,0.02343269
1340.52112427,0.02380702
1342.44993164,0.02483780
1344.37873901,0.02508286
1346.30754639,0.02504417
1348.23635376,0.02479965
1350.16516113,0.02460903
1352.09396851,0.02485944
1354.02277588,0.02438168
1355.95158325,0.02422767
1357.88039062,0.02405061
1359.80919800,0.02342596
1361.73800537,0.02252073
1363.66681274,0.02209839
1365.59562012,0.02347852
1367.52442749,0.02298014
1369.45323486,0.02254219
1371.38204224,0.02308482
1373.31084961,0.02166136
1375.23965698,0.02200960
1377.16846436,0.02261773
1379.09727173,0.02252915
1381.02607910,0.02255950
1382.95488647,0.02222694
1384.88369385,0.02258122
1386.81250122,0.02122534
1388.74130859,0.02134773
1390.67011597,0.02377762
1392.59892334,0.02282834
1394.52773071,0.02105259
1396.45653809,0.02227130
1398.38534546,0.02212764
1400.31415283,0.02220989
1402.24296021,0.02421362
1404.17176758,0.02263771
1406.10057495,0.02293148
1408.02938232,0.02395463
1409.95818970,0.02289445
1411.88699707,0.02344660
1413.81580444,0.02272066
1415.74461182,0.02306234
1417.67341919,0.02025992
1419.60222656,0.01817744
1421.53103394,0.02143263
1423.45984131,0.02039867
1425.38864868,0.01988244
1427.31745605,0.02040197
1429.24626343,0.01872204
1431.17507080,0.01812900
1433.10387817,0.01855809
1435.03268555,0.01674105
1436.96149292,0.01395208
1438.89030029,0.01634636
1440.81910767,0.01665758
1442.74791504,0.01543780
1444.67672241,0.01649504
1446.60552979,0.01489636
1448.53433716,0.01495100
1450.46314453,0.01555059
1452.39195190,0.01613291
1454.32075928,0.01656766
1456.24956665,0.01303599
1458.17837402,0.01372481
1460.10718140,0.01908978
1462.03598877,0.02026501
1463.96479614,0.01969768
1465.89360352,0.02056552
1467.82241089,0.02384404
1469.75121826,0.02545482
1471.68002563,0.02200138
1473.60883301,0.02323732
1475.53764038,0.02664575
1477.46644775,0.02899878
1479.39525513,0.03205792
1481.32406250,0.03214120
1483.25286987,0.03452511
1485.18167725,0.03533170
1487.11048462,0.03416913
1489.03929199,0.03362638
1490.96809937,0.03403693
1492.89690674,0.04067799
1494.82571411,0.03897286
1496.75452148,0.03447353
1498.68332886,0.03965777
1500.61213623,0.04093522
1502.54094360,0.04435180
1504.46975098,0.04102812
1506.39855835,0.02810033
1508.32736572,0.03583888
1510.25617310,0.04309466
1512.18498047,0.04144040
1514.11378784,0.04523460
1516.04259521,0.04003748
1517.97140259,0.04204851
1519.90020996,0.04031089
1521.82901733,0.03400414
1523.75782471,0.04332558
1525.68663208,0.04210563
1527.61543945,0.04203032
1529.54424683,0.04789058
1531.47305420,0.04527322
1533.40186157,0.04056627
1535.33066895,0.04394840
1537.25947632,0.04729878
1539.18828369,0.03185579
1541.11709106,0.03382712
1543.04589844,0.04149361
1544.97470581,0.03964137
1546.90351318,0.04850304
1548.83232056,0.04460437
1550.76112793,0.04610176
1552.68993530,0.04575247
1554.61874268,0.04090995
1556.54755005,0.04398854
1558.47635742,0.02877127
1560.40516479,0.03232960
1562.33397217,0.04877134
1564.26277954,0.04519385
1566.19158691,0.04716870
1568.12039429,0.04649950
1570.04920166,0.04016472
1571.97800903,0.04804767
1573.90681641,0.04828723
1575.83562378,0.03676968
1577.76443115,0.04291683
1579.69323853,0.04908133
1581.62204590,0.04679670
1583.55085327,0.04827481
1585.47966064,0.04725782
1587.40846802,0.04753468
1589.33727539,0.04710450
1591.26608276,0.04703676
1593.19489014,0.04702882
1595.12369751,0.04654705
1597.05250488,0.04734968
1598.98131226,0.04695619
1600.91011963,0.04719507
1602.83892700,0.04620382
1604.76773437,0.04712507
1606.69654175,0.04635130
1608.62534912,0.04616576
1610.55415649,0.04629520
1612.48296387,0.04673836
1614.41177124,0.04708790
1616.34057861,0.03732503
1618.26938599,0.04120293
1620.19819336,0.04897398
1622.12700073,0.04252096
1624.05580811,0.04285139
1625.98461548,0.04551263
1627.91342285,0.04488240
1629.84223022,0.04475451
1631.77103760,0.04831378
1633.69984497,0.04363955
1635.62865234,0.03487066
1637.55745972,0.04194125
1639.48626709,0.04689654
1641.41507446,0.04558526
1643.34388184,0.04711166
1645.27268921,0.04140100
1647.20149658,0.03554868
1649.13030396,0.04607752
1651.05911133,0.04287997
1652.98791870,0.02542632
1654.91672607,0.03707239
1656.84553345,0.04807373
1658.77434082,0.04591943
1660.70314819,0.04725779
1662.63195557,0.04208775
1664.56076294,0.04489562
1666.48957031,0.04885119
1668.41837769,0.04115418
1670.34718506,0.03999269
1672.27599243,0.04673117
1674.20479980,0.04214961
1676.13360718,0.04036493
1678.06241455,0.04766995
1679.99122192,0.04552939
1681.92002930,0.04475312
1683.84883667,0.03485504
1685.77764404,0.03517973
1687.70645142,0.05035655
1689.63525879,0.04236415
1691.56406616,0.04794775
1693.49287354,0.04837672
1695.42168091,0.03354452
1697.35048828,0.04313841
1699.27929565,0.03631584
1701.20810303,0.03270647
1703.13691040,0.04693538
1705.06571777,0.04226880
1706.99452515,0.04316970
1708.92333252,0.04731975
1710.85213989,0.04538452
1712.78094727,0.04606795
1714.70975464,0.04201509
1716.63856201,0.03705948
1718.56736938,0.03647910
1720.49617676,0.04473455
1722.42498413,0.04658642
1724.35379150,0.04301994
1726.28259888,0.04734927
1728.21140625,0.04298082
1730.14021362,0.04345679
1732.06902100,0.04200148
1733.99782837,0.03050201
1735.92663574,0.03999706
1737.85544312,0.04461362
1739.78425049,0.03875671
1741.71305786,0.04300902
1743.64186523,0.04346064
1745.57067261,0.04348870
1747.49947998,0.04383607
1749.42828735,0.04126770
1751.35709473,0.03935468
1753.28590210,0.04481903
1755.21470947,0.04679602
1757.14351685,0.04180118
1759.07232422,0.04706448
1761.00113159,0.04344020
1762.92993896,0.04191964
1764.85874634,0.04914712
1766.78755371,0.04315791
1768.71636108,0.04382931
1770.64516846,0.04315879
1772.57397583,0.03823314
1774.50278320,0.04371291
1776.43159058,0.04628235
1778.36039795,0.04557136
1780.28920532,0.04479779
1782.21801270,0.04536934
1784.14682007,0.04529516
1786.07562744,0.04428720
1788.00443481,0.04691784
1789.93324219,0.04516633
1791.86204956,0.04012848
1793.79085693,0.04253058
1795.71966431,0.04635319
1797.64847168,0.04541571
1799.57727905,0.04451409
1801.50608643,0.04358501
1803.43489380,0.04540519
1805.36370117,0.04659053
1807.29250854,0.04570596
1809.22131592,0.04589477
1811.15012329,0.04420025
1813.07893066,0.04588747
1815.00773804,0.04629413
1816.93654541,0.04566403
1818.86535278,0.04615675
1820.79416016,0.04596313
1822.72296753,0.04656701
1824.65177490,0.04298078
1826.58058228,0.04509941
1828.50938965,0.04480400
1830.43819702,0.04152576
1832.36700439,0.04618765
1834.29581177,0.04578431
1836.22461914,0.04579370
1838.15342651,0.04549037
1840.08223389,0.04568696
1842.01104126,0.04550243
1843.93984863,0.03973209
1845.86865601,0.04295906
1847.79746338,0.04557410
1849.72627075,0.04475663
1851.65507812,0.04615388
1853.58388550,0.04509301
1855.51269287,0.04565630
1857.44150024,0.04529636
1859.37030762,0.04501228
1861.29911499,0.04514683
1863.22792236,0.04471099
1865.15672974,0.04523315
1867.08553711,0.04334357
1869.01434448,0.04128964
1870.94315186,0.04332572
1872.87195923,0.04532714
1874.80076660,0.04432421
1876.72957397,0.04478467
1878.65838135,0.04465270
1880.58718872,0.04423831
1882.51599609,0.04468608
1884.44480347,0.04380549
1886.37361084,0.04469270
1888.30241821,0.04338390
1890.23122559,0.04227428
1892.16003296,0.04427253
1894.08884033,0.04343589
1896.01764771,0.04327931
1897.94645508,0.04390501
1899.87526245,0.04353585
1901.80406982,0.04373638
1903.73287720,0.04340572
1905.66168457,0.04368926
1907.59049194,0.04316677
1909.51929932,0.04272745
1911.44810669,0.04315575
1913.37691406,0.04314489
1915.30572144,0.04350450
1917.23452881,0.04128674
1919.16333618,0.04141762
1921.09214355,0.04326370
1923.02095093,0.04158143
1924.94975830,0.04275445
1926.87856567,0.04321416
1928.80737305,0.04257166
1930.73618042,0.04314297
1932.66498779,0.04234356
1934.59379517,0.04291156
1936.52260254,0.04254015
1938.45140991,0.04277686
1940.38021729,0.04262044
1942.30902466,0.04093914
1944.23783203,0.04189862
1946.16663940,0.04244476
1948.09544678,0.04254902
1950.02425415,0.04260271
1951.95306152,0.04229609
1953.88186890,0.04227222
1955.81067627,0.04220006
1957.73948364,0.04233139
1959.66829102,0.04207266
1961.59709839,0.04215507
1963.52590576,0.04218522
1965.45471313,0.04195143
1967.38352051,0.04147524
1969.31232788,0.04188225
1971.24113525,0.04222825
1973.16994263,0.04170130
1975.09875000,0.04217878
1977.02755737,0.04174684
1978.95636475,0.04171112
1980.88517212,0.04188044
1982.81397949,0.04149100
1984.74278687,0.04184380
1986.67159424,0.04135567
1988.60040161,0.04136552
1990.52920898,0.04091183
1992.45801636,0.04040091
1994.38682373,0.04130151
1996.31563110,0.04119161
1998.24443848,0.04098023
2000.17324585,0.04116793
2002.10205322,0.04089528
2004.03086060,0.04082908
2005.95966797,0.04070364
2007.88847534,0.04048432
2009.81728271,0.04066072
2011.74609009,0.04046497
2013.67489746,0.04041608
2015.60370483,0.04016691
2017.53251221,0.03960201
2019.46131958,0.04016267
2021.39012695,0.04006108
2023.31893433,0.03985780
2025.24774170,0.04001978
2027.17654907,0.03956128
2029.10535645,0.03969482
2031.03416382,0.03966889
2032.96297119,0.03939003
2034.89177856,0.03926143
2036.82058594,0.03923746
2038.74939331,0.03917409
2040.67820068,0.03882604
2042.60700806,0.03876277
2044.53581543,0.03877148
2046.46462280,0.03878429
2048.39343018,0.03864741
2050.32223755,0.03851985
2052.25104492,0.03859945
2054.17985229,0.03839714
2056.10865967,0.03825122
2058.03746704,0.03832421
2059.96627441,0.03813851
2061.89508179,0.03809770
2063.82388916,0.03807694
2065.75269653,0.03771494
2067.68150391,0.03793027
2069.61031128,0.03793095
2071.53911865,0.03759668
2073.46792603,0.03766762
2075.39673340,0.03745650
2077.32554077,0.03743969
2079.25434814,0.03753759
2081.18315552,0.03736362
2083.11196289,0.03719300
2085.04077026,0.03710090
2086.96957764,0.03709356
2088.89838501,0.03704263
2090.82719238,0.03697210
2092.75599976,0.03692864
2094.68480713,0.03690697
2096.61361450,0.03670777
2098.54242187,0.03663006
2100.47122925,0.03661597
2102.40003662,0.03656360
2104.32884399,0.03654476
2106.25765137,0.03640811
2108.18645874,0.03635215
2110.11526611,0.03625792
2112.04407349,0.03620933
2113.97288086,0.03602567
2115.90168823,0.03601903
2117.83049561,0.03611816
2119.75930298,0.03601629
2121.68811035,0.03608825
2123.61691772,0.03586872
2125.54572510,0.03583910
2127.47453247,0.03583739
2129.40333984,0.03568085
2131.33214722,0.03572817
2133.26095459,0.03558696
2135.18976196,0.03553866
2137.11856934,0.03548424
2139.04737671,0.03554674
2140.97618408,0.03543551
2142.90499146,0.03520052
2144.83379883,0.03533053
2146.76260620,0.03531740
2148.69141357,0.03520565
2150.62022095,0.03519808
2152.54902832,0.03523297
2154.47783569,0.03505061
2156.40664307,0.03499994
2158.33545044,0.03505296
2160.26425781,0.03486011
2162.19306519,0.03477204
2164.12187256,0.03481023
2166.05067993,0.03483244
2167.97948730,0.03463193
2169.90829468,0.03459019
2171.83710205,0.03457287
2173.76590942,0.03443626
2175.69471680,0.03450954
2177.62352417,0.03453492
2179.55233154,0.03444605
2181.48113892,0.03435383
2183.40994629,0.03443995
2185.33875366,0.03427521
2187.26756104,0.03415005
2189.19636841,0.03423986
2191.12517578,0.03408760
2193.05398315,0.03402948
2194.98279053,0.03398688
2196.91159790,0.03398757
2198.84040527,0.03388000
2200.76921265,0.03385400
2202.69802002,0.03390117
2204.62682739,0.03375272
2206.55563477,0.03378461
2208.48444214,0.03372666
2210.41324951,0.03369014
2212.34205688,0.03370716
2214.27086426,0.03365944
2216.19967163,0.03358202
2218.12847900,0.03351717
2220.05728638,0.03357136
2221.98609375,0.03344845
2223.91490112,0.03332812
2225.84370850,0.03330470
2227.77251587,0.03320877
2229.70132324,0.03319855
2231.63013062,0.03322535
2233.55893799,0.03297223
2235.48774536,0.03294101
2237.41655273,0.03300801
2239.34536011,0.03288367
2241.27416748,0.03290247
2243.20297485,0.03263065
2245.13178223,0.03265725
2247.06058960,0.03267047
2248.98939697,0.03255019
2250.91820435,0.03262476
2252.84701172,0.03238668
2254.77581909,0.03252409
2256.70462646,0.03244955
2258.63343384,0.03238961
2260.56224121,0.03241377
2262.49104858,0.03217255
2264.41985596,0.03220742
2266.34866333,0.03201202
2268.27747070,0.03217842
2270.20627808,0.03220814
2272.13508545,0.03201805
2274.06389282,0.03197022
2275.99270020,0.03183360
2277.92150757,0.03201808
2279.85031494,0.03186312
2281.77912231,0.03187068
2283.70792969,0.03178672
2285.63673706,0.03157076
2287.56554443,0.03168739
2289.49435181,0.03144669
2291.42315918,0.03151856
2293.35196655,0.03155915
2295.28077393,0.03131542
2297.20958130,0.03119936
2299.13838867,0.03101257
2301.06719604,0.03093464
2302.99600342,0.03090050
2304.92481079,0.03074800
2306.85361816,0.03045804
2308.78242554,0.03026747
2310.71123291,0.03009395
2312.64004028,0.02977353
2314.56884766,0.02937670
2316.49765503,0.02910617
2318.42646240,0.02894295
2320.35526978,0.02846632
2322.28407715,0.02802257
2324.21288452,0.02776895
2326.14169189,0.02739220
2328.07049927,0.02715968
2329.99930664,0.02691986
2331.92811401,0.02654530
2333.85692139,0.02644639
2335.78572876,0.02633619
2337.71453613,0.02630481
2339.64334351,0.02629096
2341.57215088,0.02631607
2343.50095825,0.02681723
2345.42976562,0.02720909
2347.35857300,0.02823733
2349.28738037,0.02905305
2351.21618774,0.02805064
2353.14499512,0.02676432
2355.07380249,0.02581054
2357.00260986,0.02507490
2358.93141724,0.02462452
2360.86022461,0.02445865
2362.78903198,0.02437001
2364.71783936,0.02440567
2366.64664673,0.02491381
2368.57545410,0.02532870
2370.50426147,0.02583184
2372.43306885,0.02643454
2374.36187622,0.02718834
2376.29068359,0.02797970
2378.21949097,0.02839329
2380.14829834,0.02883018
2382.07710571,0.02905713
2384.00591309,0.02919628
2385.93472046,0.02939198
2387.86352783,0.02939483
2389.79233521,0.02920281
2391.72114258,0.02917612
2393.64994995,0.02927728
2395.57875732,0.02916320
2397.50756470,0.02917477
2399.43637207,0.02906477
2401.36517944,0.02904831
2403.29398682,0.02904265
2405.22279419,0.02888146
2407.15160156,0.02896716
2409.08040894,0.02881327
2411.00921631,0.02878796
2412.93802368,0.02889861
2414.86683105,0.02872460
2416.79563843,0.02867753
2418.72444580,0.02869416
2420.65325317,0.02860626
2422.58206055,0.02861692
2424.51086792,0.02864062
2426.43967529,0.02859427
2428.36848267,0.02855938
2430.29729004,0.02840651
2432.22609741,0.02845077
2434.15490479,0.02836365
2436.08371216,0.02822408
2438.01251953,0.02834554
2439.94132690,0.02819475
2441.87013428,0.02822658
2443.79894165,0.02814161
2445.72774902,0.02801323
2447.65655640,0.02816288
2449.58536377,0.02796480
2451.51417114,0.02788582
2453.44297852,0.02796753
2455.37178589,0.02786941
2457.30059326,0.02775928
2459.22940063,0.02784205
2461.15820801,0.02781706
2463.08701538,0.02766789
2465.01582275,0.02773287
2466.94463013,0.02761363
2468.87343750,0.02750996
2470.80224487,0.02759563
2472.73105225,0.02753658
2474.65985962,0.02739261
2476.58866699,0.02740379
2478.51747437,0.02740654
2480.44628174,0.02730966
2482.37508911,0.02734629
2484.30389648,0.02722893
2486.23270386,0.02713609
2488.16151123,0.02726062
2490.09031860,0.02725824
2492.01912598,0.02714624
2493.94793335,0.02702696
2495.87674072,0.02694769
2497.80554810,0.02699162
2499.73435547,0.02695436
2501.66316284,0.02681564
2503.59197021,0.02690724
2505.52077759,0.02681787
2507.44958496,0.02662940
2509.37839233,0.02663048
2511.30719971,0.02668163
2513.23600708,0.02683395
2515.16481445,0.02666501
2517.09362183,0.02651487
2519.02242920,0.02651275
2520.95123657,0.02641885
2522.88004395,0.02640920
2524.80885132,0.02633480
2526.73765869,0.02637159
2528.66646606,0.02641034
2530.59527344,0.02635439
2532.52408081,0.02626862
2534.45288818,0.02617007
2536.38169556,0.02614652
2538.31050293,0.02608053
2540.23931030,0.02602412
2542.16811768,0.02604032
2544.09692505,0.02600713
2546.02573242,0.02592352
2547.95453979,0.02595153
2549.88334717,0.02580024
2551.81215454,0.02574028
2553.74096191,0.02583405
2555.66976929,0.02573308
2557.59857666,0.02580586
2559.52738403,0.02574088
2561.45619141,0.02565756
2563.38499878,0.02564612
2565.31380615,0.02556587
2567.24261353,0.02554886
2569.17142090,0.02540522
2571.10022827,0.02540508
2573.02903564,0.02541705
2574.95784302,0.02542578
2576.88665039,0.02534429
2578.81545776,0.02531317
2580.74426514,0.02534922
2582.67307251,0.02510832
2584.60187988,0.02517885
2586.53068726,0.02517265
2588.45949463,0.02511795
2590.38830200,0.02517334
2592.31710937,0.02498851
2594.24591675,0.02497390
2596.17472412,0.02496059
2598.10353149,0.02494739
2600.03233887,0.02485425
2601.96114624,0.02487737
2603.88995361,0.02497322
2605.81876099,0.02467480
2607.74756836,0.02465701
2609.67637573,0.02484178
2611.60518311,0.02471896
2613.53399048,0.02459898
2615.46279785,0.02464901
2617.39160522,0.02459081
2619.32041260,0.02450364
2621.24921997,0.02447296
2623.17802734,0.02432355
2625.10683472,0.02432937
2627.03564209,0.02439225
2628.96444946,0.02436695
2630.89325684,0.02429210
2632.82206421,0.02418208
2634.75087158,0.02418194
2636.67967895,0.02416121
2638.60848633,0.02415349
2640.53729370,0.02417641
2642.46610107,0.02407251
2644.39490845,0.02392903
2646.32371582,0.02395766
2648.25252319,0.02402025
2650.18133057,0.02387677
2652.11013794,0.02377682
2654.03894531,0.02382399
2655.96775269,0.02378974
2657.89656006,0.02372409
2659.82536743,0.02367640
2661.75417480,0.02355254
2663.68298218,0.02353603
2665.61178955,0.02366425
2667.54059692,0.02361173
2669.46940430,0.02349398
2671.39821167,0.02359351
2673.32701904,0.02349179
2675.25582642,0.02330141
2677.18463379,0.02337496
2679.11344116,0.02337094
2681.04224854,0.02341396
2682.97105591,0.02329413
2684.89986328,0.02315936
2686.82867065,0.02330938
2688.75747803,0.02320793
2690.68628540,0.02309495
2692.61509277,0.02308900
2694.54390015,0.02310740
2696.47270752,0.02298995
2698.40151489,0.02289540
2700.33032227,0.02298142
2702.25912964,0.02281947
2704.18793701,0.02284472
2706.11674438,0.02277571
2708.04555176,0.02266137
2709.97435913,0.02280985
2711.90316650,0.02270926
2713.83197388,0.02266301
2715.76078125,0.02254207
2717.68958862,0.02251256
2719.61839600,0.02264196
2721.54720337,0.02244300
2723.47601074,0.02233383
2725.40481812,0.02248108
2727.33362549,0.02242293
2729.26243286,0.02222561
2731.19124023,0.02229559
2733.12004761,0.02227049
2735.04885498,0.02216884
2736.97766235,0.02212628
2738.90646973,0.02206746
2740.83527710,0.02211854
2742.76408447,0.02202898
2744.69289185,0.02203392
2746.62169922,0.02204680
2748.55050659,0.02194948
2750.47931396,0.02190806
2752.40812134,0.02188929
2754.33692871,0.02189114
2756.26573608,0.02172302
2758.19454346,0.02168895
2760.12335083,0.02168737
2762.05215820,0.02160068
2763.98096558,0.02160617
2765.90977295,0.02157002
2767.83858032,0.02151239
2769.76738770,0.02145264
2771.69619507,0.02148765
2773.62500244,0.02140652
2775.55380981,0.02135408
2777.48261719,0.02134116
2779.41142456,0.02131090
2781.34023193,0.02137999
2783.26903931,0.02117481
2785.19784668,0.02114749
2787.12665405,0.02113646
2789.05546143,0.02098982
2790.98426880,0.02108579
2792.91307617,0.02104914
2794.84188354,0.02100282
2796.77069092,0.02086575
2798.69949829,0.02082673
2800.62830566,0.02092009
2802.55711304,0.02080487
2804.48592041,0.02074309
2806.41472778,0.02064243
2808.34353516,0.02068393
2810.27234253,0.02071685
2812.20114990,0.02060089
2814.12995728,0.02053489
2816.05876465,0.02042084
2817.98757202,0.02052923
2819.91637939,0.02051253
2821.84518677,0.02033495
2823.77399414,0.02031900
2825.70280151,0.02023332
2827.63160889,0.02021507
2829.56041626,0.02029066
2831.48922363,0.02024735
2833.41803101,0.02005741
2835.34683838,0.02001933
2837.27564575,0.01996898
2839.20445312,0.01983261
2841.13326050,0.01986856
2843.06206787,0.01983491
2844.99087524,0.01981960
2846.91968262,0.01959821
2848.84848999,0.01942036
2850.77729736,0.01946687
2852.70610474,0.01942178
2854.63491211,0.01958583
2856.56371948,0.01943661
2858.49252686,0.01936567
2860.42133423,0.01948292
2862.35014160,0.01930452
2864.27894897,0.01933717
2866.20775635,0.01921420
2868.13656372,0.01920675
2870.06537109,0.01920416
2871.99417847,0.01910401
2873.92298584,0.01922087
2875.85179321,0.01909861
2877.78060059,0.01914179
2879.70940796,0.01900784
2881.63821533,0.01891293
2883.56702270,0.01907279
2885.49583008,0.01888210
2887.42463745,0.01888643
2889.35344482,0.01882204
2891.28225220,0.01875476
2893.21105957,0.01881728
2895.13986694,0.01864912
2897.06867432,0.01862780
2898.99748169,0.01865424
2900.92628906,0.01861266
2902.85509644,0.01845907
2904.78390381,0.01839785
2906.71271118,0.01852901
2908.64151855,0.01840647
2910.57032593,0.01835743
2912.49913330,0.01842565
2914.42794067,0.01824569
2916.35674805,0.01820050
2918.28555542,0.01821816
2920.21436279,0.01815579
2922.14317017,0.01811085
2924.07197754,0.01795955
2926.00078491,0.01801756
2927.92959229,0.01801739
2929.85839966,0.01791941
2931.78720703,0.01799775
2933.71601440,0.01793059
2935.64482178,0.01797544
2937.57362915,0.01799368
2939.50243652,0.01795871
2941.43124390,0.01805929
2943.36005127,0.01797298
2945.28885864,0.01787760
2947.21766602,0.01787306
2949.14647339,0.01787807
2951.07528076,0.01782503
2953.00408813,0.01773657
2954.93289551,0.01767294
2956.86170288,0.01760751
2958.79051025,0.01759255
2960.71931763,0.01759582
2962.64812500,0.01750446
2964.57693237,0.01744553
2966.50573975,0.01754459
2968.43454712,0.01744937
2970.36335449,0.01744714
2972.29216187,0.01755409
2974.22096924,0.01747536
2976.14977661,0.01745842
2978.07858398,0.01736264
2980.00739136,0.01745197
2981.93619873,0.01746573
2983.86500610,0.01734753
2985.79381348,0.01745601
2987.72262085,0.01740138
2989.65142822,0.01738446
2991.58023560,0.01731364
2993.50904297,0.01718695
2995.43785034,0.01717130
2997.36665771,0.01719919
2999.29546509,0.01724790
3001.22427246,0.01709152
3003.15307983,0.01702782
3005.08188721,0.01702506
3007.01069458,0.01700640
3008.93950195,0.01698798
3010.86830933,0.01687125
3012.79711670,0.01682619
3014.72592407,0.01675054
3016.65473145,0.01672927
3018.58353882,0.01677868
3020.51234619,0.01676059
3022.44115356,0.01675580
3024.36996094,0.01672763
3026.29876831,0.01658858
3028.22757568,0.01655041
3030.15638306,0.01651758
3032.08519043,0.01635664
3034.01399780,0.01638868
3035.94280518,0.01646036
3037.87161255,0.01643002
3039.80041992,0.01627384
3041.72922729,0.01627652
3043.65803467,0.01637545
3045.58684204,0.01619712
3047.51564941,0.01617831
3049.44445679,0.01610804
3051.37326416,0.01607508
3053.30207153,0.01615564
3055.23087891,0.01599067
3057.15968628,0.01594943
3059.08849365,0.01598949
3061.01730103,0.01597662
3062.94610840,0.01584110
3064.87491577,0.01578324
3066.80372314,0.01581696
3068.73253052,0.01577481
3070.66133789,0.01583414
3072.59014526,0.01578301
3074.51895264,0.01576053
3076.44776001,0.01581417
3078.37656738,0.01576653
3080.30537476,0.01557362
3082.23418213,0.01541288
3084.16298950,0.01549168
3086.09179687,0.01550403
3088.02060425,0.01552145
3089.94941162,0.01554499
3091.87821899,0.01543069
3093.80702637,0.01533993
3095.73583374,0.01536877
3097.66464111,0.01537869
3099.59344849,0.01529227
3101.52225586,0.01522481
3103.45106323,0.01512736
3105.37987061,0.01511202
3107.30867798,0.01508186
3109.23748535,0.01505234
3111.16629272,0.01508130
3113.09510010,0.01499906
3115.02390747,0.01491297
3116.95271484,0.01483880
3118.88152222,0.01486928
3120.81032959,0.01483807
3122.73913696,0.01474410
3124.66794434,0.01473168
3126.59675171,0.01472690
3128.52555908,0.01472861
3130.45436645,0.01460918
3132.38317383,0.01459102
3134.31198120,0.01457503
3136.24078857,0.01447945
3138.16959595,0.01444351
3140.09840332,0.01446551
3142.02721069,0.01452588
3143.95601807,0.01430436
3145.88482544,0.01417177
3147.81363281,0.01428938
3149.74244019,0.01433116
3151.67124756,0.01424966
3153.60005493,0.01408452
3155.52886230,0.01407093
3157.45766968,0.01407954
3159.38647705,0.01400007
3161.31528442,0.01391179
3163.24409180,0.01394887
3165.17289917,0.01400801
3167.10170654,0.01387424
3169.03051392,0.01377253
3170.95932129,0.01378559
3172.88812866,0.01379419
3174.81693604,0.01367186
3176.74574341,0.01363937
3178.67455078,0.01364855
3180.60335815,0.01353154
3182.53216553,0.01351583
3184.46097290,0.01345270
3186.38978027,0.01347722
3188.31858765,0.01350338
3190.24739502,0.01335194
3192.17620239,0.01334605
3194.10500977,0.01333826
3196.03381714,0.01327804
3197.96262451,0.01321877
3199.89143188,0.01323717
3201.82023926,0.01336975
3203.74904663,0.01330571
3205.67785400,0.01320327
3207.60666138,0.01319036
3209.53546875,0.01314157
3211.46427612,0.01306509
3213.39308350,0.01296719
3215.32189087,0.01299548
3217.25069824,0.01295430
3219.17950562,0.01285050
3221.10831299,0.01295034
3223.03712036,0.01297049
3224.96592773,0.01294570
3226.89473511,0.01299062
3228.82354248,0.01292108
3230.75234985,0.01281323
3232.68115723,0.01276867
3234.60996460,0.01273278
3236.53877197,0.01271303
3238.46757935,0.01270749
3240.39638672,0.01261702
3242.32519409,0.01265524
3244.25400146,0.01272769
3246.18280884,0.01265822
3248.11161621,0.01263215
3250.04042358,0.01256330
3251.96923096,0.01253137
3253.89803833,0.01245364
3255.82684570,0.01243371
3257.75565308,0.01258607
3259.68446045,0.01251164
3261.61326782,0.01240501
3263.54207520,0.01241182
3265.47088257,0.01246987
3267.39968994,0.01248174
3269.32849731,0.01238899
3271.25730469,0.01234534
3273.18611206,0.01225958
3275.11491943,0.01227661
3277.04372681,0.01225396
3278.97253418,0.01221422
3280.90134155,0.01233462
3282.83014893,0.01224058
3284.75895630,0.01227518
3286.68776367,0.01233398
3288.61657104,0.01214525
3290.54537842,0.01222315
3292.47418579,0.01224976
3294.40299316,0.01210542
3296.33180054,0.01210952
3298.26060791,0.01216685
3300.18941528,0.01210623
3302.11822266,0.01204273
3304.04703003,0.01216316
3305.97583740,0.01211128
3307.90464478,0.01205569
3309.83345215,0.01202182
3311.76225952,0.01194666
3313.69106689,0.01204301
3315.61987427,0.01192632
3317.54868164,0.01195389
3319.47748901,0.01199355
3321.40629639,0.01181646
3323.33510376,0.01180909
3325.26391113,0.01182031
3327.19271851,0.01184089
3329.12152588,0.01172655
3331.05033325,0.01176872
3332.97914062,0.01178357
3334.90794800,0.01167558
3336.83675537,0.01178016
3338.76556274,0.01174776
3340.69437012,0.01175624
3342.62317749,0.01171118
3344.55198486,0.01170641
3346.48079224,0.01164213
3348.40959961,0.01154652
3350.33840698,0.01164908
3352.26721436,0.01151472
3354.19602173,0.01155714
3356.12482910,0.01153382
3358.05363647,0.01146085
3359.98244385,0.01149985
3361.91125122,0.01140405
3363.84005859,0.01147989
3365.76886597,0.01140220
3367.69767334,0.01126173
3369.62648071,0.01120782
3371.55528809,0.01137129
3373.48409546,0.01142798
3375.41290283,0.01126788
3377.34171020,0.01129755
3379.27051758,0.01115211
3381.19932495,0.01118020
3383.12813232,0.01124744
3385.05693970,0.01120149
3386.98574707,0.01120828
3388.91455444,0.01117621
3390.84336182,0.01116079
3392.77216919,0.01100156
3394.70097656,0.01105464
3396.62978394,0.01105326
3398.55859131,0.01094971
3400.48739868,0.01099615
3402.41620605,0.01098386
3404.34501343,0.01092746
3406.27382080,0.01087391
3408.20262817,0.01090410
3410.13143555,0.01088441
3412.06024292,0.01094116
3413.98905029,0.01089065
3415.91785767,0.01087133
3417.84666504,0.01090700
3419.77547241,0.01076608
3421.70427979,0.01071970
3423.63308716,0.01062914
3425.56189453,0.01070034
3427.49070190,0.01066133
3429.41950928,0.01059976
3431.34831665,0.01061716
3433.27712402,0.01053789
3435.20593140,0.01060796
3437.13473877,0.01054858
3439.06354614,0.01062000
3440.99235352,0.01047859
3442.92116089,0.01036822
3444.84996826,0.01043233
3446.77877563,0.01028496
3448.70758301,0.01046012
3450.63639038,0.01050860
3452.56519775,0.01050995
3454.49400513,0.01047805
3456.42281250,0.01037537
3458.35161987,0.01038868
3460.28042725,0.01031364
3462.20923462,0.01029005
3464.13804199,0.01024905
3466.06684937,0.01029455
3467.99565674,0.01026450
3469.92446411,0.01037030
3471.85327148,0.01029362
3473.78207886,0.01006070
3475.71088623,0.01021895
3477.63969360,0.01026530
3479.56850098,0.01021574
3481.49730835,0.01001521
3483.42611572,0.01011998
3485.35492310,0.01018455
3487.28373047,0.01000934
3489.21253784,0.01016381
3491.14134521,0.01014729
3493.07015259,0.01017724
3494.99895996,0.01005764
3496.92776733,0.01000788
3498.85657471,0.01014433
3500.78538208,0.01005847
3502.71418945,0.00987742
3504.64299683,0.00981077
3506.57180420,0.01013444
3508.50061157,0.01002396
3510.42941895,0.00986118
3512.35822632,0.00992264
3514.28703369,0.00990653
3516.21584106,0.01002367
3518.14464844,0.00994995
3520.07345581,0.01004082
3522.00226318,0.00987672
3523.93107056,0.00964681
3525.85987793,0.00976152
3527.78868530,0.00969650
3529.71749268,0.00973235
3531.64630005,0.00986400
3533.57510742,0.00995000
3535.50391479,0.00978294
3537.43272217,0.00969617
3539.36152954,0.00997360
3541.29033691,0.00994054
3543.21914429,0.00977756
3545.14795166,0.00963207
3547.07675903,0.00946680
3549.00556641,0.00978508
3550.93437378,0.00980478
3552.86318115,0.00955530
3554.79198853,0.00974724
3556.72079590,0.00974774
3558.64960327,0.00981106
3560.57841064,0.00963797
3562.50721802,0.00961454
3564.43602539,0.00974153
3566.36483276,0.00883077
3568.29364014,0.00870037
3570.22244751,0.00948607
3572.15125488,0.00976706
3574.08006226,0.00972597
3576.00886963,0.00966204
3577.93767700,0.00968877
3579.86648437,0.00961486
3581.79529175,0.00957107
3583.72409912,0.00958556
3585.65290649,0.00928990
3587.58171387,0.00844990
3589.51052124,0.00875248
3591.43932861,0.00971333
3593.36813599,0.00934804
3595.29694336,0.00917412
3597.22575073,0.00947343
3599.15455811,0.00945020
3601.08336548,0.00930329
3603.01217285,0.00948478
3604.94098022,0.00968623
3606.86978760,0.00919388
3608.79859497,0.00861244
3610.72740234,0.00889754
3612.65620972,0.00901781
3614.58501709,0.00875001
3616.51382446,0.00950890
3618.44263184,0.00865004
3620.37143921,0.00842339
3622.30024658,0.00971707
3624.22905395,0.00933389
3626.15786133,0.00972314
3628.08666870,0.00793997
3630.01547607,0.00716243
3631.94428345,0.00936860
3633.87309082,0.00906813
3635.80189819,0.00934412
3637.73070557,0.00947897
3639.65951294,0.00929454
3641.58832031,0.00940637
3643.51712769,0.00933608
3645.44593506,0.00951082
3647.37474243,0.00825029
3649.30354980,0.00746539
3651.23235718,0.00753960
3653.16116455,0.00920727
3655.08997192,0.00913529
3657.01877930,0.00810290
3658.94758667,0.00962603
3660.87639404,0.00928903
3662.80520142,0.00948873
3664.73400879,0.00942113
3666.66281616,0.00926861
3668.59162354,0.00896551
3670.52043091,0.00696940
3672.44923828,0.00884262
3674.37804565,0.00827341
3676.30685303,0.00664929
3678.23566040,0.00884254
3680.16446777,0.00898837
3682.09327515,0.00901601
3684.02208252,0.00934318
3685.95088989,0.00921212
3687.87969727,0.00806120
3689.80850464,0.00725021
3691.73731201,0.00854357
3693.66611938,0.00879491
3695.59492676,0.00908334
3697.52373413,0.00914972
3699.45254150,0.00903527
3701.38134888,0.00868099
3703.31015625,0.00830191
3705.23896362,0.00919670
3707.16777100,0.00865644
3709.09657837,0.00847934
3711.02538574,0.00779087
3712.95419312,0.00726525
3714.88300049,0.00879249
3716.81180786,0.00862896
3718.74061523,0.00877824
3720.66942261,0.00850460
3722.59822998,0.00821427
3724.52703735,0.00859680
3726.45584473,0.00779643
3728.38465210,0.00860697
3730.31345947,0.00855915
3732.24226685,0.00769006
3734.17107422,0.00739503
3736.09988159,0.00694436
3738.02868896,0.00748817
3739.95749634,0.00832186
3741.88630371,0.00873136
3743.81511108,0.00653300
3745.74391846,0.00610837
3747.67272583,0.00815551
3749.60153320,0.00687541
3751.53034058,0.00624967
3753.45914795,0.00736953
3755.38795532,0.00807026
3757.31676270,0.00842900
3759.24557007,0.00770462
3761.17437744,0.00800528
3763.10318481,0.00864765
3765.03199219,0.00796011
3766.96079956,0.00810157
3768.88960693,0.00797925
3770.81841431,0.00753699
3772.74722168,0.00838434
3774.67602905,0.00835077
3776.60483643,0.00836748
3778.53364380,0.00814237
3780.46245117,0.00764839
3782.39125854,0.00826879
3784.32006592,0.00803860
3786.24887329,0.00797923
3788.17768066,0.00815602
3790.10648804,0.00812501
3792.03529541,0.00813700
3793.96410278,0.00822118
3795.89291016,0.00769610
3797.82171753,0.00757972
3799.75052490,0.00801059
3801.67933228,0.00612021
3803.60813965,0.00738174
3805.53694702,0.00807366
3807.46575439,0.00637940
3809.39456177,0.00805233
3811.32336914,0.00777381
3813.25217651,0.00811842
3815.18098389,0.00724691
3817.10979126,0.00620499
3819.03859863,0.00814531
3820.96740601,0.00631750
3822.89621338,0.00677851
3824.82502075,0.00806367
3826.75382812,0.00717894
3828.68263550,0.00780112
3830.61144287,0.00744082
3832.54025024,0.00718805
3834.46905762,0.00732335
3836.39786499,0.00695944
3838.32667236,0.00621115
3840.25547974,0.00682087
3842.18428711,0.00727158
3844.11309448,0.00691741
3846.04190186,0.00768028
3847.97070923,0.00744534
3849.89951660,0.00762024
3851.82832397,0.00665910
3853.75713135,0.00465103
3855.68593872,0.00579853
3857.61474609,0.00745295
3859.54355347,0.00728577
3861.47236084,0.00722282
3863.40116821,0.00700336
3865.32997559,0.00637427
3867.25878296,0.00733807
3869.18759033,0.00658917
3871.11639770,0.00599845
3873.04520508,0.00739145
3874.97401245,0.00665518
3876.90281982,0.00733248
3878.83162720,0.00742968
3880.76043457,0.00620901
3882.68924194,0.00736805
3884.61804932,0.00678765
3886.54685669,0.00610776
3888.47566406,0.00735180
3890.40447144,0.00694346
3892.33327881,0.00634911
3894.26208618,0.00703276
3896.19089355,0.00718167
3898.11970093,0.00690840
3900.04850830,0.00639954
3901.97731567,0.00625597
3903.90612305,0.00637138
3905.83493042,0.00636400
3907.76373779,0.00712225
3909.69254517,0.00708808
3911.62135254,0.00695901
3913.55015991,0.00720154
3915.47896728,0.00684695
3917.40777466,0.00670044
3919.33658203,0.00658961
3921.26538940,0.00686795
3923.19419678,0.00680557
3925.12300415,0.00666260
3927.05181152,0.00692200
3928.98061890,0.00686311
3930.90942627,0.00675379
3932.83823364,0.00651024
3934.76704102,0.00669744
3936.69584839,0.00682375
3938.62465576,0.00677438
3940.55346313,0.00678477
3942.48227051,0.00651108
3944.41107788,0.00655208
3946.33988525,0.00668250
3948.26869263,0.00658400
3950.19750000,0.00650960
3952.12630737,0.00669394
3954.05511475,0.00669712
3955.98392212,0.00663719
3957.91272949,0.00666389
3959.84153687,0.00656634
3961.77034424,0.00657965
3963.69915161,0.00657985
3965.62795898,0.00666138
3967.55676636,0.00658478
3969.48557373,0.00656933
3971.41438110,0.00653449
3973.34318848,0.00645506
3975.27199585,0.00651829
3977.20080322,0.00640245
3979.12961060,0.00655240
3981.05841797,0.00656560
3982.98722534,0.00649438
3984.91603271,0.00644706
3986.84484009,0.00643688
3988.77364746,0.00654780
3990.70245483,0.00637089
3992.63126221,0.00642715
3994.56006958,0.00637463
3996.48887695,0.00629777
3998.41768433,0.00638890
4000.34649170,0.00637468
4002.27529907,0.00633220
4004.20410645,0.00632060
4006.13291382,0.00643712
4008.06172119,0.00622017
4009.99052856,0.00621138
4011.91933594,0.00629999
4013.84814331,0.00621719
4015.77695068,0.00627167
4017.70575806,0.00615747
4019.63456543,0.00612972
4021.56337280,0.00614616
4023.49218018,0.00619132
4025.42098755,0.00617819
4027.34979492,0.00612987
4029.27860229,0.00606014
4031.20740967,0.00603981
4033.13621704,0.00613046
4035.06502441,0.00603652
4036.99383179,0.00607650
4038.92263916,0.00603453
4040.85144653,0.00608427
4042.78025391,0.00610962
4044.70906128,0.00587655
4046.63786865,0.00592784
4048.56667603,0.00604963
4050.49548340,0.00604471
4052.42429077,0.00586179
4054.35309814,0.00593576
4056.28190552,0.00600230
4058.21071289,0.00586373
4060.13952026,0.00586451
4062.06832764,0.00580755
4063.99713501,0.00591616
4065.92594238,0.00583249
4067.85474976,0.00571294
4069.78355713,0.00583281
4071.71236450,0.00588044
4073.64117187,0.00581323
4075.56997925,0.00567593
4077.49878662,0.00572941
4079.42759399,0.00579102
4081.35640137,0.00576704
4083.28520874,0.00563523
4085.21401611,0.00565036
4087.14282349,0.00570291
4089.07163086,0.00559886
4091.00043823,0.00571236
4092.92924561,0.00571379
4094.85805298,0.00568253
4096.78686035,0.00569393
4098.71566772,0.00563756
4100.64447510,0.00563377
4102.57328247,0.00559870
4104.50208984,0.00557066
4106.43089722,0.00554802
4108.35970459,0.00550947
4110.28851196,0.00546712
4112.21731934,0.00556214
4114.14612671,0.00552080
4116.07493408,0.00544288
4118.00374145,0.00549787
4119.93254883,0.00545808
4121.86135620,0.00546790
4123.79016357,0.00537144
4125.71897095,0.00536735
4127.64777832,0.00544935
4129.57658569,0.00542616
4131.50539307,0.00545288
4133.43420044,0.00537659
4135.36300781,0.00528483
4137.29181519,0.00528652
4139.22062256,0.00534643
4141.14942993,0.00532658
4143.07823730,0.00524277
4145.00704468,0.00524938
4146.93585205,0.00529297
4148.86465942,0.00526279
4150.79346680,0.00524728
4152.72227417,0.00525498
4154.65108154,0.00522391
4156.57988892,0.00529159
4158.50869629,0.00521471
4160.43750366,0.00510889
4162.36631103,0.00514061
4164.29511841,0.00523124
4166.22392578,0.00522360
4168.15273315,0.00503261
4170.08154053,0.00513467
4172.01034790,0.00508226
4173.93915527,0.00494491
4175.86796265,0.00511024
4177.79677002,0.00505958
4179.72557739,0.00506378
4181.65438477,0.00513701
4183.58319214,0.00504558
4185.51199951,0.00500513
4187.44080688,0.00501039
4189.36961426,0.00495943
4191.29842163,0.00492751
4193.22722900,0.00494371
4195.15603638,0.00495498
4197.08484375,0.00492725
4199.01365112,0.00489424
4200.94245850,0.00489952
4202.87126587,0.00485831
4204.80007324,0.00496400
4206.72888062,0.00498183
4208.65768799,0.00489554
4210.58649536,0.00488575
4212.51530273,0.00478695
4214.44411011,0.00485433
4216.37291748,0.00484640
4218.30172485,0.00482741
4220.23053223,0.00483313
4222.15933960,0.00476491
4224.08814697,0.00477788
4226.01695435,0.00467223
4227.94576172,0.00473628
4229.87456909,0.00478804
4231.80337646,0.00470594
4233.73218384,0.00466354
4235.66099121,0.00462517
4237.58979858,0.00462023
4239.51860596,0.00460076
4241.44741333,0.00462884
4243.37622070,0.00458718
4245.30502808,0.00462559
4247.23383545,0.00460279
4249.16264282,0.00455780
4251.09145020,0.00456706
4253.02025757,0.00456483
4254.94906494,0.00461437
4256.87787231,0.00445141
4258.80667969,0.00457914
4260.73548706,0.00461810
4262.66429443,0.00448288
4264.59310181,0.00460473
4266.52190918,0.00452324
4268.45071655,0.00453911
4270.37952393,0.00449048
4272.30833130,0.00443785
4274.23713867,0.00448342
4276.16594604,0.00447090
4278.09475342,0.00450877
4280.02356079,0.00439232
4281.95236816,0.00443357
4283.88117554,0.00449887
4285.80998291,0.00443244
4287.73879028,0.00436361
4289.66759766,0.00440072
4291.59640503,0.00445172
4293.52521240,0.00431131
4295.45401978,0.00433960
4297.38282715,0.00432916
4299.31163452,0.00423417
4301.24044189,0.00425270
4303.16924927,0.00429105
4305.09805664,0.00432394
4307.02686401,0.00428006
4308.95567139,0.00426790
4310.88447876,0.00425708
4312.81328613,0.00426290
4314.74209351,0.00425302
4316.67090088,0.00422862
4318.59970825,0.00425222
4320.52851562,0.00419512
4322.45732300,0.00411886
4324.38613037,0.00410958
4326.31493774,0.00410760
4328.24374512,0.00412013
4330.17255249,0.00414049
4332.10135986,0.00412011
4334.03016724,0.00413858
4335.95897461,0.00407402
4337.88778198,0.00402356
4339.81658936,0.00408346
4341.74539673,0.00409238
4343.67420410,0.00404420
4345.60301147,0.00400617
4347.53181885,0.00414836
4349.46062622,0.00408542
4351.38943359,0.00398285
4353.31824097,0.00405047
4355.24704834,0.00399788
4357.17585571,0.00403782
4359.10466309,0.00394268
4361.03347046,0.00395078
4362.96227783,0.00398430
4364.89108520,0.00387992
4366.81989258,0.00403471
4368.74869995,0.00401373
4370.67750732,0.00394547
4372.60631470,0.00395057
4374.53512207,0.00388188
4376.46392944,0.00390542
4378.39273682,0.00388498
4380.32154419,0.00387371
4382.25035156,0.00393079
4384.17915894,0.00385517
4386.10796631,0.00380313
4388.03677368,0.00391595
4389.96558105,0.00384747
4391.89438843,0.00380046
4393.82319580,0.00379426
4395.75200317,0.00376133
4397.68081055,0.00381713
4399.60961792,0.00370025
4401.53842529,0.00373814
4403.46723267,0.00376914
4405.39604004,0.00369184
4407.32484741,0.00375838
4409.25365478,0.00373108
4411.18246216,0.00372223
4413.11126953,0.00373351
4415.04007690,0.00369657
4416.96888428,0.00363333
4418.89769165,0.00365377
4420.82649902,0.00368624
4422.75530640,0.00369402
4424.68411377,0.00372411
4426.61292114,0.00358478
4428.54172852,0.00355545
4430.47053589,0.00357509
4432.39934326,0.00354219
4434.32815063,0.00361558
4436.25695801,0.00358329
4438.18576538,0.00351293
4440.11457275,0.00353797
4442.04338013,0.00354783
4443.97218750,0.00354737
4445.90099487,0.00356888
4447.82980225,0.00353374
4449.75860962,0.00356935
4451.68741699,0.00355581
4453.61622437,0.00347938
4455.54503174,0.00350200
4457.47383911,0.00343324
4459.40264648,0.00341446
4461.33145386,0.00343323
4463.26026123,0.00342938
4465.18906860,0.00341485
4467.11787598,0.00342091
4469.04668335,0.00352939
4470.97549072,0.00348389
4472.90429810,0.00338617
4474.83310547,0.00336647
4476.76191284,0.00339536
4478.69072021,0.00336764
4480.61952759,0.00333980
4482.54833496,0.00337983
4484.47714233,0.00330766
4486.40594971,0.00332499
4488.33475708,0.00330888
4490.26356445,0.00330486
4492.19237183,0.00338803
4494.12117920,0.00330486
4496.04998657,0.00330298
4497.97879395,0.00332251
4499.90760132,0.00330934
4501.83640869,0.00332564
4503.76521606,0.00327297
4505.69402344,0.00324892
4507.62283081,0.00323329
4509.55163818,0.00324606
4511.48044556,0.00327898
4513.40925293,0.00325138
4515.33806030,0.00321722
4517.26686768,0.00322184
4519.19567505,0.00324890
4521.12448242,0.00317352
4523.05328979,0.00309782
4524.98209717,0.00319182
4526.91090454,0.00317272
4528.83971191,0.00312701
4530.76851929,0.00319988
4532.69732666,0.00314711
4534.62613403,0.00311363
4536.55494141,0.00310190
4538.48374878,0.00309869
4540.41255615,0.00314357
4542.34136353,0.00313920
4544.27017090,0.00311097
4546.19897827,0.00303147
4548.12778564,0.00309860
4550.05659302,0.00315106
4551.98540039,0.00301426
4553.91420776,0.00300070
4555.84301514,0.00304267
4557.77182251,0.00300956
4559.70062988,0.00299492
4561.62943726,0.00300085
4563.55824463,0.00300749
4565.48705200,0.00300574
4567.41585937,0.00292440
4569.34466675,0.00292087
4571.27347412,0.00298384
4573.20228149,0.00296121
4575.13108887,0.00297319
4577.05989624,0.00295062
4578.98870361,0.00295338
4580.91751099,0.00292984
4582.84631836,0.00288584
4584.77512573,0.00291426
4586.70393311,0.00283416
4588.63274048,0.00289922
4590.56154785,0.00293551
4592.49035522,0.00284416
4594.41916260,0.00294806
4596.34796997,0.00292350
4598.27677734,0.00281028
4600.20558472,0.00280593
4602.13439209,0.00282022
4604.06319946,0.00281430
4605.99200684,0.00276897
4607.92081421,0.00280241
4609.84962158,0.00278363
4611.77842895,0.00276306
4613.70723633,0.00280727
4615.63604370,0.00273080
4617.56485107,0.00270838
4619.49365845,0.00273873
4621.42246582,0.00275308
4623.35127319,0.00280013
4625.28008057,0.00283144
4627.20888794,0.00278695
4629.13769531,0.00270289
4631.06650269,0.00274613
4632.99531006,0.00270536
4634.92411743,0.00267351
4636.85292480,0.00269738
4638.78173218,0.00262697
4640.71053955,0.00268978
4642.63934692,0.00262925
4644.56815430,0.00263001
4646.49696167,0.00274146
4648.42576904,0.00265012
4650.35457642,0.00266244
4652.28338379,0.00267757
4654.21219116,0.00263216
4656.14099853,0.00257732
4658.06980591,0.00256879
4659.99861328,0.00262069
4661.92742065,0.00261655
4663.85622803,0.00261237
4665.78503540,0.00257636
4667.71384277,0.00259678
4669.64265015,0.00256644
4671.57145752,0.00254756
4673.50026489,0.00252189
4675.42907227,0.00247697
4677.35787964,0.00259880
4679.28668701,0.00253608
4681.21549438,0.00247372
4683.14430176,0.00254449
4685.07310913,0.00256240
4687.00191650,0.00251702
4688.93072388,0.00246477
4690.85953125,0.00253779
4692.78833862,0.00245825
4694.71714600,0.00247222
4696.64595337,0.00252450
4698.57476074,0.00240209
4700.50356812,0.00249105
4702.43237549,0.00250989
4704.36118286,0.00246441
4706.28999023,0.00246150
4708.21879761,0.00239018
4710.14760498,0.00240649
4712.07641235,0.00236564
4714.00521973,0.00235996
4715.93402710,0.00240923
4717.86283447,0.00241006
4719.79164185,0.00248732
4721.72044922,0.00240267
4723.64925659,0.00229891
4725.57806396,0.00238156
4727.50687134,0.00237674
4729.43567871,0.00238528
4731.36448608,0.00240552
4733.29329346,0.00236641
4735.22210083,0.00235437
4737.15090820,0.00234171
4739.07971558,0.00230373
4741.00852295,0.00231404
4742.93733032,0.00239266
4744.86613770,0.00227874
4746.79494507,0.00223666
4748.72375244,0.00230024
4750.65255981,0.00225111
4752.58136719,0.00233364
4754.51017456,0.00234469
4756.43898193,0.00232830
4758.36778931,0.00229665
4760.29659668,0.00222398
4762.22540405,0.00224806
4764.15421143,0.00222709
4766.08301880,0.00226956
4768.01182617,0.00224948
4769.94063354,0.00221670
4771.86944092,0.00225315
4773.79824829,0.00225895
4775.72705566,0.00223114
4777.65586304,0.00216412
4779.58467041,0.00221743
4781.51347778,0.00219366
4783.44228516,0.00220250
4785.37109253,0.00223181
4787.29989990,0.00212381
4789.22870728,0.00215175
4791.15751465,0.00216195
4793.08632202,0.00216800
4795.01512939,0.00220686
4796.94393677,0.00218747
4798.87274414,0.00212420
4800.80155151,0.00207285
4802.73035889,0.00211246
4804.65916626,0.00206804
4806.58797363,0.00205050
4808.51678101,0.00209636
4810.44558838,0.00210396
4812.37439575,0.00212220
4814.30320312,0.00208500
4816.23201050,0.00205458
4818.16081787,0.00207614
4820.08962524,0.00209201
4822.01843262,0.00206713
4823.94723999,0.00204007
4825.87604736,0.00205695
4827.80485474,0.00206076
4829.73366211,0.00204859
4831.66246948,0.00207251
4833.59127686,0.00200901
4835.52008423,0.00193998
4837.44889160,0.00202749
4839.37769897,0.00201897
4841.30650635,0.00199095
4843.23531372,0.00202058
4845.16412109,0.00199882
4847.09292847,0.00202560
4849.02173584,0.00201097
4850.95054321,0.00203146
4852.87935059,0.00201388
4854.80815796,0.00191555
4856.73696533,0.00201028
4858.66577270,0.00206392
4860.59458008,0.00196145
4862.52338745,0.00193051
4864.45219482,0.00194182
4866.38100220,0.00196895
4868.30980957,0.00201568
4870.23861694,0.00195887
4872.16742432,0.00187721
4874.09623169,0.00190277
4876.02503906,0.00186925
4877.95384644,0.00182805
4879.88265381,0.00190495
4881.81146118,0.00192405
4883.74026855,0.00191829
4885.66907593,0.00195771
4887.59788330,0.00193475
4889.52669067,0.00186909
4891.45549805,0.00185015
4893.38430542,0.00186990
4895.31311279,0.00184356
4897.24192017,0.00178766
4899.17072754,0.00175707
4901.09953491,0.00180296
4903.02834228,0.00187330
4904.95714966,0.00188184
4906.88595703,0.00184721
4908.81476440,0.00176329
4910.74357178,0.00178914
4912.67237915,0.00179356
4914.60118652,0.00170792
4916.52999390,0.00176316
4918.45880127,0.00175981
4920.38760864,0.00174839
4922.31641602,0.00174943
4924.24522339,0.00171325
4926.17403076,0.00173654
4928.10283813,0.00171884
4930.03164551,0.00178577
4931.96045288,0.00174078
4933.88926025,0.00163594
4935.81806763,0.00175719
4937.74687500,0.00179218
4939.67568237,0.00167667
4941.60448975,0.00164636
4943.53329712,0.00173544
4945.46210449,0.00169647
4947.39091187,0.00166378
4949.31971924,0.00176746
4951.24852661,0.00171938
4953.17733398,0.00163624
4955.10614136,0.00165537
4957.03494873,0.00170441
4958.96375610,0.00170777
4960.89256348,0.00170280
4962.82137085,0.00165417
4964.75017822,0.00159767
4966.67898560,0.00167893
4968.60779297,0.00166164
4970.53660034,0.00164607
4972.46540771,0.00167654
4974.39421509,0.00159974
4976.32302246,0.00159658
4978.25182983,0.00164606
4980.18063721,0.00169183
4982.10944458,0.00160998
4984.03825195,0.00152808
4985.96705933,0.00158405
4987.89586670,0.00159852
4989.82467407,0.00164982
4991.75348145,0.00160430
4993.68228882,0.00152327
4995.61109619,0.00157110
4997.53990356,0.00157850
4999.46871094,0.00159530
5001.39751831,0.00156313
5003.32632568,0.00150933
5005.25513306,0.00148232
5007.18394043,0.00145483
5009.11274780,0.00150245
5011.04155518,0.00151106
5012.97036255,0.00151135
5014.89916992,0.00153031
5016.82797729,0.00155508
5018.75678467,0.00151392
5020.68559204,0.00146847
5022.61439941,0.00157028
5024.54320679,0.00150576
5026.47201416,0.00146127
5028.40082153,0.00155990
5030.32962891,0.00153638
5032.25843628,0.00154542
5034.18724365,0.00153948
5036.11605103,0.00151719
5038.04485840,0.00146764
5039.97366577,0.00142166
5041.90247314,0.00147012
5043.83128052,0.00145500
5045.76008789,0.00144078
5047.68889526,0.00142848
5049.61770264,0.00141415
5051.54651001,0.00142972
5053.47531738,0.00147226
5055.40412476,0.00147724
5057.33293213,0.00136674
5059.26173950,0.00137739
5061.19054687,0.00144303
5063.11935425,0.00142821
5065.04816162,0.00143755
5066.97696899,0.00140691
5068.90577637,0.00137699
5070.83458374,0.00141413
5072.76339111,0.00137783
5074.69219849,0.00137935
5076.62100586,0.00146278
5078.54981323,0.00135890
5080.47862061,0.00133312
5082.40742798,0.00139276
5084.33623535,0.00135007
5086.26504272,0.00142258
5088.19385010,0.00142109
5090.12265747,0.00139265
5092.05146484,0.00134548
5093.98027222,0.00125077
5095.90907959,0.00136339
5097.83788696,0.00139884
5099.76669434,0.00133282
5101.69550171,0.00135601
5103.62430908,0.00135250
5105.55311645,0.00129253
5107.48192383,0.00127533
5109.41073120,0.00134167
5111.33953857,0.00134011
5113.26834595,0.00126919
5115.19715332,0.00125814
5117.12596069,0.00133953
5119.05476807,0.00131924
5120.98357544,0.00119817
5122.91238281,0.00124342
5124.84119019,0.00135897
5126.76999756,0.00137373
5128.69880493,0.00124363
5130.62761230,0.00119415
5132.55641968,0.00127705
5134.48522705,0.00124215
5136.41403442,0.00120215
5138.34284180,0.00121235
5140.27164917,0.00130401
5142.20045654,0.00134814
5144.12926392,0.00126892
5146.05807129,0.00127596
5147.98687866,0.00123341
5149.91568603,0.00117964
5151.84449341,0.00120548
5153.77330078,0.00124180
5155.70210815,0.00119133
5157.63091553,0.00115788
5159.55972290,0.00126468
5161.48853027,0.00118430
5163.41733765,0.00114594
5165.34614502,0.00122025
5167.27495239,0.00117241
5169.20375977,0.00115604
5171.13256714,0.00118219
5173.06137451,0.00125144
5174.99018188,0.00118155
5176.91898926,0.00119067
5178.84779663,0.00125172
5180.77660400,0.00120183
5182.70541138,0.00125517
5184.63421875,0.00115319
5186.56302612,0.00123819
5188.49183350,0.00129302
5190.42064087,0.00106781
5192.34944824,0.00116841
5194.27825562,0.00124111
5196.20706299,0.00118769
5198.13587036,0.00111708
5200.06467773,0.00107591
5201.99348511,0.00116310
5203.92229248,0.00112964
5205.85109985,0.00112908
5207.77990723,0.00112255
5209.70871460,0.00105949
5211.63752197,0.00109788
5213.56632935,0.00112671
5215.49513672,0.00108120
5217.42394409,0.00106617
5219.35275146,0.00111115
5221.28155884,0.00112546
5223.21036621,0.00115826
5225.13917358,0.00113723
5227.06798096,0.00106726
5228.99678833,0.00105982
5230.92559570,0.00105628
5232.85440308,0.00109531
5234.78321045,0.00109203
5236.71201782,0.00104434
5238.64082520,0.00107189
5240.56963257,0.00106114
5242.49843994,0.00106259
5244.42724731,0.00108265
5246.35605469,0.00106003
5248.28486206,0.00105725
5250.21366943,0.00098819
5252.14247681,0.00099994
5254.07128418,0.00100139
5256.00009155,0.00097081
5257.92889893,0.00106300
5259.85770630,0.00097716
5261.78651367,0.00101530
5263.71532104,0.00106567
5265.64412842,0.00096628
5267.57293579,0.00103956
5269.50174316,0.00098271
5271.43055054,0.00101317
5273.35935791,0.00105910
5275.28816528,0.00101186
5277.21697266,0.00106641
5279.14578003,0.00102216
5281.07458740,0.00102721
5283.00339478,0.00100421
5284.93220215,0.00100552
5286.86100952,0.00100555
5288.78981689,0.00093439
5290.71862427,0.00095759
5292.64743164,0.00096722
5294.57623901,0.00102536
5296.50504639,0.00100876
5298.43385376,0.00095698
5300.36266113,0.00099951
5302.29146851,0.00099172
5304.22027588,0.00095055
5306.14908325,0.00096929
5308.07789062,0.00094522
5310.00669800,0.00086100
5311.93550537,0.00092101
5313.86431274,0.00092131
5315.79312012,0.00089178
5317.72192749,0.00092931
5319.65073486,0.00096927
5321.57954224,0.00097713
5323.50834961,0.00089810
5325.43715698,0.00097290
5327.36596436,0.00094797
5329.29477173,0.00089585
5331.22357910,0.00095169
5333.15238647,0.00090232
5335.08119385,0.00096385
5337.01000122,0.00096430
5338.93880859,0.00087291
5340.86761597,0.00088232
5342.79642334,0.00092007
5344.72523071,0.00089654
5346.65403809,0.00089460
5348.58284546,0.00086782
5350.51165283,0.00085322
5352.44046020,0.00093925
5354.36926758,0.00082316
5356.29807495,0.00082217
5358.22688232,0.00086875
5360.15568970,0.00085838
5362.08449707,0.00098244
5364.01330444,0.00091470
5365.94211182,0.00089485
5367.87091919,0.00084155
5369.79972656,0.00081699
5371.72853394,0.00086988
5373.65734131,0.00083075
5375.58614868,0.00092155
5377.51495605,0.00084650
5379.44376343,0.00080940
5381.37257080,0.00084791
5383.30137817,0.00079736
5385.23018555,0.00083416
5387.15899292,0.00085759
5389.08780029,0.00089412
5391.01660767,0.00085443
5392.94541504,0.00086436
5394.87422241,0.00088231
5396.80302978,0.00083596
5398.73183716,0.00083198
5400.66064453,0.00079393
5402.58945190,0.00084622
5404.51825928,0.00083196
5406.44706665,0.00080281
5408.37587402,0.00082845
5410.30468140,0.00071841
5412.23348877,0.00072850
5414.16229614,0.00078688
5416.09110352,0.00071686
5418.01991089,0.00074640
5419.94871826,0.00078203
5421.87752563,0.00078666
5423.80633301,0.00083496
5425.73514038,0.00079876
5427.66394775,0.00080895
5429.59275513,0.00080141
5431.52156250,0.00078115
5433.45036987,0.00082998
5435.37917725,0.00079256
5437.30798462,0.00079296
5439.23679199,0.00073788
5441.16559936,0.00067321
5443.09440674,0.00071255
5445.02321411,0.00072704
5446.95202148,0.00076262
5448.88082886,0.00077728
5450.80963623,0.00077836
5452.73844360,0.00073925
5454.66725098,0.00072560
5456.59605835,0.00077270
5458.52486572,0.00076675
5460.45367310,0.00074586
5462.38248047,0.00075070
5464.31128784,0.00080437
5466.24009521,0.00079632
5468.16890259,0.00071625
5470.09770996,0.00070571
5472.02651733,0.00075356
5473.95532471,0.00070970
5475.88413208,0.00070714
5477.81293945,0.00078506
5479.74174683,0.00070195
5481.67055420,0.00066653
5483.59936157,0.00071544
5485.52816895,0.00074323
5487.45697632,0.00073761
5489.38578369,0.00070597
5491.31459106,0.00072378
5493.24339844,0.00069459
5495.17220581,0.00069662
5497.10101318,0.00067941
5499.02982056,0.00070715
5500.95862793,0.00072837
5502.88743530,0.00067025
5504.81624268,0.00071719
5506.74505005,0.00065396
5508.67385742,0.00062956
5510.60266479,0.00069391
5512.53147217,0.00073650
5514.46027954,0.00073926
5516.38908691,0.00065098
5518.31789429,0.00068550
5520.24670166,0.00068089
5522.17550903,0.00070517
5524.10431641,0.00069979
5526.03312378,0.00061322
5527.96193115,0.00071800
5529.89073853,0.00073246
5531.81954590,0.00067852
5533.74835327,0.00069208
5535.67716064,0.00071568
5537.60596802,0.00065650
5539.53477539,0.00057559
5541.46358276,0.00065939
5543.39239014,0.00068921
5545.32119751,0.00070429
5547.25000488,0.00071326
5549.17881226,0.00062206
5551.10761963,0.00059526
5553.03642700,0.00061760
5554.96523437,0.00062617
5556.89404175,0.00063806
5558.82284912,0.00066414
5560.75165649,0.00063173
5562.68046387,0.00061997
5564.60927124,0.00067914
5566.53807861,0.00068827
5568.46688599,0.00064227
5570.39569336,0.00055924
5572.32450073,0.00055196
5574.25330811,0.00059758
5576.18211548,0.00058258
5578.11092285,0.00061769
5580.03973022,0.00064151
5581.96853760,0.00060208
5583.89734497,0.00064844
5585.82615234,0.00065064
5587.75495972,0.00056849
5589.68376709,0.00055151
5591.61257446,0.00058698
5593.54138184,0.00063813
5595.47018921,0.00063223
5597.39899658,0.00064146
5599.32780395,0.00063732
5601.25661133,0.00057798
5603.18541870,0.00056620
5605.11422607,0.00054723
5607.04303345,0.00058367
5608.97184082,0.00058407
5610.90064819,0.00056831
5612.82945557,0.00063638
5614.75826294,0.00059512
5616.68707031,0.00057818
5618.61587769,0.00062124
5620.54468506,0.00056428
5622.47349243,0.00054517
5624.40229980,0.00063336
5626.33110718,0.00064119
5628.25991455,0.00057368
5630.18872192,0.00054944
5632.11752930,0.00052351
5634.04633667,0.00052613
5635.97514404,0.00053525
5637.90395142,0.00053565
5639.83275879,0.00050649
5641.76156616,0.00048670
5643.69037353,0.00052186
5645.61918091,0.00053724
5647.54798828,0.00058195
5649.47679565,0.00056503
5651.40560303,0.00054626
5653.33441040,0.00057851
5655.26321777,0.00055466
5657.19202515,0.00054068
5659.12083252,0.00055421
5661.04963989,0.00056662
5662.97844727,0.00047846
5664.90725464,0.00044878
5666.83606201,0.00049435
5668.76486938,0.00049186
5670.69367676,0.00054287
5672.62248413,0.00056426
5674.55129150,0.00051201
5676.48009888,0.00042772
5678.40890625,0.00051444
5680.33771362,0.00058818
5682.26652100,0.00049794
5684.19532837,0.00051867
5686.12413574,0.00050369
5688.05294311,0.00047547
5689.98175049,0.00050409
5691.91055786,0.00051666
5693.83936523,0.00047384
5695.76817261,0.00048272
5697.69697998,0.00054742
5699.62578735,0.00048630
5701.55459473,0.00049650
5703.48340210,0.00044716
5705.41220947,0.00042383
5707.34101685,0.00052542
5709.26982422,0.00051237
5711.19863159,0.00052361
5713.12743896,0.00051008
5715.05624634,0.00049329
5716.98505371,0.00049435
5718.91386108,0.00050325
5720.84266846,0.00046027
5722.77147583,0.00044350
5724.70028320,0.00051127
5726.62909058,0.00045144
5728.55789795,0.00049623
5730.48670532,0.00047459
5732.41551270,0.00044041
5734.34432007,0.00056635
5736.27312744,0.00056583
5738.20193481,0.00052953
5740.13074219,0.00048150
5742.05954956,0.00051236
5743.98835693,0.00048824
5745.91716431,0.00048684
5747.84597168,0.00050200
5749.77477905,0.00039182
5751.70358643,0.00047172
5753.63239380,0.00047198
5755.56120117,0.00046760
5757.49000854,0.00050491
5759.41881592,0.00041145
5761.34762329,0.00039576
5763.27643066,0.00042704
5765.20523804,0.00047551
5767.13404541,0.00043357
5769.06285278,0.00048001
5770.99166016,0.00048486
5772.92046753,0.00040052
5774.84927490,0.00047186
5776.77808228,0.00041552
5778.70688965,0.00042692
5780.63569702,0.00047147
5782.56450439,0.00041546
5784.49331177,0.00044984
5786.42211914,0.00040537
5788.35092651,0.00042142
5790.27973389,0.00049878
5792.20854126,0.00041923
5794.13734863,0.00034961
5796.06615601,0.00037019
5797.99496338,0.00044252
5799.92377075,0.00045380
5801.85257812,0.00036897
5803.78138550,0.00040163
5805.71019287,0.00040101
5807.63900024,0.00040752
5809.56780762,0.00050512
5811.49661499,0.00044158
5813.42542236,0.00042209
5815.35422974,0.00040561
5817.28303711,0.00040733
5819.21184448,0.00044252
5821.14065186,0.00038431
5823.06945923,0.00045025
5824.99826660,0.00043416
5826.92707397,0.00037959
5828.85588135,0.00040036
5830.78468872,0.00038791
5832.71349609,0.00036405
5834.64230347,0.00035038
5836.57111084,0.00038182
5838.49991821,0.00039157
5840.42872559,0.00046336
5842.35753296,0.00038009
5844.28634033,0.00032577
5846.21514770,0.00040357
5848.14395508,0.00033067
5850.07276245,0.00040443
5852.00156982,0.00040422
5853.93037720,0.00034375
5855.85918457,0.00039715
5857.78799194,0.00037009
5859.71679932,0.00035279
5861.64560669,0.00038021
5863.57441406,0.00039280
5865.50322144,0.00031935
5867.43202881,0.00034785
5869.36083618,0.00029832
5871.28964355,0.00025368
5873.21845093,0.00039815
5875.14725830,0.00034898
5877.07606567,0.00035867
5879.00487305,0.00037788
5880.93368042,0.00028967
5882.86248779,0.00031231
5884.79129517,0.00034440
5886.72010254,0.00035441
5888.64890991,0.00035242
5890.57771728,0.00039935
5892.50652466,0.00037413
5894.43533203,0.00036768
5896.36413940,0.00039273
5898.29294678,0.00032963
5900.22175415,0.00037570
5902.15056152,0.00039611
5904.07936890,0.00039302
5906.00817627,0.00037978
5907.93698364,0.00031640
5909.86579102,0.00038583
5911.79459839,0.00033502
5913.72340576,0.00026251
5915.65221313,0.00038693
5917.58102051,0.00029287
5919.50982788,0.00027972
5921.43863525,0.00043228
5923.36744263,0.00029318
5925.29625000,0.00032024
5927.22505737,0.00037442
5929.15386475,0.00026589
5931.08267212,0.00033476
5933.01147949,0.00028542
5934.94028686,0.00025832
5936.86909424,0.00035954
5938.79790161,0.00035977
5940.72670898,0.00029356
5942.65551636,0.00026080
5944.58432373,0.00034107
5946.51313110,0.00033108
5948.44193848,0.00029876
5950.37074585,0.00030659
5952.29955322,0.00024868
5954.22836060,0.00027034
5956.15716797,0.00030801
5958.08597534,0.00031264
5960.01478271,0.00030830
5961.94359009,0.00030914
5963.87239746,0.00032917
5965.80120483,0.00027787
5967.73001221,0.00028067
5969.65881958,0.00032196
5971.58762695,0.00030670
5973.51643433,0.00030299
5975.44524170,0.00026285
5977.37404907,0.00028120
5979.30285645,0.00029235
5981.23166382,0.00025370
5983.16047119,0.00028936
5985.08927856,0.00028414
5987.01808594,0.00030811
5988.94689331,0.00033831
5990.87570068,0.00032980
5992.80450806,0.00031275
5994.73331543,0.00029101
5996.66212280,0.00031663
5998.59093018,0.00027591
6000.51973755,0.00027525
