399.26312622,0.00044598
401.19193359,0.00081940
403.12074097,0.00074219
405.04954834,0.00046428
406.97835571,0.00058025
408.90716309,0.00052623
410.83597046,0.00057143
412.76477783,0.00093786
414.69358521,0.00079556
416.62239258,0.00108436
418.55119995,0.00088682
420.48000732,0.00050863
422.40881470,0.00091547
424.33762207,0.00064447
426.26642944,0.00085155
428.19523682,0.00099961
430.12404419,0.00079809
432.05285156,0.00140793
433.98165894,0.00119922
435.91046631,0.00067696
437.83927368,0.00097814
439.76808105,0.00113216
441.69688843,0.00090670
443.62569580,0.00081393
445.55450317,0.00075685
447.48331055,0.00047465
449.41211792,0.00061291
451.34092529,0.00094283
453.26973267,0.00058544
455.19854004,0.00043074
457.12734741,0.00071915
459.05615479,0.00075453
460.98496216,0.00076018
462.91376953,0.00091863
464.84257690,0.00097198
466.77138428,0.00059389
468.70019165,0.00025051
470.62899902,0.00015314
472.55780640,0.00054877
474.48661377,0.00072368
476.41542114,0.00041684
478.34422852,0.00057639
480.27303589,0.00015333
482.20184326,0.00020710
484.13065063,0.00039172
486.05945801,-0.00001420
487.98826538,0.00040759
489.91707275,0.00026746
491.84588013,0.00025579
493.77468750,0.00048885
495.70349487,0.00025385
497.63230225,-0.00035321
499.56110962,-0.00019914
501.48991699,0.00025878
503.41872437,0.00011805
505.34753174,0.00042524
507.27633911,0.00019149
509.20514648,0.00022462
511.13395386,-0.00013814
513.06276123,0.00009592
514.99156860,0.00039877
516.92037598,-0.00001161
518.84918335,0.00049487
520.77799072,0.00028699
522.70679810,0.00046568
524.63560547,0.00042491
526.56441284,-0.00022801
528.49322021,0.00026689
530.42202759,0.00026082
532.35083496,0.00024810
534.27964233,0.00041062
536.20844971,0.00030929
538.13725708,0.00041556
540.06606445,0.00031715
541.99487183,0.00010503
543.92367920,-0.00000883
545.85248657,-0.00004709
547.78129395,0.00010875
549.71010132,0.00019732
551.63890869,0.00005801
553.56771606,0.00037007
555.49652344,0.00027711
557.42533081,0.00024568
559.35413818,0.00068544
561.28294556,0.00026166
563.21175293,0.00027094
565.14056030,0.00025645
567.06936768,-0.00009364
568.99817505,0.00027257
570.92698242,0.00033906
572.85578979,0.00019135
574.78459717,0.00039981
576.71340454,0.00055399
578.64221191,0.00019029
580.57101929,0.00009556
582.49982666,0.00037783
584.42863403,0.00013481
586.35744141,-0.00003307
588.28624878,0.00024195
590.21505615,0.00033686
592.14386353,0.00012581
594.07267090,0.00019580
596.00147827,0.00030514
597.93028564,0.00018460
599.85909302,0.00027914
601.78790039,0.00027468
603.71670776,-0.00001703
605.64551514,0.00020844
607.57432251,0.00021720
609.50312988,0.00004000
611.43193726,0.00053829
613.36074463,0.00027337
615.28955200,0.00015528
617.21835938,0.00052627
619.14716675,0.00052274
621.07597412,0.00035123
623.00478149,0.00016012
624.93358887,0.00023562
626.86239624,0.00012115
628.79120361,0.00008257
630.72001099,-0.00013689
632.64881836,0.00050429
634.57762573,0.00092490
636.50643311,0.00074016
638.43524048,0.00098684
640.36404785,0.00060581
642.29285522,0.00068696
644.22166260,0.00098818
646.15046997,0.00117616
648.07927734,0.00146145
650.00808472,0.00111566
651.93689209,0.00134895
653.86569946,0.00129611
655.79450684,0.00153268
657.72331421,0.00170754
659.65212158,0.00121052
661.58092896,0.00174689
663.50973633,0.00169613
665.43854370,0.00167309
667.36735107,0.00168543
669.29615845,0.00162606
671.22496582,0.00219371
673.15377319,0.00173711
675.08258057,0.00169475
677.01138794,0.00214587
678.94019531,0.00213256
680.86900269,0.00203016
682.79781006,0.00205098
684.72661743,0.00218836
686.65542480,0.00208215
688.58423218,0.00217055
690.51303955,0.00222307
692.44184692,0.00256789
694.37065430,0.00253502
696.29946167,0.00243224
698.22826904,0.00324547
700.15707642,0.00346453
702.08588379,0.00324098
704.01469116,0.00302493
705.94349854,0.00301845
707.87230591,0.00275500
709.80111328,0.00178208
711.72992065,0.00108199
713.65872803,0.00067958
715.58753540,0.00032951
717.51634277,0.00015964
719.44515015,0.00029926
721.37395752,0.00009071
723.30276489,0.00000723
725.23157227,0.00013551
727.16037964,0.00003922
729.08918701,0.00025320
731.01799438,0.00012502
732.94680176,0.00002281
734.87560913,0.00008395
736.80441650,0.00023705
738.73322388,0.00022559
740.66203125,0.00014420
742.59083862,0.00035757
744.51964600,0.00044510
746.44845337,0.00044660
748.37726074,0.00001777
750.30606812,0.00006604
752.23487549,0.00040524
754.16368286,-0.00001465
756.09249023,0.00005154
758.02129761,0.00034822
759.95010498,0.00033750
761.87891235,0.00041700
763.80771973,0.00020080
765.73652710,0.00012564
767.66533447,0.00020011
769.59414185,0.00017001
771.52294922,0.00042714
773.45175659,0.00009758
775.38056396,0.00009753
777.30937134,0.00026429
779.23817871,0.00010623
781.16698608,0.00027068
783.09579346,0.00029114
785.02460083,0.00044824
786.95340820,0.00011108
788.88221558,0.00032919
790.81102295,0.00054924
792.73983032,0.00025460
794.66863770,0.00039826
796.59744507,0.00048342
798.52625244,0.00076983
800.45505981,0.00062225
802.38386719,0.00036956
804.31267456,0.00034558
806.24148193,0.00031861
808.17028931,0.00074367
810.09909668,0.00047589
812.02790405,0.00011484
813.95671143,0.00019171
815.88551880,0.00051955
817.81432617,0.00067696
819.74313354,0.00001215
821.67194092,-0.00004023
823.60074829,0.00020126
825.52955566,0.00023509
827.45836304,0.00033968
829.38717041,0.00028375
831.31597778,0.00053558
833.24478516,0.00075792
835.17359253,0.00079240
837.10239990,0.00087271
839.03120728,0.00095837
840.96001465,0.00087467
842.88882202,0.00077433
844.81762939,0.00065104
846.74643677,0.00055691
848.67524414,0.00056550
850.60405151,0.00038323
852.53285889,0.00056231
854.46166626,0.00050460
856.39047363,0.00030626
858.31928101,0.00056438
860.24808838,0.00044157
862.17689575,0.00015712
864.10570313,0.00028736
866.03451050,0.00055928
867.96331787,0.00029619
869.89212524,0.00027770
871.82093262,0.00042882
873.74973999,0.00025227
875.67854736,0.00029173
877.60735474,0.00044522
879.53616211,0.00064204
881.46496948,0.00045787
883.39377686,0.00043504
885.32258423,0.00041814
887.25139160,0.00019153
889.18019897,0.00023317
891.10900635,0.00020791
893.03781372,0.00042236
894.96662109,0.00053063
896.89542847,0.00052632
898.82423584,0.00024907
900.75304321,0.00005261
902.68185059,0.00044376
904.61065796,0.00050921
906.53946533,0.00049428
908.46827271,0.00034795
910.39708008,0.00020200
912.32588745,0.00051523
914.25469482,0.00075680
916.18350220,0.00069544
918.11230957,0.00058497
920.04111694,0.00073937
921.96992432,0.00080792
923.89873169,0.00085849
925.82753906,0.00109173
927.75634644,0.00102551
929.68515381,0.00084553
931.61396118,0.00109661
933.54276855,0.00115425
935.47157593,0.00107508
937.40038330,0.00134182
939.32919067,0.00120200
941.25799805,0.00138709
943.18680542,0.00148794
945.11561279,0.00102816
947.04442017,0.00124242
948.97322754,0.00130112
950.90203491,0.00121661
952.83084229,0.00127234
954.75964966,0.00116803
956.68845703,0.00124055
958.61726440,0.00122301
960.54607178,0.00105728
962.47487915,0.00117012
964.40368652,0.00138584
966.33249390,0.00112760
968.26130127,0.00126585
970.19010864,0.00145784
972.11891602,0.00133886
974.04772339,0.00168819
975.97653076,0.00170302
977.90533813,0.00169636
979.83414551,0.00180217
981.76295288,0.00201071
983.69176025,0.00242704
985.62056763,0.00244723
987.54937500,0.00282928
989.47818237,0.00324518
991.40698975,0.00338587
993.33579712,0.00374859
995.26460449,0.00395570
997.19341187,0.00432932
999.12221924,0.00489996
1001.05102661,0.00517425
1002.97983398,0.00552822
1004.90864136,0.00583640
1006.83744873,0.00620026
1008.76625610,0.00695503
1010.69506348,0.00709096
1012.62387085,0.00725407
1014.55267822,0.00785332
1016.48148560,0.00805021
1018.41029297,0.00842668
1020.33910034,0.00882197
1022.26790771,0.00920091
1024.19671509,0.00965964
1026.12552246,0.01005180
1028.05432983,0.01039481
1029.98313721,0.01060178
1031.91194458,0.01111237
1033.84075195,0.01135141
1035.76955933,0.01141907
1037.69836670,0.01167782
1039.62717407,0.01162666
1041.55598145,0.01158227
1043.48478882,0.01155791
1045.41359619,0.01134400
1047.34240356,0.01106046
1049.27121094,0.01100712
1051.20001831,0.01083329
1053.12882568,0.01049137
1055.05763306,0.01041058
1056.98644043,0.01022314
1058.91524780,0.01011502
1060.84405518,0.00980497
1062.77286255,0.00947350
1064.70166992,0.00943168
1066.63047729,0.00890338
1068.55928467,0.00855300
1070.48809204,0.00824052
1072.41689941,0.00774695
1074.34570679,0.00764362
1076.27451416,0.00716863
1078.20332153,0.00670900
1080.13212891,0.00653452
1082.06093628,0.00609523
1083.98974365,0.00585443
1085.91855103,0.00583570
1087.84735840,0.00548589
1089.77616577,0.00499234
1091.70497314,0.00497377
1093.63378052,0.00482791
1095.56258789,0.00437539
1097.49139526,0.00436363
1099.42020264,0.00433881
1101.34901001,0.00423419
1103.27781738,0.00433592
1105.20662476,0.00420657
1107.13543213,0.00403913
1109.06423950,0.00406452
1110.99304687,0.00396259
1112.92185425,0.00394339
1114.85066162,0.00389610
1116.77946899,0.00371525
1118.70827637,0.00391144
1120.63708374,0.00407458
1122.56589111,0.00407033
1124.49469849,0.00406745
1126.42350586,0.00411272
1128.35231323,0.00420998
1130.28112061,0.00400838
1132.20992798,0.00423899
1134.13873535,0.00457720
1136.06754272,0.00438597
1137.99635010,0.00468233
1139.92515747,0.00502266
1141.85396484,0.00523992
1143.78277222,0.00584839
1145.71157959,0.00607026
1147.64038696,0.00648304
1149.56919434,0.00705416
1151.49800171,0.00705562
1153.42680908,0.00740915
1155.35561646,0.00783972
1157.28442383,0.00815026
1159.21323120,0.00831827
1161.14203857,0.00857048
1163.07084595,0.00929567
1164.99965332,0.00949680
1166.92846069,0.00990541
1168.85726807,0.01025901
1170.78607544,0.01038884
1172.71488281,0.01096374
1174.64369019,0.01111547
1176.57249756,0.01164609
1178.50130493,0.01213613
1180.43011230,0.01245162
1182.35891968,0.01304835
1184.28772705,0.01353372
1186.21653442,0.01451938
1188.14534180,0.01517926
1190.07414917,0.01559775
1192.00295654,0.01625948
1193.93176392,0.01716450
1195.86057129,0.01812947
1197.78937866,0.01864962
1199.71818604,0.01951206
1201.64699341,0.02053059
1203.57580078,0.02136892
1205.50460815,0.02205482
1207.43341553,0.02283039
1209.36222290,0.02363073
1211.29103027,0.02425156
1213.21983765,0.02509370
1215.14864502,0.02560885
1217.07745239,0.02612089
1219.00625977,0.02668862
1220.93506714,0.02701856
1222.86387451,0.02735275
1224.79268188,0.02759309
1226.72148926,0.02788859
1228.65029663,0.02800858
1230.57910400,0.02805764
1232.50791138,0.02810497
1234.43671875,0.02832858
1236.36552612,0.02840248
1238.29433350,0.02814391
1240.22314087,0.02818074
1242.15194824,0.02810335
1244.08075562,0.02800418
1246.00956299,0.02785840
1247.93837036,0.02757047
1249.86717773,0.02742296
1251.79598511,0.02743103
1253.72479248,0.02719691
1255.65359985,0.02652743
1257.58240723,0.02634720
1259.51121460,0.02603355
1261.44002197,0.02550769
1263.36882935,0.02531034
1265.29763672,0.02492112
1267.22644409,0.02473743
1269.15525146,0.02445854
1271.08405884,0.02395112
1273.01286621,0.02354735
1274.94167358,0.02318643
1276.87048096,0.02279564
1278.79928833,0.02229525
1280.72809570,0.02197227
1282.65690308,0.02160038
1284.58571045,0.02114746
1286.51451782,0.02087704
1288.44332520,0.02072312
1290.37213257,0.02034510
1292.30093994,0.01985449
1294.22974731,0.01977538
1296.15855469,0.01969285
1298.08736206,0.01963769
1300.01616943,0.01981688
1301.94497681,0.01993382
1303.87378418,0.02011661
1305.80259155,0.02025875
1307.73139893,0.02054064
1309.66020630,0.02092645
1311.58901367,0.02104146
1313.51782104,0.02151940
1315.44662842,0.02219413
1317.37543579,0.02249778
1319.30424316,0.02301059
1321.23305054,0.02383179
1323.16185791,0.02465590
1325.09066528,0.02533645
1327.01947266,0.02604602
1328.94828003,0.02681172
1330.87708740,0.02739327
1332.80589478,0.02803173
1334.73470215,0.02855326
1336.66350952,0.02872849
1338.59231689,0.02834557
1340.52112427,0.02864108
1342.44993164,0.03010340
1344.37873901,0.03044849
1346.30754639,0.03034940
1348.23635376,0.03019559
1350.16516113,0.02981208
1352.09396851,0.03004947
1354.02277588,0.02960490
1355.95158325,0.02942554
1357.88039062,0.02945983
1359.80919800,0.02862727
1361.73800537,0.02719926
1363.66681274,0.02694853
1365.59562012,0.02851416
1367.52442749,0.02771549
1369.45323486,0.02752518
1371.38204224,0.02815008
1373.31084961,0.02619322
1375.23965698,0.02648588
1377.16846436,0.02740118
1379.09727173,0.02726465
1381.02607910,0.02746667
1382.95488647,0.02762182
1384.88369385,0.02748867
1386.81250122,0.02586543
1388.74130859,0.02624817
1390.67011597,0.02878288
1392.59892334,0.02803584
1394.52773071,0.02577974
1396.45653809,0.02746584
1398.38534546,0.02740879
1400.31415283,0.02697495
1402.24296021,0.02974508
1404.17176758,0.02760671
1406.10057495,0.02799098
1408.02938232,0.02946671
1409.95818970,0.02797965
1411.88699707,0.02881696
1413.81580444,0.02766865
1415.74461182,0.02843178
1417.67341919,0.02510178
1419.60222656,0.02205056
1421.53103394,0.02632511
1423.45984131,0.02523380
1425.38864868,0.02467023
1427.31745605,0.02512195
1429.24626343,0.02301062
1431.17507080,0.02251463
1433.10387817,0.02299332
1435.03268555,0.02076862
1436.96149292,0.01713583
1438.89030029,0.02023444
1440.81910767,0.02079625
1442.74791504,0.01912304
1444.67672241,0.02044447
1446.60552979,0.01846183
1448.53433716,0.01864912
1450.46314453,0.01932438
1452.39195190,0.01990172
1454.32075928,0.02053066
1456.24956665,0.01634122
1458.17837402,0.01710245
1460.10718140,0.02330585
1462.03598877,0.02499603
1463.96479614,0.02475967
1465.89360352,0.02551807
1467.82241089,0.02951968
1469.75121826,0.03198071
1471.68002563,0.02729592
1473.60883301,0.02874072
1475.53764038,0.03338652
1477.46644775,0.03604719
1479.39525513,0.04029125
1481.32406250,0.04045630
1483.25286987,0.04300149
1485.18167725,0.04430411
1487.11048462,0.04307500
1489.03929199,0.04249036
1490.96809937,0.04247240
1492.89690674,0.05085376
1494.82571411,0.04912830
1496.75452148,0.04301714
1498.68332886,0.04966749
1500.61213623,0.05137932
1502.54094360,0.05571605
1504.46975098,0.05189926
1506.39855835,0.03525123
1508.32736572,0.04471525
1510.25617310,0.05395022
1512.18498047,0.05198568
1514.11378784,0.05724445
1516.04259521,0.05049673
1517.97140259,0.05284491
1519.90020996,0.05123536
1521.82901733,0.04282655
1523.75782471,0.05429203
1525.68663208,0.05325481
1527.61543945,0.05280957
1529.54424683,0.05986190
1531.47305420,0.05719817
1533.40186157,0.05143213
1535.33066895,0.05522992
1537.25947632,0.06005225
1539.18828369,0.04039463
1541.11709106,0.04242142
1543.04589844,0.05263480
1544.97470581,0.05002672
1546.90351318,0.06130272
1548.83232056,0.05638887
1550.76112793,0.05833922
1552.68993530,0.05822341
1554.61874268,0.05181153
1556.54755005,0.05620188
1558.47635742,0.03686355
1560.40516479,0.04081555
1562.33397217,0.06208150
1564.26277954,0.05783435
1566.19158691,0.06001530
1568.12039429,0.05915565
1570.04920166,0.05102888
1571.97800903,0.06078073
1573.90681641,0.06194638
1575.83562378,0.04715603
1577.76443115,0.05454496
1579.69323853,0.06312331
1581.62204590,0.05982134
1583.55085327,0.06148864
1585.47966064,0.06055034
1587.40846802,0.06106716
1589.33727539,0.06063969
1591.26608276,0.06043465
1593.19489014,0.06058881
1595.12369751,0.05974227
1597.05250488,0.06046515
1598.98131226,0.06029731
1600.91011963,0.06075826
1602.83892700,0.05936495
1604.76773437,0.06058513
1606.69654175,0.05975018
1608.62534912,0.05950782
1610.55415649,0.05940205
1612.48296387,0.06000730
1614.41177124,0.06077035
1616.34057861,0.04810299
1618.26938599,0.05312155
1620.19819336,0.06334382
1622.12700073,0.05491594
1624.05580811,0.05502495
1625.98461548,0.05849194
1627.91342285,0.05804485
1629.84223022,0.05776124
1631.77103760,0.06243690
1633.69984497,0.05663980
1635.62865234,0.04489812
1637.55745972,0.05377120
1639.48626709,0.06053556
1641.41507446,0.05893350
1643.34388184,0.06073002
1645.27268921,0.05359215
1647.20149658,0.04577459
1649.13030396,0.05952797
1651.05911133,0.05602409
1652.98791870,0.03290604
1654.91672607,0.04780474
1656.84553345,0.06242569
1658.77434082,0.05967261
1660.70314819,0.06137298
1662.63195557,0.05459253
1664.56076294,0.05829043
1666.48957031,0.06354750
1668.41837769,0.05384602
1670.34718506,0.05213228
1672.27599243,0.06069519
1674.20479980,0.05507314
1676.13360718,0.05247097
1678.06241455,0.06204638
1679.99122192,0.05943251
1681.92002930,0.05825561
1683.84883667,0.04554496
1685.77764404,0.04541635
1687.70645142,0.06558773
1689.63525879,0.05565273
1691.56406616,0.06232102
1693.49287354,0.06358476
1695.42168091,0.04391140
1697.35048828,0.05638896
1699.27929565,0.04814442
1701.20810303,0.04244874
1703.13691040,0.06160869
1705.06571777,0.05557755
1706.99452515,0.05618346
1708.92333252,0.06207577
1710.85213989,0.05925971
1712.78094727,0.06045094
1714.70975464,0.05522491
1716.63856201,0.04883596
1718.56736938,0.04794406
1720.49617676,0.05846520
1722.42498413,0.06150240
1724.35379150,0.05631536
1726.28259888,0.06228976
1728.21140625,0.05679558
1730.14021362,0.05690796
1732.06902100,0.05578950
1733.99782837,0.04013939
1735.92663574,0.05220954
1737.85544312,0.05906598
1739.78425049,0.05114055
1741.71305786,0.05647676
1743.64186523,0.05727502
1745.57067261,0.05744274
1747.49947998,0.05783875
1749.42828735,0.05478255
1751.35709473,0.05212605
1753.28590210,0.05884992
1755.21470947,0.06205422
1757.14351685,0.05542390
1759.07232422,0.06233299
1761.00113159,0.05784978
1762.92993896,0.05527581
1764.85874634,0.06509061
1766.78755371,0.05728348
1768.71636108,0.05800258
1770.64516846,0.05745142
1772.57397583,0.05061245
1774.50278320,0.05784107
1776.43159058,0.06157472
1778.36039795,0.06075056
1780.28920532,0.05957180
1782.21801270,0.06039132
1784.14682007,0.06038124
1786.07562744,0.05868045
1788.00443481,0.06263730
1789.93324219,0.06054399
1791.86204956,0.05357288
1793.79085693,0.05663512
1795.71966431,0.06151062
1797.64847168,0.06061206
1799.57727905,0.05936789
1801.50608643,0.05801357
1803.43489380,0.06059013
1805.36370117,0.06202904
1807.29250854,0.06108617
1809.22131592,0.06149141
1811.15012329,0.05931601
1813.07893066,0.06176085
1815.00773804,0.06201481
1816.93654541,0.06106853
1818.86535278,0.06180548
1820.79416016,0.06147239
1822.72296753,0.06260067
1824.65177490,0.05757127
1826.58058228,0.06017097
1828.50938965,0.06025726
1830.43819702,0.05577536
1832.36700439,0.06192499
1834.29581177,0.06144152
1836.22461914,0.06159499
1838.15342651,0.06105679
1840.08223389,0.06135428
1842.01104126,0.06172235
1843.93984863,0.05340359
1845.86865601,0.05767506
1847.79746338,0.06151750
1849.72627075,0.06001311
1851.65507812,0.06203552
1853.58388550,0.06063855
1855.51269287,0.06152561
1857.44150024,0.06093191
1859.37030762,0.06061043
1861.29911499,0.06106676
1863.22792236,0.06019677
1865.15672974,0.06115779
1867.08553711,0.05860573
1869.01434448,0.05566744
1870.94315186,0.05841961
1872.87195923,0.06113216
1874.80076660,0.06009218
1876.72957397,0.06041150
1878.65838135,0.06009044
1880.58718872,0.05982731
1882.51599609,0.06046796
1884.44480347,0.05930893
1886.37361084,0.06038563
1888.30241821,0.05871991
1890.23122559,0.05745260
1892.16003296,0.06006600
1894.08884033,0.05897631
1896.01764771,0.05858682
1897.94645508,0.05945077
1899.87526245,0.05923012
1901.80406982,0.05924398
1903.73287720,0.05897495
1905.66168457,0.05934506
1907.59049194,0.05848693
1909.51929932,0.05813818
1911.44810669,0.05848680
1913.37691406,0.05876752
1915.30572144,0.05936840
1917.23452881,0.05603496
1919.16333618,0.05637051
1921.09214355,0.05894687
1923.02095093,0.05663955
1924.94975830,0.05823061
1926.87856567,0.05896512
1928.80737305,0.05798100
1930.73618042,0.05885055
1932.66498779,0.05787098
1934.59379517,0.05854884
1936.52260254,0.05815577
1938.45140991,0.05828503
1940.38021729,0.05824900
1942.30902466,0.05605876
1944.23783203,0.05738184
1946.16663940,0.05817917
1948.09544678,0.05794830
1950.02425415,0.05825240
1951.95306152,0.05806650
1953.88186890,0.05805113
1955.81067627,0.05783759
1957.73948364,0.05803429
1959.66829102,0.05790614
1961.59709839,0.05780760
1963.52590576,0.05792177
1965.45471313,0.05750659
1967.38352051,0.05677855
1969.31232788,0.05745547
1971.24113525,0.05787902
1973.16994263,0.05724514
1975.09875000,0.05775686
1977.02755737,0.05736858
1978.95636475,0.05740681
1980.88517212,0.05748187
1982.81397949,0.05720367
1984.74278687,0.05760730
1986.67159424,0.05677275
1988.60040161,0.05696420
1990.52920898,0.05650168
1992.45801636,0.05556785
1994.38682373,0.05666088
1996.31563110,0.05677451
1998.24443848,0.05628644
2000.17324585,0.05639574
2002.10205322,0.05645791
2004.03086060,0.05636346
2005.95966797,0.05618631
2007.88847534,0.05600507
2009.81728271,0.05593843
2011.74609009,0.05586045
2013.67489746,0.05583157
2015.60370483,0.05550910
2017.53251221,0.05496901
2019.46131958,0.05525350
2021.39012695,0.05545670
2023.31893433,0.05528034
2025.24774170,0.05500280
2027.17654907,0.05498925
2029.10535645,0.05503614
2031.03416382,0.05465123
2032.96297119,0.05468502
2034.89177856,0.05450702
2036.82058594,0.05453292
2038.74939331,0.05453168
2040.67820068,0.05402019
2042.60700806,0.05399467
2044.53581543,0.05394270
2046.46462280,0.05399030
2048.39343018,0.05395360
2050.32223755,0.05366033
2052.25104492,0.05365520
2054.17985229,0.05370396
2056.10865967,0.05347749
2058.03746704,0.05326940
2059.96627441,0.05330101
2061.89508179,0.05329248
2063.82388916,0.05298381
2065.75269653,0.05266953
2067.68150391,0.05295757
2069.61031128,0.05282829
2071.53911865,0.05254423
2073.46792603,0.05255999
2075.39673340,0.05242891
2077.32554077,0.05257293
2079.25434814,0.05224733
2081.18315552,0.05214915
2083.11196289,0.05223248
2085.04077026,0.05194084
2086.96957764,0.05200525
2088.89838501,0.05184165
2090.82719238,0.05162537
2092.75599976,0.05172297
2094.68480713,0.05173011
2096.61361450,0.05141135
2098.54242187,0.05140020
2100.47122925,0.05145326
2102.40003662,0.05127227
2104.32884399,0.05124704
2106.25765137,0.05100858
2108.18645874,0.05106494
2110.11526611,0.05110163
2112.04407349,0.05092359
2113.97288086,0.05073599
2115.90168823,0.05061683
2117.83049561,0.05076669
2119.75930298,0.05056807
2121.68811035,0.05048535
2123.61691772,0.05049276
2125.54572510,0.05034404
2127.47453247,0.05032352
2129.40333984,0.05033155
2131.33214722,0.05018194
2133.26095459,0.05008877
2135.18976196,0.05012921
2137.11856934,0.04989107
2139.04737671,0.04990853
2140.97618408,0.04982458
2142.90499146,0.04979471
2144.83379883,0.04985008
2146.76260620,0.04954049
2148.69141357,0.04968286
2150.62022095,0.04959663
2152.54902832,0.04945029
2154.47783569,0.04949851
2156.40664307,0.04936104
2158.33545044,0.04940256
2160.26425781,0.04938339
2162.19306519,0.04927959
2164.12187256,0.04913944
2166.05067993,0.04923334
2167.97948730,0.04929684
2169.90829468,0.04911482
2171.83710205,0.04896823
2173.76590942,0.04896339
2175.69471680,0.04897285
2177.62352417,0.04877966
2179.55233154,0.04878252
2181.48113892,0.04870291
2183.40994629,0.04851951
2185.33875366,0.04850566
2187.26756104,0.04849786
2189.19636841,0.04845590
2191.12517578,0.04840593
2193.05398315,0.04837833
2194.98279053,0.04824074
2196.91159790,0.04823732
2198.84040527,0.04821423
2200.76921265,0.04825193
2202.69802002,0.04822388
2204.62682739,0.04795735
2206.55563477,0.04791438
2208.48444214,0.04797205
2210.41324951,0.04801349
2212.34205688,0.04774080
2214.27086426,0.04775098
2216.19967163,0.04788641
2218.12847900,0.04761726
2220.05728638,0.04767230
2221.98609375,0.04753030
2223.91490112,0.04737329
2225.84370850,0.04747109
2227.77251587,0.04736127
2229.70132324,0.04729531
2231.63013062,0.04730491
2233.55893799,0.04722456
2235.48774536,0.04703636
2237.41655273,0.04699770
2239.34536011,0.04702362
2241.27416748,0.04692752
2243.20297485,0.04680264
2245.13178223,0.04682812
2247.06058960,0.04677463
2248.98939697,0.04659896
2250.91820435,0.04656399
2252.84701172,0.04638144
2254.77581909,0.04635344
2256.70462646,0.04645972
2258.63343384,0.04631476
2260.56224121,0.04619364
2262.49104858,0.04616401
2264.41985596,0.04616373
2266.34866333,0.04618426
2268.27747070,0.04607771
2270.20627808,0.04593991
2272.13508545,0.04596152
2274.06389282,0.04588128
2275.99270020,0.04577170
2277.92150757,0.04572452
2279.85031494,0.04569738
2281.77912231,0.04558963
2283.70792969,0.04551474
2285.63673706,0.04559818
2287.56554443,0.04544798
2289.49435181,0.04537921
2291.42315918,0.04520316
2293.35196655,0.04513184
2295.28077393,0.04516637
2297.20958130,0.04483373
2299.13838867,0.04476433
2301.06719604,0.04462162
2302.99600342,0.04456904
2304.92481079,0.04430750
2306.85361816,0.04387271
2308.78242554,0.04372585
2310.71123291,0.04322150
2312.64004028,0.04291730
2314.56884766,0.04251743
2316.49765503,0.04203619
2318.42646240,0.04157633
2320.35526978,0.04099184
2322.28407715,0.04051825
2324.21288452,0.03994308
2326.14169189,0.03965954
2328.07049927,0.03912704
2329.99930664,0.03866598
2331.92811401,0.03846398
2333.85692139,0.03825262
2335.78572876,0.03812030
2337.71453613,0.03793175
2339.64334351,0.03813468
2341.57215088,0.03819773
2343.50095825,0.03866795
2345.42976562,0.03949843
2347.35857300,0.04095923
2349.28738037,0.04226793
2351.21618774,0.04072572
2353.14499512,0.03872421
2355.07380249,0.03742629
2357.00260986,0.03625648
2358.93141724,0.03583359
2360.86022461,0.03545777
2362.78903198,0.03533742
2364.71783936,0.03539728
2366.64664673,0.03587960
2368.57545410,0.03669158
2370.50426147,0.03747592
2372.43306885,0.03844423
2374.36187622,0.03936329
2376.29068359,0.04040518
2378.21949097,0.04122195
2380.14829834,0.04180057
2382.07710571,0.04223203
2384.00591309,0.04242729
2385.93472046,0.04262936
2387.86352783,0.04264607
2389.79233521,0.04252931
2391.72114258,0.04242403
2393.64994995,0.04246309
2395.57875732,0.04245323
2397.50756470,0.04233026
2399.43637207,0.04241072
2401.36517944,0.04236411
2403.29398682,0.04228833
2405.22279419,0.04227654
2407.15160156,0.04210301
2409.08040894,0.04217057
2411.00921631,0.04211561
2412.93802368,0.04199412
2414.86683105,0.04207436
2416.79563843,0.04189486
2418.72444580,0.04189815
2420.65325317,0.04175904
2422.58206055,0.04159974
2424.51086792,0.04171142
2426.43967529,0.04151813
2428.36848267,0.04145989
2430.29729004,0.04143897
2432.22609741,0.04152150
2434.15490479,0.04145461
2436.08371216,0.04128435
2438.01251953,0.04136760
2439.94132690,0.04108336
2441.87013428,0.04110747
2443.79894165,0.04108047
2445.72774902,0.04083189
2447.65655640,0.04100768
2449.58536377,0.04102707
2451.51417114,0.04100869
2453.44297852,0.04093566
2455.37178589,0.04082660
2457.30059326,0.04075779
2459.22940063,0.04068500
2461.15820801,0.04068972
2463.08701538,0.04060424
2465.01582275,0.04055378
2466.94463013,0.04051044
2468.87343750,0.04043149
2470.80224487,0.04035160
2472.73105225,0.04033122
2474.65985962,0.04025231
2476.58866699,0.04023609
2478.51747437,0.04029026
2480.44628174,0.04017980
2482.37508911,0.04019127
2484.30389648,0.04006160
2486.23270386,0.03995754
2488.16151123,0.04004123
2490.09031860,0.03994556
2492.01912598,0.03988468
2493.94793335,0.03985312
2495.87674072,0.03986225
2497.80554810,0.03969051
2499.73435547,0.03950823
2501.66316284,0.03968091
2503.59197021,0.03965288
2505.52077759,0.03948516
2507.44958496,0.03940655
2509.37839233,0.03932512
2511.30719971,0.03938013
2513.23600708,0.03929452
2515.16481445,0.03911968
2517.09362183,0.03920070
2519.02242920,0.03925658
2520.95123657,0.03918806
2522.88004395,0.03910118
2524.80885132,0.03899506
2526.73765869,0.03896169
2528.66646606,0.03895164
2530.59527344,0.03888319
2532.52408081,0.03886876
2534.45288818,0.03891043
2536.38169556,0.03875701
2538.31050293,0.03863753
2540.23931030,0.03865480
2542.16811768,0.03854225
2544.09692505,0.03849383
2546.02573242,0.03850031
2547.95453979,0.03844074
2549.88334717,0.03838319
2551.81215454,0.03832301
2553.74096191,0.03824716
2555.66976929,0.03817911
2557.59857666,0.03809291
2559.52738403,0.03804784
2561.45619141,0.03812082
2563.38499878,0.03805146
2565.31380615,0.03794339
2567.24261353,0.03795572
2569.17142090,0.03792867
2571.10022827,0.03783983
2573.02903564,0.03776463
2574.95784302,0.03778943
2576.88665039,0.03768237
2578.81545776,0.03750809
2580.74426514,0.03749246
2582.67307251,0.03747834
2584.60187988,0.03744950
2586.53068726,0.03745002
2588.45949463,0.03743024
2590.38830200,0.03739036
2592.31710937,0.03731111
2594.24591675,0.03718264
2596.17472412,0.03704602
2598.10353149,0.03689979
2600.03233887,0.03695739
2601.96114624,0.03707833
2603.88995361,0.03704937
2605.81876099,0.03700963
2607.74756836,0.03685737
2609.67637573,0.03677148
2611.60518311,0.03670305
2613.53399048,0.03662215
2615.46279785,0.03664515
2617.39160522,0.03657696
2619.32041260,0.03653965
2621.24921997,0.03650468
2623.17802734,0.03642337
2625.10683472,0.03638706
2627.03564209,0.03637901
2628.96444946,0.03629863
2630.89325684,0.03630989
2632.82206421,0.03628787
2634.75087158,0.03613241
2636.67967895,0.03616215
2638.60848633,0.03597018
2640.53729370,0.03592791
2642.46610107,0.03601122
2644.39490845,0.03581808
2646.32371582,0.03585126
2648.25252319,0.03578158
2650.18133057,0.03575414
2652.11013794,0.03577081
2654.03894531,0.03571828
2655.96775269,0.03574932
2657.89656006,0.03557786
2659.82536743,0.03550667
2661.75417480,0.03548386
2663.68298218,0.03542905
2665.61178955,0.03543404
2667.54059692,0.03533658
2669.46940430,0.03522781
2671.39821167,0.03530329
2673.32701904,0.03520712
2675.25582642,0.03500967
2677.18463379,0.03514609
2679.11344116,0.03508442
2681.04224854,0.03509963
2682.97105591,0.03503799
2684.89986328,0.03474421
2686.82867065,0.03484022
2688.75747803,0.03480962
2690.68628540,0.03471848
2692.61509277,0.03461544
2694.54390015,0.03453030
2696.47270752,0.03461476
2698.40151489,0.03455315
2700.33032227,0.03442612
2702.25912964,0.03438345
2704.18793701,0.03440233
2706.11674438,0.03418662
2708.04555176,0.03418804
2709.97435913,0.03426593
2711.90316650,0.03412059
2713.83197388,0.03416016
2715.76078125,0.03406573
2717.68958862,0.03403264
2719.61839600,0.03398255
2721.54720337,0.03388462
2723.47601074,0.03390702
2725.40481812,0.03379541
2727.33362549,0.03375676
2729.26243286,0.03371231
2731.19124023,0.03368995
2733.12004761,0.03361087
2735.04885498,0.03350000
2736.97766235,0.03354842
2738.90646973,0.03343248
2740.83527710,0.03332419
2742.76408447,0.03335620
2744.69289185,0.03332417
2746.62169922,0.03332855
2748.55050659,0.03326275
2750.47931396,0.03316905
2752.40812134,0.03312145
2754.33692871,0.03290139
2756.26573608,0.03289344
2758.19454346,0.03297327
2760.12335083,0.03291491
2762.05215820,0.03285027
2763.98096558,0.03272625
2765.90977295,0.03288051
2767.83858032,0.03275259
2769.76738770,0.03250544
2771.69619507,0.03250162
2773.62500244,0.03235546
2775.55380981,0.03243501
2777.48261719,0.03236767
2779.41142456,0.03225079
2781.34023193,0.03224819
2783.26903931,0.03220822
2785.19784668,0.03216492
2787.12665405,0.03197795
2789.05546143,0.03204473
2790.98426880,0.03197832
2792.91307617,0.03188317
2794.84188354,0.03189805
2796.77069092,0.03173042
2798.69949829,0.03167329
2800.62830566,0.03157046
2802.55711304,0.03156595
2804.48592041,0.03151800
2806.41472778,0.03141174
2808.34353516,0.03141610
2810.27234253,0.03133544
2812.20114990,0.03131284
2814.12995728,0.03123257
2816.05876465,0.03113244
2817.98757202,0.03105336
2819.91637939,0.03097113
2821.84518677,0.03091080
2823.77399414,0.03084169
2825.70280151,0.03087670
2827.63160889,0.03082143
2829.56041626,0.03063490
2831.48922363,0.03059582
2833.41803101,0.03060329
2835.34683838,0.03050704
2837.27564575,0.03049345
2839.20445312,0.03040671
2841.13326050,0.03024800
2843.06206787,0.03018650
2844.99087524,0.03002137
2846.91968262,0.02985848
2848.84848999,0.02975450
2850.77729736,0.02961308
2852.70610474,0.02960189
2854.63491211,0.02968276
2856.56371948,0.02958122
2858.49252686,0.02956669
2860.42133423,0.02962022
2862.35014160,0.02945502
2864.27894897,0.02937836
2866.20775635,0.02941778
2868.13656372,0.02938724
2870.06537109,0.02922983
2871.99417847,0.02930631
2873.92298584,0.02927473
2875.85179321,0.02907491
2877.78060059,0.02918711
2879.70940796,0.02899146
2881.63821533,0.02898964
2883.56702270,0.02900852
2885.49583008,0.02887421
2887.42463745,0.02902042
2889.35344482,0.02875875
2891.28225220,0.02872030
2893.21105957,0.02862472
2895.13986694,0.02840562
2897.06867432,0.02850455
2898.99748169,0.02839204
2900.92628906,0.02842307
2902.85509644,0.02832044
2904.78390381,0.02826602
2906.71271118,0.02822897
2908.64151855,0.02808149
2910.57032593,0.02817496
2912.49913330,0.02790600
2914.42794067,0.02773432
2916.35674805,0.02777098
2918.28555542,0.02760926
2920.21436279,0.02757574
2922.14317017,0.02760328
2924.07197754,0.02756226
2926.00078491,0.02760099
2927.92959229,0.02772764
2929.85839966,0.02768539
2931.78720703,0.02766851
2933.71601440,0.02766109
2935.64482178,0.02753974
2937.57362915,0.02760437
2939.50243652,0.02767042
2941.43124390,0.02762668
2943.36005127,0.02764551
2945.28885864,0.02755312
2947.21766602,0.02742936
2949.14647339,0.02743757
2951.07528076,0.02729265
2953.00408813,0.02721141
2954.93289551,0.02721507
2956.86170288,0.02712050
2958.79051025,0.02710412
2960.71931763,0.02704322
2962.64812500,0.02706557
2964.57693237,0.02697231
2966.50573975,0.02687040
2968.43454712,0.02698784
2970.36335449,0.02693648
2972.29216187,0.02698370
2974.22096924,0.02693151
2976.14977661,0.02675753
2978.07858398,0.02691483
2980.00739136,0.02698735
2981.93619873,0.02691601
2983.86500610,0.02689242
2985.79381348,0.02684352
2987.72262085,0.02682040
2989.65142822,0.02680268
2991.58023560,0.02676524
2993.50904297,0.02671997
2995.43785034,0.02669955
2997.36665771,0.02661977
2999.29546509,0.02652092
3001.22427246,0.02656452
3003.15307983,0.02639620
3005.08188721,0.02621412
3007.01069458,0.02629061
3008.93950195,0.02626878
3010.86830933,0.02621315
3012.79711670,0.02604120
3014.72592407,0.02607414
3016.65473145,0.02613144
3018.58353882,0.02591677
3020.51234619,0.02598308
3022.44115356,0.02584926
3024.36996094,0.02576922
3026.29876831,0.02589096
3028.22757568,0.02572307
3030.15638306,0.02562710
3032.08519043,0.02555842
3034.01399780,0.02554977
3035.94280518,0.02546674
3037.87161255,0.02537975
3039.80041992,0.02536873
3041.72922729,0.02525827
3043.65803467,0.02528645
3045.58684204,0.02526918
3047.51564941,0.02517056
3049.44445679,0.02507013
3051.37326416,0.02506556
3053.30207153,0.02503226
3055.23087891,0.02485030
3057.15968628,0.02481632
3059.08849365,0.02480609
3061.01730103,0.02471939
3062.94610840,0.02465385
3064.87491577,0.02467223
3066.80372314,0.02457593
3068.73253052,0.02459498
3070.66133789,0.02467361
3072.59014526,0.02440716
3074.51895264,0.02441304
3076.44776001,0.02449736
3078.37656738,0.02442510
3080.30537476,0.02440481
3082.23418213,0.02421874
3084.16298950,0.02418914
3086.09179687,0.02429225
3088.02060425,0.02423282
3089.94941162,0.02410642
3091.87821899,0.02406302
3093.80702637,0.02398347
3095.73583374,0.02383771
3097.66464111,0.02385788
3099.59344849,0.02382373
3101.52225586,0.02365103
3103.45106323,0.02366509
3105.37987061,0.02368778
3107.30867798,0.02354554
3109.23748535,0.02356962
3111.16629272,0.02353394
3113.09510010,0.02335646
3115.02390747,0.02333331
3116.95271484,0.02327866
3118.88152222,0.02321721
3120.81032959,0.02311539
3122.73913696,0.02301299
3124.66794434,0.02301713
3126.59675171,0.02298021
3128.52555908,0.02299894
3130.45436645,0.02296130
3132.38317383,0.02289345
3134.31198120,0.02290809
3136.24078857,0.02267799
3138.16959595,0.02253404
3140.09840332,0.02265732
3142.02721069,0.02251679
3143.95601807,0.02247209
3145.88482544,0.02253491
3147.81363281,0.02242010
3149.74244019,0.02242641
3151.67124756,0.02228038
3153.60005493,0.02219465
3155.52886230,0.02225946
3157.45766968,0.02207597
3159.38647705,0.02205833
3161.31528442,0.02215789
3163.24409180,0.02193272
3165.17289917,0.02180949
3167.10170654,0.02184962
3169.03051392,0.02166028
3170.95932129,0.02166124
3172.88812866,0.02168654
3174.81693604,0.02153586
3176.74574341,0.02151358
3178.67455078,0.02145744
3180.60335815,0.02146595
3182.53216553,0.02136727
3184.46097290,0.02124252
3186.38978027,0.02130769
3188.31858765,0.02128861
3190.24739502,0.02108889
3192.17620239,0.02095120
3194.10500977,0.02101580
3196.03381714,0.02095145
3197.96262451,0.02094575
3199.89143188,0.02086074
3201.82023926,0.02075349
3203.74904663,0.02083150
3205.67785400,0.02069845
3207.60666138,0.02069390
3209.53546875,0.02064864
3211.46427612,0.02050766
3213.39308350,0.02049728
3215.32189087,0.02048694
3217.25069824,0.02045558
3219.17950562,0.02034921
3221.10831299,0.02037840
3223.03712036,0.02039871
3224.96592773,0.02036753
3226.89473511,0.02023889
3228.82354248,0.02019675
3230.75234985,0.02023491
3232.68115723,0.02009361
3234.60996460,0.02007727
3236.53877197,0.02006688
3238.46757935,0.02010332
3240.39638672,0.02001279
3242.32519409,0.01996035
3244.25400146,0.01996703
3246.18280884,0.01985414
3248.11161621,0.01998144
3250.04042358,0.01986058
3251.96923096,0.01984513
3253.89803833,0.01980828
3255.82684570,0.01964566
3257.75565308,0.01986229
3259.68446045,0.01976266
3261.61326782,0.01961976
3263.54207520,0.01965760
3265.47088257,0.01972651
3267.39968994,0.01968839
3269.32849731,0.01953424
3271.25730469,0.01959605
3273.18611206,0.01958579
3275.11491943,0.01953448
3277.04372681,0.01944638
3278.97253418,0.01942868
3280.90134155,0.01954929
3282.83014893,0.01950781
3284.75895630,0.01936106
3286.68776367,0.01930790
3288.61657104,0.01932290
3290.54537842,0.01932021
3292.47418579,0.01932669
3294.40299316,0.01921167
3296.33180054,0.01920242
3298.26060791,0.01922057
3300.18941528,0.01915225
3302.11822266,0.01913658
3304.04703003,0.01908784
3305.97583740,0.01912392
3307.90464478,0.01906002
3309.83345215,0.01902730
3311.76225952,0.01897312
3313.69106689,0.01893586
3315.61987427,0.01906130
3317.54868164,0.01893996
3319.47748901,0.01891169
3321.40629639,0.01897608
3323.33510376,0.01885775
3325.26391113,0.01876643
3327.19271851,0.01881137
3329.12152588,0.01881623
3331.05033325,0.01873275
3332.97914062,0.01872219
3334.90794800,0.01864202
3336.83675537,0.01860381
3338.76556274,0.01860812
3340.69437012,0.01858930
3342.62317749,0.01856854
3344.55198486,0.01854506
3346.48079224,0.01857153
3348.40959961,0.01854872
3350.33840698,0.01851440
3352.26721436,0.01850337
3354.19602173,0.01848505
3356.12482910,0.01832788
3358.05363647,0.01828236
3359.98244385,0.01830054
3361.91125122,0.01824608
3363.84005859,0.01833810
3365.76886597,0.01824323
3367.69767334,0.01806973
3369.62648071,0.01808316
3371.55528809,0.01815633
3373.48409546,0.01806522
3375.41290283,0.01802819
3377.34171020,0.01805734
3379.27051758,0.01793308
3381.19932495,0.01793635
3383.12813232,0.01791919
3385.05693970,0.01793828
3386.98574707,0.01780904
3388.91455444,0.01781301
3390.84336182,0.01788157
3392.77216919,0.01760274
3394.70097656,0.01767648
3396.62978394,0.01763650
3398.55859131,0.01757813
3400.48739868,0.01754430
3402.41620605,0.01745901
3404.34501343,0.01763068
3406.27382080,0.01749638
3408.20262817,0.01741189
3410.13143555,0.01732903
3412.06024292,0.01738523
3413.98905029,0.01745147
3415.91785767,0.01730698
3417.84666504,0.01733013
3419.77547241,0.01715683
3421.70427979,0.01715410
3423.63308716,0.01718747
3425.56189453,0.01712042
3427.49070190,0.01715814
3429.41950928,0.01709387
3431.34831665,0.01702637
3433.27712402,0.01705567
3435.20593140,0.01700994
3437.13473877,0.01682992
3439.06354614,0.01693203
3440.99235352,0.01681725
3442.92116089,0.01678950
3444.84996826,0.01695116
3446.77877563,0.01661130
3448.70758301,0.01662773
3450.63639038,0.01685560
3452.56519775,0.01676922
3454.49400513,0.01664248
3456.42281250,0.01664494
3458.35161987,0.01669931
3460.28042725,0.01660984
3462.20923462,0.01648577
3464.13804199,0.01662091
3466.06684937,0.01666696
3467.99565674,0.01644165
3469.92446411,0.01660880
3471.85327148,0.01654780
3473.78207886,0.01637875
3475.71088623,0.01639755
3477.63969360,0.01636330
3479.56850098,0.01644695
3481.49730835,0.01616701
3483.42611572,0.01622483
3485.35492310,0.01633653
3487.28373047,0.01627042
3489.21253784,0.01630798
3491.14134521,0.01623305
3493.07015259,0.01640630
3494.99895996,0.01620005
3496.92776733,0.01612893
3498.85657471,0.01628032
3500.78538208,0.01613894
3502.71418945,0.01585765
3504.64299683,0.01587531
3506.57180420,0.01628209
3508.50061157,0.01596744
3510.42941895,0.01587445
3512.35822632,0.01610710
3514.28703369,0.01612790
3516.21584106,0.01623627
3518.14464844,0.01605592
3520.07345581,0.01608065
3522.00226318,0.01595398
3523.93107056,0.01567460
3525.85987793,0.01573193
3527.78868530,0.01579257
3529.71749268,0.01579676
3531.64630005,0.01596696
3533.57510742,0.01613742
3535.50391479,0.01587868
3537.43272217,0.01576054
3539.36152954,0.01599161
3541.29033691,0.01598728
3543.21914429,0.01576710
3545.14795166,0.01537778
3547.07675903,0.01510094
3549.00556641,0.01574703
3550.93437378,0.01586743
3552.86318115,0.01538173
3554.79198853,0.01586094
3556.72079590,0.01597537
3558.64960327,0.01589353
3560.57841064,0.01565518
3562.50721802,0.01558026
3564.43602539,0.01578870
3566.36483276,0.01451498
3568.29364014,0.01414052
3570.22244751,0.01544483
3572.15125488,0.01593321
3574.08006226,0.01566329
3576.00886963,0.01570258
3577.93767700,0.01569411
3579.86648437,0.01561249
3581.79529175,0.01566298
3583.72409912,0.01569558
3585.65290649,0.01536539
3587.58171387,0.01383200
3589.51052124,0.01422440
3591.43932861,0.01578254
3593.36813599,0.01522477
3595.29694336,0.01497412
3597.22575073,0.01533844
3599.15455811,0.01541347
3601.08336548,0.01522275
3603.01217285,0.01542293
3604.94098022,0.01568499
3606.86978760,0.01504768
3608.79859497,0.01413708
3610.72740234,0.01449701
3612.65620972,0.01484654
3614.58501709,0.01425542
3616.51382446,0.01550337
3618.44263184,0.01413557
3620.37143921,0.01346081
3622.30024658,0.01561104
3624.22905395,0.01509032
3626.15786133,0.01591409
3628.08666870,0.01307761
3630.01547607,0.01163536
3631.94428345,0.01540853
3633.87309082,0.01496638
3635.80189819,0.01528578
3637.73070557,0.01562927
3639.65951294,0.01532333
3641.58832031,0.01548481
3643.51712769,0.01528937
3645.44593506,0.01536410
3647.37474243,0.01341840
3649.30354980,0.01225893
3651.23235718,0.01245079
3653.16116455,0.01522713
3655.08997192,0.01497655
3657.01877930,0.01304535
3658.94758667,0.01549811
3660.87639404,0.01519682
3662.80520142,0.01539598
3664.73400879,0.01533329
3666.66281616,0.01524414
3668.59162354,0.01461705
3670.52043091,0.01151074
3672.44923828,0.01452752
3674.37804565,0.01355367
3676.30685303,0.01087842
3678.23566040,0.01428362
3680.16446777,0.01460277
3682.09327515,0.01476720
3684.02208252,0.01531948
3685.95088989,0.01499649
3687.87969727,0.01329115
3689.80850464,0.01198893
3691.73731201,0.01390299
3693.66611938,0.01448807
3695.59492676,0.01483153
3697.52373413,0.01476788
3699.45254150,0.01476097
3701.38134888,0.01424266
3703.31015625,0.01356880
3705.23896362,0.01523920
3707.16777100,0.01438439
3709.09657837,0.01386782
3711.02538574,0.01287656
3712.95419312,0.01190155
3714.88300049,0.01438241
3716.81180786,0.01422702
3718.74061523,0.01434007
3720.66942261,0.01411717
3722.59822998,0.01352198
3724.52703735,0.01397227
3726.45584473,0.01283746
3728.38465210,0.01415137
3730.31345947,0.01403031
3732.24226685,0.01263367
3734.17107422,0.01226086
3736.09988159,0.01148151
3738.02868896,0.01233111
3739.95749634,0.01368445
3741.88630371,0.01429571
3743.81511108,0.01065941
3745.74391846,0.00994513
3747.67272583,0.01342997
3749.60153320,0.01124678
3751.53034058,0.01023909
3753.45914795,0.01217647
3755.38795532,0.01322813
3757.31676270,0.01384087
3759.24557007,0.01259055
3761.17437744,0.01303650
3763.10318481,0.01413414
3765.03199219,0.01310779
3766.96079956,0.01333274
3768.88960693,0.01313744
3770.81841431,0.01244850
3772.74722168,0.01372031
3774.67602905,0.01378448
3776.60483643,0.01371329
3778.53364380,0.01332713
3780.46245117,0.01270138
3782.39125854,0.01367994
3784.32006592,0.01336536
3786.24887329,0.01315749
3788.17768066,0.01356966
3790.10648804,0.01357314
3792.03529541,0.01336543
3793.96410278,0.01359515
3795.89291016,0.01266935
3797.82171753,0.01243058
3799.75052490,0.01327197
3801.67933228,0.01017760
3803.60813965,0.01217760
3805.53694702,0.01331794
3807.46575439,0.01052874
3809.39456177,0.01330505
3811.32336914,0.01294314
3813.25217651,0.01345366
3815.18098389,0.01201512
3817.10979126,0.01028697
3819.03859863,0.01347035
3820.96740601,0.01036897
3822.89621338,0.01111625
3824.82502075,0.01335792
3826.75382812,0.01187344
3828.68263550,0.01298541
3830.61144287,0.01228858
3832.54025024,0.01192230
3834.46905762,0.01222903
3836.39786499,0.01148455
3838.32667236,0.01021465
3840.25547974,0.01117197
3842.18428711,0.01222184
3844.11309448,0.01159847
3846.04190186,0.01276329
3847.97070923,0.01242001
3849.89951660,0.01239290
3851.82832397,0.01100178
3853.75713135,0.00789698
3855.68593872,0.00969200
3857.61474609,0.01238265
3859.54355347,0.01215506
3861.47236084,0.01193632
3863.40116821,0.01159690
3865.32997559,0.01075619
3867.25878296,0.01218444
3869.18759033,0.01105824
3871.11639770,0.01000890
3873.04520508,0.01224163
3874.97401245,0.01113093
3876.90281982,0.01211575
3878.83162720,0.01238086
3880.76043457,0.01024537
3882.68924194,0.01214845
3884.61804932,0.01127024
3886.54685669,0.01018308
3888.47566406,0.01231690
3890.40447144,0.01156655
3892.33327881,0.01059892
3894.26208618,0.01184468
3896.19089355,0.01220952
3898.11970093,0.01139999
3900.04850830,0.01066302
3901.97731567,0.01054992
3903.90612305,0.01042184
3905.83493042,0.01060817
3907.76373779,0.01176271
3909.69254517,0.01185854
3911.62135254,0.01174797
3913.55015991,0.01196126
3915.47896728,0.01146076
3917.40777466,0.01106658
3919.33658203,0.01099316
3921.26538940,0.01150481
3923.19419678,0.01141441
3925.12300415,0.01110599
3927.05181152,0.01139173
3928.98061890,0.01154158
3930.90942627,0.01129569
3932.83823364,0.01085234
3934.76704102,0.01130530
3936.69584839,0.01143263
3938.62465576,0.01141402
3940.55346313,0.01151008
3942.48227051,0.01092376
3944.41107788,0.01108784
3946.33988525,0.01128877
3948.26869263,0.01102984
3950.19750000,0.01098409
3952.12630737,0.01110878
3954.05511475,0.01122933
3955.98392212,0.01118187
3957.91272949,0.01121910
3959.84153687,0.01120593
3961.77034424,0.01105908
3963.69915161,0.01098429
3965.62795898,0.01108744
3967.55676636,0.01113294
3969.48557373,0.01100502
3971.41438110,0.01088013
3973.34318848,0.01098927
3975.27199585,0.01091032
3977.20080322,0.01085523
3979.12961060,0.01108907
3981.05841797,0.01083555
3982.98722534,0.01083063
3984.91603271,0.01087926
3986.84484009,0.01072635
3988.77364746,0.01080493
3990.70245483,0.01067660
3992.63126221,0.01068059
3994.56006958,0.01066516
3996.48887695,0.01072379
3998.41768433,0.01077426
4000.34649170,0.01069770
4002.27529907,0.01071467
4004.20410645,0.01066636
4006.13291382,0.01068586
4008.06172119,0.01056404
4009.99052856,0.01054145
4011.91933594,0.01053343
4013.84814331,0.01050290
4015.77695068,0.01052335
4017.70575806,0.01042873
4019.63456543,0.01042722
4021.56337280,0.01035152
4023.49218018,0.01032735
4025.42098755,0.01031726
4027.34979492,0.01038287
4029.27860229,0.01034478
4031.20740967,0.01018877
4033.13621704,0.01029413
4035.06502441,0.01028308
4036.99383179,0.01021377
4038.92263916,0.01018910
4040.85144653,0.01026182
4042.78025391,0.01026980
4044.70906128,0.01009983
4046.63786865,0.01005084
4048.56667603,0.01009504
4050.49548340,0.01013960
4052.42429077,0.01008994
4054.35309814,0.01004807
4056.28190552,0.01003234
4058.21071289,0.01004494
4060.13952026,0.00997639
4062.06832764,0.00991253
4063.99713501,0.00990591
4065.92594238,0.00987396
4067.85474976,0.00991937
4069.78355713,0.00986528
4071.71236450,0.00988696
4073.64117187,0.00984886
4075.56997925,0.00980189
4077.49878662,0.00979590
4079.42759399,0.00971304
4081.35640137,0.00976027
4083.28520874,0.00968340
4085.21401611,0.00964482
4087.14282349,0.00959684
4089.07163086,0.00962318
4091.00043823,0.00964043
4092.92924561,0.00954139
4094.85805298,0.00962534
4096.78686035,0.00956997
4098.71566772,0.00957537
4100.64447510,0.00947546
4102.57328247,0.00935987
4104.50208984,0.00945587
4106.43089722,0.00938767
4108.35970459,0.00937082
4110.28851196,0.00942956
4112.21731934,0.00941174
4114.14612671,0.00929773
4116.07493408,0.00929508
4118.00374145,0.00927900
4119.93254883,0.00928776
4121.86135620,0.00934105
4123.79016357,0.00920288
4125.71897095,0.00917579
4127.64777832,0.00924616
4129.57658569,0.00928758
4131.50539307,0.00916862
4133.43420044,0.00910717
4135.36300781,0.00908543
4137.29181519,0.00905988
4139.22062256,0.00917405
4141.14942993,0.00911591
4143.07823730,0.00897896
4145.00704468,0.00891283
4146.93585205,0.00909662
4148.86465942,0.00903753
4150.79346680,0.00892339
4152.72227417,0.00900695
4154.65108154,0.00884251
4156.57988892,0.00890337
4158.50869629,0.00888580
4160.43750366,0.00888571
4162.36631103,0.00881440
4164.29511841,0.00868600
4166.22392578,0.00883309
4168.15273315,0.00873048
4170.08154053,0.00876120
4172.01034790,0.00865804
4173.93915527,0.00855244
4175.86796265,0.00870105
4177.79677002,0.00867563
4179.72557739,0.00869251
4181.65438477,0.00867422
4183.58319214,0.00859805
4185.51199951,0.00852203
4187.44080688,0.00853823
4189.36961426,0.00845927
4191.29842163,0.00846684
4193.22722900,0.00850866
4195.15603638,0.00836458
4197.08484375,0.00842739
4199.01365112,0.00848099
4200.94245850,0.00850416
4202.87126587,0.00842964
4204.80007324,0.00836941
4206.72888062,0.00832629
4208.65768799,0.00826695
4210.58649536,0.00830254
4212.51530273,0.00823577
4214.44411011,0.00828936
4216.37291748,0.00821208
4218.30172485,0.00818384
4220.23053223,0.00816043
4222.15933960,0.00813441
4224.08814697,0.00830647
4226.01695435,0.00817032
4227.94576172,0.00812398
4229.87456909,0.00813312
4231.80337646,0.00811869
4233.73218384,0.00814202
4235.66099121,0.00808033
4237.58979858,0.00805285
4239.51860596,0.00797371
4241.44741333,0.00799069
4243.37622070,0.00799566
4245.30502808,0.00796857
4247.23383545,0.00789947
4249.16264282,0.00797199
4251.09145020,0.00796880
4253.02025757,0.00780393
4254.94906494,0.00788369
4256.87787231,0.00784938
4258.80667969,0.00784747
4260.73548706,0.00782348
4262.66429443,0.00780863
4264.59310181,0.00783790
4266.52190918,0.00767684
4268.45071655,0.00769226
4270.37952393,0.00773696
4272.30833130,0.00769892
4274.23713867,0.00764804
4276.16594604,0.00763494
4278.09475342,0.00759688
4280.02356079,0.00760328
4281.95236816,0.00764095
4283.88117554,0.00756960
4285.80998291,0.00755841
4287.73879028,0.00756492
4289.66759766,0.00760527
4291.59640503,0.00748032
4293.52521240,0.00748556
4295.45401978,0.00755674
4297.38282715,0.00743156
4299.31163452,0.00744560
4301.24044189,0.00740433
4303.16924927,0.00736319
4305.09805664,0.00732360
4307.02686401,0.00741967
4308.95567139,0.00739559
4310.88447876,0.00731682
4312.81328613,0.00740827
4314.74209351,0.00725384
4316.67090088,0.00729658
4318.59970825,0.00726370
4320.52851562,0.00718525
4322.45732300,0.00725071
4324.38613037,0.00725791
4326.31493774,0.00722556
4328.24374512,0.00706872
4330.17255249,0.00721511
4332.10135986,0.00716607
4334.03016724,0.00708218
4335.95897461,0.00715725
4337.88778198,0.00704887
4339.81658936,0.00706366
4341.74539673,0.00700907
4343.67420410,0.00705800
4345.60301147,0.00706462
4347.53181885,0.00699899
4349.46062622,0.00699209
4351.38943359,0.00694725
4353.31824097,0.00698364
4355.24704834,0.00695699
4357.17585571,0.00693868
4359.10466309,0.00690630
4361.03347046,0.00691662
4362.96227783,0.00687250
4364.89108520,0.00684051
4366.81989258,0.00688368
4368.74869995,0.00684700
4370.67750732,0.00684980
4372.60631470,0.00674990
4374.53512207,0.00670477
4376.46392944,0.00673721
4378.39273682,0.00671762
4380.32154419,0.00670845
4382.25035156,0.00675132
4384.17915894,0.00672485
4386.10796631,0.00666675
4388.03677368,0.00670704
4389.96558105,0.00663789
4391.89438843,0.00665061
4393.82319580,0.00661507
4395.75200317,0.00660609
4397.68081055,0.00660965
4399.60961792,0.00649650
4401.53842529,0.00658170
4403.46723267,0.00653178
4405.39604004,0.00651149
4407.32484741,0.00650307
4409.25365478,0.00643410
4411.18246216,0.00645697
4413.11126953,0.00643468
4415.04007690,0.00647610
4416.96888428,0.00640077
4418.89769165,0.00635115
4420.82649902,0.00641628
4422.75530640,0.00646392
4424.68411377,0.00639635
4426.61292114,0.00635733
4428.54172852,0.00637836
4430.47053589,0.00631537
4432.39934326,0.00630945
4434.32815063,0.00620927
4436.25695801,0.00621107
4438.18576538,0.00620805
4440.11457275,0.00621349
4442.04338013,0.00618310
4443.97218750,0.00608254
4445.90099487,0.00625107
4447.82980225,0.00617376
4449.75860962,0.00617417
4451.68741699,0.00620514
4453.61622437,0.00606744
4455.54503174,0.00614949
4457.47383911,0.00615316
4459.40264648,0.00606335
4461.33145386,0.00596300
4463.26026123,0.00605808
4465.18906860,0.00609184
4467.11787598,0.00600152
4469.04668335,0.00590505
4470.97549072,0.00593103
4472.90429810,0.00607354
4474.83310547,0.00588244
4476.76191284,0.00590125
4478.69072021,0.00589567
4480.61952759,0.00584696
4482.54833496,0.00593140
4484.47714233,0.00576642
4486.40594971,0.00586422
4488.33475708,0.00592338
4490.26356445,0.00578750
4492.19237183,0.00579045
4494.12117920,0.00580561
4496.04998657,0.00571103
4497.97879395,0.00574458
4499.90760132,0.00584457
4501.83640869,0.00573057
4503.76521606,0.00572954
4505.69402344,0.00573712
4507.62283081,0.00572608
4509.55163818,0.00567561
4511.48044556,0.00567770
4513.40925293,0.00571936
4515.33806030,0.00566750
4517.26686768,0.00573121
4519.19567505,0.00559685
4521.12448242,0.00557155
4523.05328979,0.00558658
4524.98209717,0.00552056
4526.91090454,0.00557904
4528.83971191,0.00549028
4530.76851929,0.00553151
4532.69732666,0.00552858
4534.62613403,0.00546975
4536.55494141,0.00549910
4538.48374878,0.00544902
4540.41255615,0.00536140
4542.34136353,0.00536791
4544.27017090,0.00547393
4546.19897827,0.00541231
4548.12778564,0.00537589
4550.05659302,0.00541507
4551.98540039,0.00540677
4553.91420776,0.00532577
4555.84301514,0.00529777
4557.77182251,0.00529560
4559.70062988,0.00524664
4561.62943726,0.00532086
4563.55824463,0.00532944
4565.48705200,0.00537631
4567.41585937,0.00525066
4569.34466675,0.00517137
4571.27347412,0.00528264
4573.20228149,0.00517257
4575.13108887,0.00523107
4577.05989624,0.00524017
4578.98870361,0.00523589
4580.91751099,0.00520915
4582.84631836,0.00507191
4584.77512573,0.00513447
4586.70393311,0.00510275
4588.63274048,0.00509723
4590.56154785,0.00509939
4592.49035522,0.00511019
4594.41916260,0.00508591
4596.34796997,0.00496942
4598.27677734,0.00503250
4600.20558472,0.00505268
4602.13439209,0.00499953
4604.06319946,0.00494943
4605.99200684,0.00493544
4607.92081421,0.00492293
4609.84962158,0.00491331
4611.77842895,0.00497711
4613.70723633,0.00493430
4615.63604370,0.00488777
4617.56485107,0.00499640
4619.49365845,0.00501607
4621.42246582,0.00485508
4623.35127319,0.00484738
4625.28008057,0.00489829
4627.20888794,0.00483652
4629.13769531,0.00482686
4631.06650269,0.00484426
4632.99531006,0.00482849
4634.92411743,0.00480304
4636.85292480,0.00477192
4638.78173218,0.00473315
4640.71053955,0.00474576
4642.63934692,0.00470333
4644.56815430,0.00471721
4646.49696167,0.00478739
4648.42576904,0.00475202
4650.35457642,0.00472187
4652.28338379,0.00467471
4654.21219116,0.00473100
4656.14099853,0.00470275
4658.06980591,0.00461427
4659.99861328,0.00467775
4661.92742065,0.00465389
4663.85622803,0.00461250
4665.78503540,0.00465892
4667.71384277,0.00466625
4669.64265015,0.00454140
4671.57145752,0.00455743
4673.50026489,0.00456294
4675.42907227,0.00450694
4677.35787964,0.00460474
4679.28668701,0.00454935
4681.21549438,0.00448596
4683.14430176,0.00445024
4685.07310913,0.00448371
4687.00191650,0.00450992
4688.93072388,0.00446795
4690.85953125,0.00446684
4692.78833862,0.00435429
4694.71714600,0.00445842
4696.64595337,0.00445883
4698.57476074,0.00434408
4700.50356812,0.00443470
4702.43237549,0.00444810
4704.36118286,0.00444771
4706.28999023,0.00438211
4708.21879761,0.00436244
4710.14760498,0.00434352
4712.07641235,0.00430731
4714.00521973,0.00430729
4715.93402710,0.00430583
4717.86283447,0.00438482
4719.79164185,0.00428720
4721.72044922,0.00424530
4723.64925659,0.00432964
4725.57806396,0.00427170
4727.50687134,0.00425441
4729.43567871,0.00431215
4731.36448608,0.00424372
4733.29329346,0.00415935
4735.22210083,0.00420359
4737.15090820,0.00416696
4739.07971558,0.00415666
4741.00852295,0.00415627
4742.93733032,0.00411857
4744.86613770,0.00422043
4746.79494507,0.00421470
4748.72375244,0.00409681
4750.65255981,0.00407823
4752.58136719,0.00408554
4754.51017456,0.00410693
4756.43898193,0.00412840
4758.36778931,0.00409108
4760.29659668,0.00410321
4762.22540405,0.00407551
4764.15421143,0.00402128
4766.08301880,0.00399890
4768.01182617,0.00397112
4769.94063354,0.00401772
4771.86944092,0.00393877
4773.79824829,0.00394058
4775.72705566,0.00402893
4777.65586304,0.00394386
4779.58467041,0.00389959
4781.51347778,0.00393576
4783.44228516,0.00396836
4785.37109253,0.00392917
4787.29989990,0.00392891
4789.22870728,0.00382384
4791.15751465,0.00384735
4793.08632202,0.00399242
4795.01512939,0.00379957
4796.94393677,0.00380930
4798.87274414,0.00382686
4800.80155151,0.00377864
4802.73035889,0.00387693
4804.65916626,0.00375021
4806.58797363,0.00375633
4808.51678101,0.00381725
4810.44558838,0.00377813
4812.37439575,0.00382159
4814.30320312,0.00380831
4816.23201050,0.00374838
4818.16081787,0.00373687
4820.08962524,0.00376190
4822.01843262,0.00377653
4823.94723999,0.00379612
4825.87604736,0.00374638
4827.80485474,0.00369238
4829.73366211,0.00373544
4831.66246948,0.00371508
4833.59127686,0.00362520
4835.52008423,0.00366359
4837.44889160,0.00366203
4839.37769897,0.00360930
4841.30650635,0.00365110
4843.23531372,0.00358879
4845.16412109,0.00359660
4847.09292847,0.00361133
4849.02173584,0.00359219
4850.95054321,0.00362299
4852.87935059,0.00356014
4854.80815796,0.00360059
4856.73696533,0.00359851
4858.66577270,0.00356488
4860.59458008,0.00355869
4862.52338745,0.00349628
4864.45219482,0.00348057
4866.38100220,0.00348740
4868.30980957,0.00351978
4870.23861694,0.00345491
4872.16742432,0.00344088
4874.09623169,0.00349450
4876.02503906,0.00350790
4877.95384644,0.00348745
4879.88265381,0.00346505
4881.81146118,0.00346769
4883.74026855,0.00336639
4885.66907593,0.00340797
4887.59788330,0.00338044
4889.52669067,0.00331449
4891.45549805,0.00342285
4893.38430542,0.00341845
4895.31311279,0.00348228
4897.24192017,0.00344432
4899.17072754,0.00336941
4901.09953491,0.00337230
4903.02834228,0.00330213
4904.95714966,0.00332518
4906.88595703,0.00328549
4908.81476440,0.00329868
4910.74357178,0.00332487
4912.67237915,0.00325810
4914.60118652,0.00327605
4916.52999390,0.00324161
4918.45880127,0.00325134
4920.38760864,0.00328046
4922.31641602,0.00322687
4924.24522339,0.00324816
4926.17403076,0.00324467
4928.10283813,0.00320864
4930.03164551,0.00316755
4931.96045288,0.00314605
4933.88926025,0.00322356
4935.81806763,0.00319915
4937.74687500,0.00316498
4939.67568237,0.00317589
4941.60448975,0.00312945
4943.53329712,0.00313324
4945.46210449,0.00312941
4947.39091187,0.00313890
4949.31971924,0.00311370
4951.24852661,0.00310526
4953.17733398,0.00315605
4955.10614136,0.00311889
4957.03494873,0.00308672
4958.96375610,0.00306651
4960.89256348,0.00304970
4962.82137085,0.00304740
4964.75017822,0.00302865
4966.67898560,0.00297654
4968.60779297,0.00297703
4970.53660034,0.00303512
4972.46540771,0.00306156
4974.39421509,0.00308030
4976.32302246,0.00303949
4978.25182983,0.00300514
4980.18063721,0.00293420
4982.10944458,0.00296843
4984.03825195,0.00302300
4985.96705933,0.00289283
4987.89586670,0.00291586
4989.82467407,0.00293207
4991.75348145,0.00289327
4993.68228882,0.00287128
4995.61109619,0.00287270
4997.53990356,0.00292361
4999.46871094,0.00292112
5001.39751831,0.00300205
5003.32632568,0.00289622
5005.25513306,0.00279013
5007.18394043,0.00287584
5009.11274780,0.00286932
5011.04155518,0.00283015
5012.97036255,0.00281390
5014.89916992,0.00287703
5016.82797729,0.00280706
5018.75678467,0.00273364
5020.68559204,0.00279301
5022.61439941,0.00282757
5024.54320679,0.00282308
5026.47201416,0.00271493
5028.40082153,0.00272517
5030.32962891,0.00276355
5032.25843628,0.00277482
5034.18724365,0.00277940
5036.11605103,0.00272688
5038.04485840,0.00277930
5039.97366577,0.00275718
5041.90247314,0.00275331
5043.83128052,0.00277216
5045.76008789,0.00267169
5047.68889526,0.00267620
5049.61770264,0.00272174
5051.54651001,0.00272903
5053.47531738,0.00271388
5055.40412476,0.00264742
5057.33293213,0.00262588
5059.26173950,0.00263442
5061.19054687,0.00259622
5063.11935425,0.00255200
5065.04816162,0.00260019
5066.97696899,0.00266373
5068.90577637,0.00260156
5070.83458374,0.00262905
5072.76339111,0.00268601
5074.69219849,0.00262114
5076.62100586,0.00261308
5078.54981323,0.00255647
5080.47862061,0.00256786
5082.40742798,0.00259598
5084.33623535,0.00250522
5086.26504272,0.00254707
5088.19385010,0.00255483
5090.12265747,0.00256268
5092.05146484,0.00262211
5093.98027222,0.00256064
5095.90907959,0.00251140
5097.83788696,0.00249348
5099.76669434,0.00249095
5101.69550171,0.00246177
5103.62430908,0.00244685
5105.55311645,0.00249948
5107.48192383,0.00246104
5109.41073120,0.00245902
5111.33953857,0.00247355
5113.26834595,0.00241633
5115.19715332,0.00246431
5117.12596069,0.00243830
5119.05476807,0.00243117
5120.98357544,0.00247605
5122.91238281,0.00240680
5124.84119019,0.00243820
5126.76999756,0.00239988
5128.69880493,0.00236825
5130.62761230,0.00239936
5132.55641968,0.00235434
5134.48522705,0.00240958
5136.41403442,0.00240929
5138.34284180,0.00239179
5140.27164917,0.00240077
5142.20045654,0.00234961
5144.12926392,0.00228565
5146.05807129,0.00227490
5147.98687866,0.00232105
5149.91568603,0.00230794
5151.84449341,0.00233425
5153.77330078,0.00234017
5155.70210815,0.00229498
5157.63091553,0.00225810
5159.55972290,0.00228990
5161.48853027,0.00232260
5163.41733765,0.00222408
5165.34614502,0.00222180
5167.27495239,0.00228478
5169.20375977,0.00230682
5171.13256714,0.00226454
5173.06137451,0.00230594
5174.99018188,0.00231894
5176.91898926,0.00219111
5178.84779663,0.00227611
5180.77660400,0.00225251
5182.70541138,0.00214794
5184.63421875,0.00215776
5186.56302612,0.00215562
5188.49183350,0.00219132
5190.42064087,0.00211572
5192.34944824,0.00211871
5194.27825562,0.00217478
5196.20706299,0.00215723
5198.13587036,0.00218321
5200.06467773,0.00220801
5201.99348511,0.00218135
5203.92229248,0.00215446
5205.85109985,0.00211653
5207.77990723,0.00201758
5209.70871460,0.00207411
5211.63752197,0.00210348
5213.56632935,0.00208764
5215.49513672,0.00216475
5217.42394409,0.00208417
5219.35275146,0.00205310
5221.28155884,0.00216339
5223.21036621,0.00213769
5225.13917358,0.00201768
5227.06798096,0.00206888
5228.99678833,0.00207206
5230.92559570,0.00198499
5232.85440308,0.00203969
5234.78321045,0.00206138
5236.71201782,0.00206255
5238.64082520,0.00198856
5240.56963257,0.00197565
5242.49843994,0.00204931
5244.42724731,0.00200322
5246.35605469,0.00200549
5248.28486206,0.00197219
5250.21366943,0.00194978
5252.14247681,0.00202558
5254.07128418,0.00199694
5256.00009155,0.00196575
5257.92889893,0.00200446
5259.85770630,0.00195753
5261.78651367,0.00200723
5263.71532104,0.00199511
5265.64412842,0.00184562
5267.57293579,0.00194190
5269.50174316,0.00194687
5271.43055054,0.00192112
5273.35935791,0.00195151
5275.28816528,0.00192717
5277.21697266,0.00197158
5279.14578003,0.00188993
5281.07458740,0.00193402
5283.00339478,0.00195125
5284.93220215,0.00189271
5286.86100952,0.00191126
5288.78981689,0.00187382
5290.71862427,0.00188332
5292.64743164,0.00181440
5294.57623901,0.00190289
5296.50504639,0.00195829
5298.43385376,0.00187617
5300.36266113,0.00189829
5302.29146851,0.00187187
5304.22027588,0.00196372
5306.14908325,0.00190993
5308.07789062,0.00179834
5310.00669800,0.00188027
5311.93550537,0.00184921
5313.86431274,0.00182677
5315.79312012,0.00187307
5317.72192749,0.00183683
5319.65073486,0.00178867
5321.57954224,0.00182537
5323.50834961,0.00184005
5325.43715698,0.00182443
5327.36596436,0.00176701
5329.29477173,0.00174430
5331.22357910,0.00179994
5333.15238647,0.00176375
5335.08119385,0.00176959
5337.01000122,0.00174276
5338.93880859,0.00169106
5340.86761597,0.00176989
5342.79642334,0.00180264
5344.72523071,0.00169788
5346.65403809,0.00162116
5348.58284546,0.00173755
5350.51165283,0.00173783
5352.44046020,0.00165281
5354.36926758,0.00165460
5356.29807495,0.00163023
5358.22688232,0.00173170
5360.15568970,0.00174095
5362.08449707,0.00167560
5364.01330444,0.00171498
5365.94211182,0.00169021
5367.87091919,0.00171440
5369.79972656,0.00170912
5371.72853394,0.00169736
5373.65734131,0.00173936
5375.58614868,0.00166716
5377.51495605,0.00162778
5379.44376343,0.00164286
5381.37257080,0.00169801
5383.30137817,0.00172149
5385.23018555,0.00159768
5387.15899292,0.00156279
5389.08780029,0.00165517
5391.01660767,0.00167438
5392.94541504,0.00160112
5394.87422241,0.00155989
5396.80302978,0.00157588
5398.73183716,0.00165677
5400.66064453,0.00167445
5402.58945190,0.00158777
5404.51825928,0.00160750
5406.44706665,0.00159290
5408.37587402,0.00153334
5410.30468140,0.00154641
5412.23348877,0.00156578
5414.16229614,0.00150434
5416.09110352,0.00144582
5418.01991089,0.00156178
5419.94871826,0.00159305
5421.87752563,0.00157456
5423.80633301,0.00156920
5425.73514038,0.00150335
5427.66394775,0.00150961
5429.59275513,0.00148383
5431.52156250,0.00150288
5433.45036987,0.00155300
5435.37917725,0.00153133
5437.30798462,0.00155581
5439.23679199,0.00157968
5441.16559936,0.00145801
5443.09440674,0.00144181
5445.02321411,0.00152651
5446.95202148,0.00146850
5448.88082886,0.00149474
5450.80963623,0.00145540
5452.73844360,0.00148532
5454.66725098,0.00150504
5456.59605835,0.00136286
5458.52486572,0.00142672
5460.45367310,0.00139947
5462.38248047,0.00144632
5464.31128784,0.00148035
5466.24009521,0.00147138
5468.16890259,0.00153869
5470.09770996,0.00140039
5472.02651733,0.00148946
5473.95532471,0.00147528
5475.88413208,0.00135980
5477.81293945,0.00145372
5479.74174683,0.00144440
5481.67055420,0.00141958
5483.59936157,0.00138203
5485.52816895,0.00138988
5487.45697632,0.00139381
5489.38578369,0.00139500
5491.31459106,0.00134503
5493.24339844,0.00135596
5495.17220581,0.00141806
5497.10101318,0.00130873
5499.02982056,0.00135991
5500.95862793,0.00142948
5502.88743530,0.00139006
5504.81624268,0.00131526
5506.74505005,0.00132173
5508.67385742,0.00140473
5510.60266479,0.00136959
5512.53147217,0.00138247
5514.46027954,0.00132328
5516.38908691,0.00130897
5518.31789429,0.00133349
5520.24670166,0.00129586
5522.17550903,0.00135243
5524.10431641,0.00136060
5526.03312378,0.00132082
5527.96193115,0.00127960
5529.89073853,0.00129923
5531.81954590,0.00131857
5533.74835327,0.00130409
5535.67716064,0.00127624
5537.60596802,0.00127859
5539.53477539,0.00131600
5541.46358276,0.00127588
5543.39239014,0.00124270
5545.32119751,0.00125708
5547.25000488,0.00134715
5549.17881226,0.00132627
5551.10761963,0.00131068
5553.03642700,0.00132357
5554.96523437,0.00123376
5556.89404175,0.00129043
5558.82284912,0.00128115
5560.75165649,0.00126748
5562.68046387,0.00127226
5564.60927124,0.00120568
5566.53807861,0.00119751
5568.46688599,0.00123510
5570.39569336,0.00129841
5572.32450073,0.00123447
5574.25330811,0.00120669
5576.18211548,0.00121270
5578.11092285,0.00123510
5580.03973022,0.00124684
5581.96853760,0.00125126
5583.89734497,0.00129393
5585.82615234,0.00120716
5587.75495972,0.00118848
5589.68376709,0.00114979
5591.61257446,0.00119024
5593.54138184,0.00117984
5595.47018921,0.00112198
5597.39899658,0.00127761
5599.32780395,0.00120794
5601.25661133,0.00118311
5603.18541870,0.00121531
5605.11422607,0.00122474
5607.04303345,0.00124639
5608.97184082,0.00116063
5610.90064819,0.00119686
5612.82945557,0.00116142
5614.75826294,0.00120126
5616.68707031,0.00122320
5618.61587769,0.00115545
5620.54468506,0.00118441
5622.47349243,0.00117258
5624.40229980,0.00115949
5626.33110718,0.00109769
5628.25991455,0.00113434
5630.18872192,0.00118545
5632.11752930,0.00116056
5634.04633667,0.00111858
5635.97514404,0.00110329
5637.90395142,0.00111843
5639.83275879,0.00107154
5641.76156616,0.00115341
5643.69037353,0.00115361
5645.61918091,0.00112700
5647.54798828,0.00115498
5649.47679565,0.00110445
5651.40560303,0.00115820
5653.33441040,0.00114101
5655.26321777,0.00109345
5657.19202515,0.00113177
5659.12083252,0.00114004
5661.04963989,0.00110685
5662.97844727,0.00107849
5664.90725464,0.00105025
5666.83606201,0.00108173
5668.76486938,0.00112155
5670.69367676,0.00107297
5672.62248413,0.00110615
5674.55129150,0.00108102
5676.48009888,0.00107924
5678.40890625,0.00107278
5680.33771362,0.00098758
5682.26652100,0.00105698
5684.19532837,0.00103414
5686.12413574,0.00104395
5688.05294311,0.00109241
5689.98175049,0.00104589
5691.91055786,0.00104319
5693.83936523,0.00103927
5695.76817261,0.00104458
5697.69697998,0.00102211
5699.62578735,0.00105986
5701.55459473,0.00099999
5703.48340210,0.00097208
5705.41220947,0.00106259
5707.34101685,0.00098615
5709.26982422,0.00100781
5711.19863159,0.00100277
5713.12743896,0.00098491
5715.05624634,0.00104169
5716.98505371,0.00097817
5718.91386108,0.00097965
5720.84266846,0.00095814
5722.77147583,0.00100373
5724.70028320,0.00103745
5726.62909058,0.00093136
5728.55789795,0.00097355
5730.48670532,0.00098723
5732.41551270,0.00095236
5734.34432007,0.00094643
5736.27312744,0.00092677
5738.20193481,0.00094203
5740.13074219,0.00094482
5742.05954956,0.00096650
5743.98835693,0.00094836
5745.91716431,0.00094514
5747.84597168,0.00096130
5749.77477905,0.00095868
5751.70358643,0.00093560
5753.63239380,0.00086925
5755.56120117,0.00090461
5757.49000854,0.00092855
5759.41881592,0.00094086
5761.34762329,0.00094646
5763.27643066,0.00094087
5765.20523804,0.00092681
5767.13404541,0.00083810
5769.06285278,0.00089662
5770.99166016,0.00088220
5772.92046753,0.00085958
5774.84927490,0.00092608
5776.77808228,0.00093365
5778.70688965,0.00099068
5780.63569702,0.00091026
5782.56450439,0.00090871
5784.49331177,0.00091835
5786.42211914,0.00087420
5788.35092651,0.00095999
5790.27973389,0.00095031
5792.20854126,0.00093232
5794.13734863,0.00090673
5796.06615601,0.00089205
5797.99496338,0.00086351
5799.92377075,0.00087184
5801.85257812,0.00089795
5803.78138550,0.00084429
5805.71019287,0.00088763
5807.63900024,0.00084042
5809.56780762,0.00086275
5811.49661499,0.00097211
5813.42542236,0.00085421
5815.35422974,0.00074174
5817.28303711,0.00080714
5819.21184448,0.00080037
5821.14065186,0.00075025
5823.06945923,0.00086381
5824.99826660,0.00086726
5826.92707397,0.00086532
5828.85588135,0.00085426
5830.78468872,0.00078047
5832.71349609,0.00080244
5834.64230347,0.00081035
5836.57111084,0.00085306
5838.49991821,0.00081499
5840.42872559,0.00086779
5842.35753296,0.00085896
5844.28634033,0.00079049
5846.21514770,0.00087360
5848.14395508,0.00080869
5850.07276245,0.00082245
5852.00156982,0.00078398
5853.93037720,0.00078546
5855.85918457,0.00083133
5857.78799194,0.00073655
5859.71679932,0.00077612
5861.64560669,0.00077489
5863.57441406,0.00083887
5865.50322144,0.00078510
5867.43202881,0.00067113
5869.36083618,0.00077923
5871.28964355,0.00080558
5873.21845093,0.00080106
5875.14725830,0.00078793
5877.07606567,0.00075123
5879.00487305,0.00073835
5880.93368042,0.00075223
5882.86248779,0.00071460
5884.79129517,0.00072854
5886.72010254,0.00079474
5888.64890991,0.00074320
5890.57771728,0.00073729
5892.50652466,0.00072874
5894.43533203,0.00072749
5896.36413940,0.00072647
5898.29294678,0.00072452
5900.22175415,0.00071672
5902.15056152,0.00065289
5904.07936890,0.00067629
5906.00817627,0.00068053
5907.93698364,0.00069277
5909.86579102,0.00074224
5911.79459839,0.00072469
5913.72340576,0.00069131
5915.65221313,0.00074733
5917.58102051,0.00071687
5919.50982788,0.00065614
5921.43863525,0.00073068
5923.36744263,0.00066652
5925.29625000,0.00069754
5927.22505737,0.00072596
5929.15386475,0.00068354
5931.08267212,0.00071431
5933.01147949,0.00065206
5934.94028686,0.00070553
5936.86909424,0.00065860
5938.79790161,0.00064631
5940.72670898,0.00067739
5942.65551636,0.00060296
5944.58432373,0.00069083
5946.51313110,0.00064715
5948.44193848,0.00065530
5950.37074585,0.00072915
5952.29955322,0.00068494
5954.22836060,0.00068715
5956.15716797,0.00065005
5958.08597534,0.00069116
5960.01478271,0.00068169
5961.94359009,0.00056655
5963.87239746,0.00064188
5965.80120483,0.00072678
5967.73001221,0.00064001
5969.65881958,0.00060275
5971.58762695,0.00063342
5973.51643433,0.00067020
5975.44524170,0.00069356
5977.37404907,0.00065392
5979.30285645,0.00062418
5981.23166382,0.00063509
5983.16047119,0.00064937
5985.08927856,0.00062294
5987.01808594,0.00062144
5988.94689331,0.00061159
5990.87570068,0.00066143
5992.80450806,0.00068289
5994.73331543,0.00058147
5996.66212280,0.00063975
5998.59093018,0.00063763
6000.51973755,0.00060958
