399.26312622,0.00072687
401.19193359,0.00076174
403.12074097,0.00067446
405.04954834,0.00044680
406.97835571,0.00033247
408.90716309,0.00100905
410.83597046,0.00124747
412.76477783,0.00082177
414.69358521,0.00096110
416.62239258,0.00105084
418.55119995,0.00008458
420.48000732,0.00041008
422.40881470,0.00130149
424.33762207,0.00078723
426.26642944,0.00097707
428.19523682,0.00108593
430.12404419,0.00063812
432.05285156,0.00083976
433.98165894,0.00089939
435.91046631,0.00081820
437.83927368,0.00065153
439.76808105,0.00066466
441.69688843,0.00094037
443.62569580,0.00092348
445.55450317,0.00085604
447.48331055,0.00058551
449.41211792,0.00069223
451.34092529,0.00110803
453.26973267,0.00051505
455.19854004,0.00036536
457.12734741,0.00068950
459.05615479,0.00027001
460.98496216,0.00064415
462.91376953,0.00079953
464.84257690,0.00026696
466.77138428,0.00048410
468.70019165,0.00041160
470.62899902,0.00043953
472.55780640,0.00047610
474.48661377,0.00013688
476.41542114,0.00024298
478.34422852,0.00028507
480.27303589,0.00050228
482.20184326,0.00064188
484.13065063,0.00017512
486.05945801,-0.00015126
487.98826538,0.00034949
489.91707275,0.00040599
491.84588013,0.00009592
493.77468750,0.00048292
495.70349487,0.00001223
497.63230225,0.00037521
499.56110962,0.00076183
501.48991699,-0.00031017
503.41872437,0.00003868
505.34753174,0.00033126
507.27633911,0.00031827
509.20514648,0.00053814
511.13395386,0.00000362
513.06276123,0.00026997
514.99156860,0.00047376
516.92037598,0.00007688
518.84918335,0.00022551
520.77799072,-0.00002950
522.70679810,-0.00029207
524.63560547,0.00011525
526.56441284,0.00013088
528.49322021,-0.00000331
530.42202759,-0.00004166
532.35083496,-0.00011027
534.27964233,-0.00013298
536.20844971,-0.00002490
538.13725708,0.00014919
540.06606445,-0.00016200
541.99487183,0.00020909
543.92367920,0.00079882
545.85248657,0.00037475
547.78129395,0.00037054
549.71010132,0.00021906
551.63890869,-0.00008236
553.56771606,0.00024445
555.49652344,0.00009280
557.42533081,0.00034777
559.35413818,0.00046156
561.28294556,-0.00020975
563.21175293,-0.00003667
565.14056030,0.00045174
567.06936768,0.00042626
568.99817505,0.00011637
570.92698242,0.00009627
572.85578979,0.00011999
574.78459717,-0.00014796
576.71340454,-0.00007656
578.64221191,0.00019415
580.57101929,0.00017250
582.49982666,0.00020178
584.42863403,0.00047214
586.35744141,0.00021812
588.28624878,0.00028714
590.21505615,0.00064043
592.14386353,0.00031394
594.07267090,0.00027835
596.00147827,0.00017253
597.93028564,0.00016023
599.85909302,0.00060496
601.78790039,0.00044716
603.71670776,0.00033811
605.64551514,0.00057796
607.57432251,0.00012724
609.50312988,-0.00007005
611.43193726,0.00002886
613.36074463,-0.00023281
615.28955200,-0.00000464
617.21835938,0.00020970
619.14716675,0.00036436
621.07597412,0.00018539
623.00478149,0.00011042
624.93358887,0.00026524
626.86239624,-0.00006737
628.79120361,0.00025631
630.72001099,0.00049562
632.64881836,0.00078733
634.57762573,0.00089458
636.50643311,0.00053751
638.43524048,0.00065768
640.36404785,0.00081842
642.29285522,0.00108900
644.22166260,0.00116361
646.15046997,0.00103598
648.07927734,0.00103422
650.00808472,0.00127150
651.93689209,0.00152346
653.86569946,0.00139782
655.79450684,0.00152482
657.72331421,0.00151974
659.65212158,0.00151115
661.58092896,0.00153108
663.50973633,0.00147628
665.43854370,0.00170560
667.36735107,0.00168487
669.29615845,0.00170231
671.22496582,0.00184375
673.15377319,0.00197055
675.08258057,0.00186171
677.01138794,0.00202334
678.94019531,0.00226056
680.86900269,0.00189643
682.79781006,0.00210068
684.72661743,0.00217340
686.65542480,0.00201605
688.58423218,0.00191480
690.51303955,0.00177185
692.44184692,0.00229853
694.37065430,0.00226474
696.29946167,0.00245557
698.22826904,0.00314588
700.15707642,0.00307415
702.08588379,0.00331402
704.01469116,0.00319779
705.94349854,0.00256024
707.87230591,0.00253034
709.80111328,0.00199430
711.72992065,0.00109029
713.65872803,0.00057875
715.58753540,0.00039512
717.51634277,0.00055786
719.44515015,0.00039053
721.37395752,0.00041542
723.30276489,0.00043908
725.23157227,0.00003574
727.16037964,0.00004727
729.08918701,0.00010060
731.01799438,0.00018490
732.94680176,-0.00004315
734.87560913,-0.00013557
736.80441650,0.00006909
738.73322388,0.00011947
740.66203125,0.00038607
742.59083862,0.00005779
744.51964600,0.00014603
746.44845337,0.00026364
748.37726074,-0.00003282
750.30606812,0.00032438
752.23487549,0.00000244
754.16368286,-0.00004335
756.09249023,0.00029390
758.02129761,0.00032079
759.95010498,0.00040159
761.87891235,0.00008463
763.80771973,0.00000425
765.73652710,0.00022584
767.66533447,0.00057495
769.59414185,0.00050724
771.52294922,0.00033130
773.45175659,0.00036073
775.38056396,0.00018514
777.30937134,0.00027885
779.23817871,0.00017537
781.16698608,0.00000787
783.09579346,0.00018270
785.02460083,0.00020556
786.95340820,0.00004060
788.88221558,0.00018951
790.81102295,0.00020536
792.73983032,0.00019223
794.66863770,0.00060321
796.59744507,0.00031839
798.52625244,0.00031493
800.45505981,0.00051812
802.38386719,0.00028332
804.31267456,0.00061303
806.24148193,0.00056173
808.17028931,0.00025089
810.09909668,0.00021752
812.02790405,0.00037780
813.95671143,0.00048454
815.88551880,0.00025810
817.81432617,0.00021493
819.74313354,0.00027173
821.67194092,0.00026489
823.60074829,0.00015913
825.52955566,0.00036001
827.45836304,0.00047001
829.38717041,0.00046904
831.31597778,0.00070946
833.24478516,0.00057250
835.17359253,0.00069398
837.10239990,0.00089410
839.03120728,0.00087198
840.96001465,0.00070326
842.88882202,0.00058572
844.81762939,0.00092887
846.74643677,0.00065919
848.67524414,0.00035412
850.60405151,0.00052339
852.53285889,0.00043915
854.46166626,0.00042507
856.39047363,0.00030662
858.31928101,0.00011636
860.24808838,0.00024181
862.17689575,0.00046782
864.10570313,0.00036911
866.03451050,0.00022246
867.96331787,0.00046727
869.89212524,0.00047196
871.82093262,0.00035707
873.74973999,0.00041950
875.67854736,0.00040814
877.60735474,0.00044896
879.53616211,0.00046456
881.46496948,0.00037496
883.39377686,0.00023923
885.32258423,0.00031318
887.25139160,0.00048705
889.18019897,0.00049239
891.10900635,0.00046411
893.03781372,0.00042047
894.96662109,0.00059872
896.89542847,0.00057982
898.82423584,0.00024510
900.75304321,0.00033778
902.68185059,0.00046829
904.61065796,0.00045354
906.53946533,0.00029545
908.46827271,0.00045078
910.39708008,0.00060977
912.32588745,0.00022687
914.25469482,0.00055886
916.18350220,0.00062477
918.11230957,0.00061406
920.04111694,0.00083019
921.96992432,0.00045478
923.89873169,0.00066249
925.82753906,0.00090729
927.75634644,0.00104833
929.68515381,0.00097299
931.61396118,0.00094282
933.54276855,0.00122379
935.47157593,0.00104849
937.40038330,0.00128707
939.32919067,0.00133666
941.25799805,0.00118293
943.18680542,0.00138953
945.11561279,0.00124627
947.04442017,0.00116951
948.97322754,0.00137820
950.90203491,0.00139812
952.83084229,0.00136084
954.75964966,0.00127182
956.68845703,0.00098379
958.61726440,0.00125815
960.54607178,0.00130487
962.47487915,0.00123702
964.40368652,0.00151472
966.33249390,0.00125605
968.26130127,0.00148913
970.19010864,0.00161509
972.11891602,0.00158902
974.04772339,0.00180324
975.97653076,0.00149544
977.90533813,0.00164359
979.83414551,0.00197428
981.76295288,0.00219798
983.69176025,0.00238130
985.62056763,0.00244859
987.54937500,0.00257421
989.47818237,0.00282151
991.40698975,0.00347424
993.33579712,0.00383043
995.26460449,0.00413627
997.19341187,0.00446748
999.12221924,0.00457035
1001.05102661,0.00506622
1002.97983398,0.00540360
1004.90864136,0.00566261
1006.83744873,0.00615667
1008.76625610,0.00639703
1010.69506348,0.00678032
1012.62387085,0.00731573
1014.55267822,0.00762466
1016.48148560,0.00797198
1018.41029297,0.00844569
1020.33910034,0.00884768
1022.26790771,0.00908905
1024.19671509,0.00948719
1026.12552246,0.00983441
1028.05432983,0.01028851
1029.98313721,0.01087698
1031.91194458,0.01078023
1033.84075195,0.01101834
1035.76955933,0.01147474
1037.69836670,0.01134506
1039.62717407,0.01133136
1041.55598145,0.01143160
1043.48478882,0.01134345
1045.41359619,0.01109198
1047.34240356,0.01123097
1049.27121094,0.01089808
1051.20001831,0.01044502
1053.12882568,0.01063286
1055.05763306,0.01036715
1056.98644043,0.01025607
1058.91524780,0.01008025
1060.84405518,0.00974893
1062.77286255,0.00919781
1064.70166992,0.00876926
1066.63047729,0.00903035
1068.55928467,0.00843654
1070.48809204,0.00798433
1072.41689941,0.00768474
1074.34570679,0.00707877
1076.27451416,0.00700028
1078.20332153,0.00671843
1080.13212891,0.00645225
1082.06093628,0.00604782
1083.98974365,0.00578959
1085.91855103,0.00565508
1087.84735840,0.00519971
1089.77616577,0.00495739
1091.70497314,0.00472136
1093.63378052,0.00482144
1095.56258789,0.00484585
1097.49139526,0.00447537
1099.42020264,0.00450323
1101.34901001,0.00441921
1103.27781738,0.00400993
1105.20662476,0.00400976
1107.13543213,0.00405281
1109.06423950,0.00383889
1110.99304687,0.00389452
1112.92185425,0.00396911
1114.85066162,0.00384597
1116.77946899,0.00377762
1118.70827637,0.00385488
1120.63708374,0.00388955
1122.56589111,0.00383905
1124.49469849,0.00388022
1126.42350586,0.00397286
1128.35231323,0.00419122
1130.28112061,0.00419560
1132.20992798,0.00412378
1134.13873535,0.00452344
1136.06754272,0.00467868
1137.99635010,0.00464069
1139.92515747,0.00516702
1141.85396484,0.00537008
1143.78277222,0.00550315
1145.71157959,0.00622828
1147.64038696,0.00661770
1149.56919434,0.00684111
1151.49800171,0.00698093
1153.42680908,0.00743424
1155.35561646,0.00798048
1157.28442383,0.00791128
1159.21323120,0.00830425
1161.14203857,0.00867765
1163.07084595,0.00880871
1164.99965332,0.00915222
1166.92846069,0.00961086
1168.85726807,0.01006605
1170.78607544,0.01025165
1172.71488281,0.01079229
1174.64369019,0.01126578
1176.57249756,0.01149209
1178.50130493,0.01185382
1180.43011230,0.01246500
1182.35891968,0.01307745
1184.28772705,0.01346820
1186.21653442,0.01417000
1188.14534180,0.01473291
1190.07414917,0.01537443
1192.00295654,0.01610235
1193.93176392,0.01698711
1195.86057129,0.01789551
1197.78937866,0.01832691
1199.71818604,0.01932187
1201.64699341,0.02014455
1203.57580078,0.02088667
1205.50460815,0.02196547
1207.43341553,0.02254188
1209.36222290,0.02322561
1211.29103027,0.02403241
1213.21983765,0.02465371
1215.14864502,0.02526452
1217.07745239,0.02588637
1219.00625977,0.02610775
1220.93506714,0.02650250
1222.86387451,0.02703450
1224.79268188,0.02700194
1226.72148926,0.02733442
1228.65029663,0.02768211
1230.57910400,0.02766729
1232.50791138,0.02773295
1234.43671875,0.02780302
1236.36552612,0.02770137
1238.29433350,0.02763115
1240.22314087,0.02772775
1242.15194824,0.02760394
1244.08075562,0.02762969
1246.00956299,0.02752643
1247.93837036,0.02718739
1249.86717773,0.02696821
1251.79598511,0.02688249
1253.72479248,0.02680719
1255.65359985,0.02644991
1257.58240723,0.02623572
1259.51121460,0.02573458
1261.44002197,0.02531093
1263.36882935,0.02508865
1265.29763672,0.02449619
1267.22644409,0.02430897
1269.15525146,0.02406357
1271.08405884,0.02378025
1273.01286621,0.02354357
1274.94167358,0.02298536
1276.87048096,0.02257991
1278.79928833,0.02214202
1280.72809570,0.02167812
1282.65690308,0.02125023
1284.58571045,0.02083340
1286.51451782,0.02036927
1288.44332520,0.02002036
1290.37213257,0.01992844
1292.30093994,0.01973007
1294.22974731,0.01969972
1296.15855469,0.01962467
1298.08736206,0.01948041
1300.01616943,0.01965301
1301.94497681,0.01958547
1303.87378418,0.01970886
1305.80259155,0.02012059
1307.73139893,0.02024947
1309.66020630,0.02065281
1311.58901367,0.02095465
1313.51782104,0.02137140
1315.44662842,0.02217782
1317.37543579,0.02229069
1319.30424316,0.02265551
1321.23305054,0.02361405
1323.16185791,0.02431812
1325.09066528,0.02507884
1327.01947266,0.02573823
1328.94828003,0.02627229
1330.87708740,0.02704138
1332.80589478,0.02782418
1334.73470215,0.02833840
1336.66350952,0.02851442
1338.59231689,0.02798485
1340.52112427,0.02829847
1342.44993164,0.02996657
1344.37873901,0.03019777
1346.30754639,0.02994941
1348.23635376,0.03001644
1350.16516113,0.02952310
1352.09396851,0.02956082
1354.02277588,0.02931273
1355.95158325,0.02885647
1357.88039062,0.02881841
1359.80919800,0.02844203
1361.73800537,0.02681388
1363.66681274,0.02642674
1365.59562012,0.02828734
1367.52442749,0.02735396
1369.45323486,0.02712442
1371.38204224,0.02802996
1373.31084961,0.02605459
1375.23965698,0.02639322
1377.16846436,0.02721241
1379.09727173,0.02698201
1381.02607910,0.02726322
1382.95488647,0.02701304
1384.88369385,0.02713998
1386.81250122,0.02574732
1388.74130859,0.02587243
1390.67011597,0.02853453
1392.59892334,0.02757287
1394.52773071,0.02543232
1396.45653809,0.02705248
1398.38534546,0.02698760
1400.31415283,0.02677020
1402.24296021,0.02934466
1404.17176758,0.02750687
1406.10057495,0.02759299
1408.02938232,0.02902019
1409.95818970,0.02767964
1411.88699707,0.02837002
1413.81580444,0.02745775
1415.74461182,0.02785124
1417.67341919,0.02483621
1419.60222656,0.02181007
1421.53103394,0.02589260
1423.45984131,0.02512637
1425.38864868,0.02428646
1427.31745605,0.02502497
1429.24626343,0.02267775
1431.17507080,0.02200026
1433.10387817,0.02285785
1435.03268555,0.02049240
1436.96149292,0.01693904
1438.89030029,0.02003118
1440.81910767,0.02059468
1442.74791504,0.01886857
1444.67672241,0.02014036
1446.60552979,0.01802318
1448.53433716,0.01847067
1450.46314453,0.01941197
1452.39195190,0.01956280
1454.32075928,0.02050957
1456.24956665,0.01615325
1458.17837402,0.01662860
1460.10718140,0.02317806
1462.03598877,0.02468453
1463.96479614,0.02444661
1465.89360352,0.02520442
1467.82241089,0.02900974
1469.75121826,0.03136119
1471.68002563,0.02708516
1473.60883301,0.02862500
1475.53764038,0.03296217
1477.46644775,0.03573036
1479.39525513,0.03968216
1481.32406250,0.03991260
1483.25286987,0.04259886
1485.18167725,0.04385363
1487.11048462,0.04266167
1489.03929199,0.04183672
1490.96809937,0.04182922
1492.89690674,0.05017113
1494.82571411,0.04878686
1496.75452148,0.04279333
1498.68332886,0.04921938
1500.61213623,0.05091703
1502.54094360,0.05491296
1504.46975098,0.05157492
1506.39855835,0.03516559
1508.32736572,0.04395730
1510.25617310,0.05331913
1512.18498047,0.05172914
1514.11378784,0.05687249
1516.04259521,0.04991467
1517.97140259,0.05226248
1519.90020996,0.05062085
1521.82901733,0.04215375
1523.75782471,0.05384689
1525.68663208,0.05289038
1527.61543945,0.05241058
1529.54424683,0.05949459
1531.47305420,0.05651399
1533.40186157,0.05058818
1535.33066895,0.05447406
1537.25947632,0.05929021
1539.18828369,0.03973974
1541.11709106,0.04175839
1543.04589844,0.05206444
1544.97470581,0.04946213
1546.90351318,0.06068205
1548.83232056,0.05577484
1550.76112793,0.05758604
1552.68993530,0.05766958
1554.61874268,0.05129735
1556.54755005,0.05578773
1558.47635742,0.03655118
1560.40516479,0.04021195
1562.33397217,0.06156431
1564.26277954,0.05739991
1566.19158691,0.05948481
1568.12039429,0.05862578
1570.04920166,0.05059089
1571.97800903,0.06012879
1573.90681641,0.06123105
1575.83562378,0.04664274
1577.76443115,0.05376701
1579.69323853,0.06259605
1581.62204590,0.05944708
1583.55085327,0.06092768
1585.47966064,0.06011562
1587.40846802,0.06035879
1589.33727539,0.05994611
1591.26608276,0.06001065
1593.19489014,0.06004310
1595.12369751,0.05923380
1597.05250488,0.06019286
1598.98131226,0.05979590
1600.91011963,0.06012867
1602.83892700,0.05906334
1604.76773437,0.06026909
1606.69654175,0.05929337
1608.62534912,0.05893065
1610.55415649,0.05887891
1612.48296387,0.05960732
1614.41177124,0.06052545
1616.34057861,0.04794219
1618.26938599,0.05252018
1620.19819336,0.06270977
1622.12700073,0.05454049
1624.05580811,0.05468746
1625.98461548,0.05810695
1627.91342285,0.05758812
1629.84223022,0.05733792
1631.77103760,0.06199738
1633.69984497,0.05640861
1635.62865234,0.04478053
1637.55745972,0.05353830
1639.48626709,0.06016237
1641.41507446,0.05843953
1643.34388184,0.06040776
1645.27268921,0.05350131
1647.20149658,0.04543135
1649.13030396,0.05888131
1651.05911133,0.05578831
1652.98791870,0.03252348
1654.91672607,0.04702155
1656.84553345,0.06184775
1658.77434082,0.05899865
1660.70314819,0.06087739
1662.63195557,0.05426739
1664.56076294,0.05784830
1666.48957031,0.06323502
1668.41837769,0.05362679
1670.34718506,0.05176403
1672.27599243,0.06021839
1674.20479980,0.05489431
1676.13360718,0.05221847
1678.06241455,0.06156242
1679.99122192,0.05906368
1681.92002930,0.05812073
1683.84883667,0.04561895
1685.77764404,0.04529206
1687.70645142,0.06539116
1689.63525879,0.05531336
1691.56406616,0.06198437
1693.49287354,0.06370202
1695.42168091,0.04385381
1697.35048828,0.05621784
1699.27929565,0.04813477
1701.20810303,0.04224709
1703.13691040,0.06139114
1705.06571777,0.05534030
1706.99452515,0.05597889
1708.92333252,0.06207789
1710.85213989,0.05912385
1712.78094727,0.06025345
1714.70975464,0.05516203
1716.63856201,0.04859249
1718.56736938,0.04764376
1720.49617676,0.05839422
1722.42498413,0.06133528
1724.35379150,0.05609085
1726.28259888,0.06212151
1728.21140625,0.05662566
1730.14021362,0.05700242
1732.06902100,0.05566226
1733.99782837,0.03998473
1735.92663574,0.05222198
1737.85544312,0.05863427
1739.78425049,0.05106512
1741.71305786,0.05661551
1743.64186523,0.05713921
1745.57067261,0.05735885
1747.49947998,0.05760605
1749.42828735,0.05461605
1751.35709473,0.05190066
1753.28590210,0.05864462
1755.21470947,0.06207804
1757.14351685,0.05537894
1759.07232422,0.06216483
1761.00113159,0.05763676
1762.92993896,0.05514497
1764.85874634,0.06500903
1766.78755371,0.05729337
1768.71636108,0.05786616
1770.64516846,0.05727457
1772.57397583,0.05054396
1774.50278320,0.05778123
1776.43159058,0.06164245
1778.36039795,0.06060475
1780.28920532,0.05949169
1782.21801270,0.06033832
1784.14682007,0.06019669
1786.07562744,0.05859910
1788.00443481,0.06237452
1789.93324219,0.06044590
1791.86204956,0.05354146
1793.79085693,0.05643370
1795.71966431,0.06135600
1797.64847168,0.06042263
1799.57727905,0.05927950
1801.50608643,0.05794137
1803.43489380,0.06042411
1805.36370117,0.06196557
1807.29250854,0.06102052
1809.22131592,0.06131416
1811.15012329,0.05922961
1813.07893066,0.06170447
1815.00773804,0.06201068
1816.93654541,0.06103092
1818.86535278,0.06169056
1820.79416016,0.06142217
1822.72296753,0.06249305
1824.65177490,0.05757347
1826.58058228,0.05998800
1828.50938965,0.05998030
1830.43819702,0.05564364
1832.36700439,0.06180622
1834.29581177,0.06135353
1836.22461914,0.06125581
1838.15342651,0.06110935
1840.08223389,0.06155866
1842.01104126,0.06157270
1843.93984863,0.05335297
1845.86865601,0.05762728
1847.79746338,0.06142566
1849.72627075,0.05991206
1851.65507812,0.06220604
1853.58388550,0.06056958
1855.51269287,0.06139617
1857.44150024,0.06098881
1859.37030762,0.06035513
1861.29911499,0.06129754
1863.22792236,0.06033330
1865.15672974,0.06087980
1867.08553711,0.05845576
1869.01434448,0.05546744
1870.94315186,0.05823706
1872.87195923,0.06096087
1874.80076660,0.06012624
1876.72957397,0.06044467
1878.65838135,0.06013253
1880.58718872,0.05971992
1882.51599609,0.06029002
1884.44480347,0.05930616
1886.37361084,0.06034289
1888.30241821,0.05881054
1890.23122559,0.05724323
1892.16003296,0.05999329
1894.08884033,0.05903222
1896.01764771,0.05845007
1897.94645508,0.05955923
1899.87526245,0.05934042
1901.80406982,0.05954030
1903.73287720,0.05893981
1905.66168457,0.05927525
1907.59049194,0.05865980
1909.51929932,0.05803848
1911.44810669,0.05864733
1913.37691406,0.05876987
1915.30572144,0.05939279
1917.23452881,0.05617993
1919.16333618,0.05626308
1921.09214355,0.05904976
1923.02095093,0.05673617
1924.94975830,0.05820332
1926.87856567,0.05888937
1928.80737305,0.05803493
1930.73618042,0.05897222
1932.66498779,0.05785506
1934.59379517,0.05862866
1936.52260254,0.05822453
1938.45140991,0.05836060
1940.38021729,0.05833568
1942.30902466,0.05602052
1944.23783203,0.05728958
1946.16663940,0.05806582
1948.09544678,0.05795623
1950.02425415,0.05826557
1951.95306152,0.05804382
1953.88186890,0.05818681
1955.81067627,0.05780692
1957.73948364,0.05802454
1959.66829102,0.05805568
1961.59709839,0.05768259
1963.52590576,0.05790965
1965.45471313,0.05767701
1967.38352051,0.05678764
1969.31232788,0.05732222
1971.24113525,0.05791393
1973.16994263,0.05748830
1975.09875000,0.05788284
1977.02755737,0.05749951
1978.95636475,0.05732974
1980.88517212,0.05748060
1982.81397949,0.05737099
1984.74278687,0.05754388
1986.67159424,0.05687056
1988.60040161,0.05704666
1990.52920898,0.05667609
1992.45801636,0.05569413
1994.38682373,0.05652999
1996.31563110,0.05698105
1998.24443848,0.05651774
2000.17324585,0.05655351
2002.10205322,0.05661529
2004.03086060,0.05635502
2005.95966797,0.05620287
2007.88847534,0.05617714
2009.81728271,0.05618586
2011.74609009,0.05600273
2013.67489746,0.05600414
2015.60370483,0.05559570
2017.53251221,0.05504758
2019.46131958,0.05553586
2021.39012695,0.05549711
2023.31893433,0.05530367
2025.24774170,0.05533718
2027.17654907,0.05514158
2029.10535645,0.05516357
2031.03416382,0.05498543
2032.96297119,0.05486638
2034.89177856,0.05475742
2036.82058594,0.05471743
2038.74939331,0.05443772
2040.67820068,0.05417808
2042.60700806,0.05425530
2044.53581543,0.05413948
2046.46462280,0.05418334
2048.39343018,0.05398072
2050.32223755,0.05387882
2052.25104492,0.05394248
2054.17985229,0.05360890
2056.10865967,0.05344207
2058.03746704,0.05339897
2059.96627441,0.05331207
2061.89508179,0.05333364
2063.82388916,0.05293962
2065.75269653,0.05261354
2067.68150391,0.05308850
2069.61031128,0.05290366
2071.53911865,0.05270829
2073.46792603,0.05287652
2075.39673340,0.05251313
2077.32554077,0.05254986
2079.25434814,0.05241265
2081.18315552,0.05234971
2083.11196289,0.05238353
2085.04077026,0.05215793
2086.96957764,0.05214376
2088.89838501,0.05195370
2090.82719238,0.05191086
2092.75599976,0.05183418
2094.68480713,0.05186488
2096.61361450,0.05168425
2098.54242187,0.05135898
2100.47122925,0.05150280
2102.40003662,0.05139927
2104.32884399,0.05141960
2106.25765137,0.05136278
2108.18645874,0.05123510
2110.11526611,0.05126733
2112.04407349,0.05101606
2113.97288086,0.05095319
2115.90168823,0.05087779
2117.83049561,0.05075596
2119.75930298,0.05073173
2121.68811035,0.05055758
2123.61691772,0.05059259
2125.54572510,0.05068982
2127.47453247,0.05054708
2129.40333984,0.05044313
2131.33214722,0.05034737
2133.26095459,0.05036631
2135.18976196,0.05029351
2137.11856934,0.05008603
2139.04737671,0.05013392
2140.97618408,0.05001153
2142.90499146,0.05001038
2144.83379883,0.04996563
2146.76260620,0.04978827
2148.69141357,0.04992677
2150.62022095,0.04974838
2152.54902832,0.04968807
2154.47783569,0.04972481
2156.40664307,0.04954889
2158.33545044,0.04950649
2160.26425781,0.04936431
2162.19306519,0.04935092
2164.12187256,0.04944703
2166.05067993,0.04943483
2167.97948730,0.04936274
2169.90829468,0.04926879
2171.83710205,0.04921360
2173.76590942,0.04906284
2175.69471680,0.04891420
2177.62352417,0.04904432
2179.55233154,0.04905124
2181.48113892,0.04888330
2183.40994629,0.04889543
2185.33875366,0.04875951
2187.26756104,0.04871539
2189.19636841,0.04874437
2191.12517578,0.04870151
2193.05398315,0.04864267
2194.98279053,0.04845197
2196.91159790,0.04850700
2198.84040527,0.04847708
2200.76921265,0.04833331
2202.69802002,0.04836659
2204.62682739,0.04837955
2206.55563477,0.04819693
2208.48444214,0.04809178
2210.41324951,0.04815353
2212.34205688,0.04802042
2214.27086426,0.04801621
2216.19967163,0.04790123
2218.12847900,0.04794635
2220.05728638,0.04792772
2221.98609375,0.04753554
2223.91490112,0.04765306
2225.84370850,0.04759480
2227.77251587,0.04766097
2229.70132324,0.04774509
2231.63013062,0.04742806
2233.55893799,0.04742983
2235.48774536,0.04724868
2237.41655273,0.04721857
2239.34536011,0.04726721
2241.27416748,0.04714015
2243.20297485,0.04706184
2245.13178223,0.04688728
2247.06058960,0.04694205
2248.98939697,0.04684212
2250.91820435,0.04669848
2252.84701172,0.04679891
2254.77581909,0.04668449
2256.70462646,0.04654574
2258.63343384,0.04651270
2260.56224121,0.04642193
2262.49104858,0.04637335
2264.41985596,0.04629610
2266.34866333,0.04632409
2268.27747070,0.04634104
2270.20627808,0.04610242
2272.13508545,0.04609551
2274.06389282,0.04604361
2275.99270020,0.04591184
2277.92150757,0.04599059
2279.85031494,0.04599977
2281.77912231,0.04604217
2283.70792969,0.04592278
2285.63673706,0.04579481
2287.56554443,0.04580563
2289.49435181,0.04570610
2291.42315918,0.04548819
2293.35196655,0.04531641
2295.28077393,0.04532562
2297.20958130,0.04517771
2299.13838867,0.04500656
2301.06719604,0.04486668
2302.99600342,0.04462166
2304.92481079,0.04446559
2306.85361816,0.04417759
2308.78242554,0.04384705
2310.71123291,0.04367410
2312.64004028,0.04320813
2314.56884766,0.04274181
2316.49765503,0.04247012
2318.42646240,0.04176642
2320.35526978,0.04126064
2322.28407715,0.04083209
2324.21288452,0.04020602
2326.14169189,0.03994596
2328.07049927,0.03943853
2329.99930664,0.03888257
2331.92811401,0.03855689
2333.85692139,0.03843797
2335.78572876,0.03838398
2337.71453613,0.03819338
2339.64334351,0.03827620
2341.57215088,0.03850574
2343.50095825,0.03900794
2345.42976562,0.03965974
2347.35857300,0.04111169
2349.28738037,0.04237370
2351.21618774,0.04109418
2353.14499512,0.03909653
2355.07380249,0.03776387
2357.00260986,0.03673647
2358.93141724,0.03611401
2360.86022461,0.03570484
2362.78903198,0.03560231
2364.71783936,0.03575732
2366.64664673,0.03625681
2368.57545410,0.03691965
2370.50426147,0.03778037
2372.43306885,0.03877550
2374.36187622,0.03971854
2376.29068359,0.04071221
2378.21949097,0.04141772
2380.14829834,0.04208995
2382.07710571,0.04260593
2384.00591309,0.04282660
2385.93472046,0.04298823
2387.86352783,0.04295682
2389.79233521,0.04297026
2391.72114258,0.04284844
2393.64994995,0.04275067
2395.57875732,0.04285399
2397.50756470,0.04272853
2399.43637207,0.04260717
2401.36517944,0.04257603
2403.29398682,0.04249347
2405.22279419,0.04241937
2407.15160156,0.04241370
2409.08040894,0.04237158
2411.00921631,0.04222058
2412.93802368,0.04225419
2414.86683105,0.04227374
2416.79563843,0.04214064
2418.72444580,0.04210641
2420.65325317,0.04210064
2422.58206055,0.04208542
2424.51086792,0.04200299
2426.43967529,0.04188841
2428.36848267,0.04176990
2430.29729004,0.04169930
2432.22609741,0.04173652
2434.15490479,0.04171633
2436.08371216,0.04162564
2438.01251953,0.04151949
2439.94132690,0.04155048
2441.87013428,0.04149894
2443.79894165,0.04141255
2445.72774902,0.04150234
2447.65655640,0.04134600
2449.58536377,0.04122572
2451.51417114,0.04121411
2453.44297852,0.04117988
2455.37178589,0.04124040
2457.30059326,0.04109313
2459.22940063,0.04101255
2461.15820801,0.04102591
2463.08701538,0.04090661
2465.01582275,0.04085764
2466.94463013,0.04086730
2468.87343750,0.04084618
2470.80224487,0.04078723
2472.73105225,0.04079884
2474.65985962,0.04072595
2476.58866699,0.04054900
2478.51747437,0.04056090
2480.44628174,0.04052632
2482.37508911,0.04047590
2484.30389648,0.04045083
2486.23270386,0.04020939
2488.16151123,0.04021890
2490.09031860,0.04026308
2492.01912598,0.04014803
2493.94793335,0.04016575
2495.87674072,0.04004258
2497.80554810,0.04010597
2499.73435547,0.04003948
2501.66316284,0.03982377
2503.59197021,0.03990149
2505.52077759,0.03969938
2507.44958496,0.03969133
2509.37839233,0.03978742
2511.30719971,0.03964094
2513.23600708,0.03979240
2515.16481445,0.03968757
2517.09362183,0.03939410
2519.02242920,0.03950430
2520.95123657,0.03950851
2522.88004395,0.03943135
2524.80885132,0.03941458
2526.73765869,0.03920346
2528.66646606,0.03925699
2530.59527344,0.03926472
2532.52408081,0.03910216
2534.45288818,0.03910790
2536.38169556,0.03901563
2538.31050293,0.03908877
2540.23931030,0.03896100
2542.16811768,0.03883040
2544.09692505,0.03890178
2546.02573242,0.03876264
2547.95453979,0.03883009
2549.88334717,0.03871449
2551.81215454,0.03858841
2553.74096191,0.03868565
2555.66976929,0.03863757
2557.59857666,0.03859813
2559.52738403,0.03853114
2561.45619141,0.03844439
2563.38499878,0.03833832
2565.31380615,0.03839006
2567.24261353,0.03833685
2569.17142090,0.03818244
2571.10022827,0.03821361
2573.02903564,0.03814235
2574.95784302,0.03806687
2576.88665039,0.03801497
2578.81545776,0.03790544
2580.74426514,0.03783851
2582.67307251,0.03793518
2584.60187988,0.03783530
2586.53068726,0.03769935
2588.45949463,0.03778058
2590.38830200,0.03762496
2592.31710937,0.03751888
2594.24591675,0.03745356
2596.17472412,0.03751613
2598.10353149,0.03749063
2600.03233887,0.03727699
2601.96114624,0.03736239
2603.88995361,0.03727724
2605.81876099,0.03729528
2607.74756836,0.03731732
2609.67637573,0.03719479
2611.60518311,0.03718999
2613.53399048,0.03705228
2615.46279785,0.03710894
2617.39160522,0.03698160
2619.32041260,0.03683780
2621.24921997,0.03700737
2623.17802734,0.03687133
2625.10683472,0.03675571
2627.03564209,0.03684147
2628.96444946,0.03673570
2630.89325684,0.03662025
2632.82206421,0.03665643
2634.75087158,0.03660470
2636.67967895,0.03654755
2638.60848633,0.03640190
2640.53729370,0.03626276
2642.46610107,0.03631905
2644.39490845,0.03622040
2646.32371582,0.03623454
2648.25252319,0.03627472
2650.18133057,0.03609399
2652.11013794,0.03609551
2654.03894531,0.03615743
2655.96775269,0.03603391
2657.89656006,0.03589139
2659.82536743,0.03597481
2661.75417480,0.03593563
2663.68298218,0.03569939
2665.61178955,0.03577659
2667.54059692,0.03571550
2669.46940430,0.03553573
2671.39821167,0.03572773
2673.32701904,0.03563180
2675.25582642,0.03540266
2677.18463379,0.03549726
2679.11344116,0.03545259
2681.04224854,0.03533033
2682.97105591,0.03531867
2684.89986328,0.03532891
2686.82867065,0.03530062
2688.75747803,0.03524252
2690.68628540,0.03516366
2692.61509277,0.03504447
2694.54390015,0.03497358
2696.47270752,0.03497545
2698.40151489,0.03494130
2700.33032227,0.03484655
2702.25912964,0.03481628
2704.18793701,0.03471871
2706.11674438,0.03470508
2708.04555176,0.03468501
2709.97435913,0.03458805
2711.90316650,0.03468588
2713.83197388,0.03453653
2715.76078125,0.03445372
2717.68958862,0.03442144
2719.61839600,0.03431787
2721.54720337,0.03440399
2723.47601074,0.03422376
2725.40481812,0.03415951
2727.33362549,0.03411207
2729.26243286,0.03406916
2731.19124023,0.03414037
2733.12004761,0.03410803
2735.04885498,0.03407748
2736.97766235,0.03382487
2738.90646973,0.03390298
2740.83527710,0.03384329
2742.76408447,0.03361805
2744.69289185,0.03376260
2746.62169922,0.03363998
2748.55050659,0.03364015
2750.47931396,0.03362078
2752.40812134,0.03345726
2754.33692871,0.03342164
2756.26573608,0.03341600
2758.19454346,0.03335793
2760.12335083,0.03318340
2762.05215820,0.03323257
2763.98096558,0.03317056
2765.90977295,0.03305729
2767.83858032,0.03307322
2769.76738770,0.03302325
2771.69619507,0.03294021
2773.62500244,0.03281090
2775.55380981,0.03276940
2777.48261719,0.03266677
2779.41142456,0.03264642
2781.34023193,0.03262991
2783.26903931,0.03253055
2785.19784668,0.03247116
2787.12665405,0.03245495
2789.05546143,0.03254275
2790.98426880,0.03247318
2792.91307617,0.03237012
2794.84188354,0.03221533
2796.77069092,0.03218564
2798.69949829,0.03212165
2800.62830566,0.03192146
2802.55711304,0.03203938
2804.48592041,0.03194134
2806.41472778,0.03187048
2808.34353516,0.03182828
2810.27234253,0.03160880
2812.20114990,0.03163047
2814.12995728,0.03162642
2816.05876465,0.03158761
2817.98757202,0.03145717
2819.91637939,0.03140999
2821.84518677,0.03130155
2823.77399414,0.03116426
2825.70280151,0.03128222
2827.63160889,0.03113959
2829.56041626,0.03108154
2831.48922363,0.03107889
2833.41803101,0.03098231
2835.34683838,0.03102135
2837.27564575,0.03085054
2839.20445312,0.03063066
2841.13326050,0.03054891
2843.06206787,0.03053446
2844.99087524,0.03034090
2846.91968262,0.03003530
2848.84848999,0.02985524
2850.77729736,0.02981626
2852.70610474,0.02994725
2854.63491211,0.02989878
2856.56371948,0.02988711
2858.49252686,0.02995913
2860.42133423,0.02991640
2862.35014160,0.02996344
2864.27894897,0.02981117
2866.20775635,0.02972177
2868.13656372,0.02975509
2870.06537109,0.02963999
2871.99417847,0.02958962
2873.92298584,0.02952158
2875.85179321,0.02959260
2877.78060059,0.02952396
2879.70940796,0.02936309
2881.63821533,0.02943558
2883.56702270,0.02922737
2885.49583008,0.02917352
2887.42463745,0.02929807
2889.35344482,0.02914897
2891.28225220,0.02905941
2893.21105957,0.02895532
2895.13986694,0.02887930
2897.06867432,0.02882133
2898.99748169,0.02874275
2900.92628906,0.02871228
2902.85509644,0.02858077
2904.78390381,0.02848438
2906.71271118,0.02847252
2908.64151855,0.02843422
2910.57032593,0.02828376
2912.49913330,0.02817005
2914.42794067,0.02807120
2916.35674805,0.02784310
2918.28555542,0.02786848
2920.21436279,0.02799982
2922.14317017,0.02793821
2924.07197754,0.02790680
2926.00078491,0.02785967
2927.92959229,0.02790197
2929.85839966,0.02799791
2931.78720703,0.02794391
2933.71601440,0.02798874
2935.64482178,0.02800623
2937.57362915,0.02799870
2939.50243652,0.02796909
2941.43124390,0.02782013
2943.36005127,0.02793820
2945.28885864,0.02792576
2947.21766602,0.02782963
2949.14647339,0.02796883
2951.07528076,0.02781199
2953.00408813,0.02755408
2954.93289551,0.02750885
2956.86170288,0.02749621
2958.79051025,0.02739166
2960.71931763,0.02743312
2962.64812500,0.02740591
2964.57693237,0.02724433
2966.50573975,0.02734921
2968.43454712,0.02724056
2970.36335449,0.02722775
2972.29216187,0.02739691
2974.22096924,0.02734581
2976.14977661,0.02739606
2978.07858398,0.02731097
2980.00739136,0.02729107
2981.93619873,0.02737080
2983.86500610,0.02730878
2985.79381348,0.02726543
2987.72262085,0.02720124
2989.65142822,0.02721283
2991.58023560,0.02717058
2993.50904297,0.02703341
2995.43785034,0.02694110
2997.36665771,0.02695741
2999.29546509,0.02697564
3001.22427246,0.02695473
3003.15307983,0.02695219
3005.08188721,0.02677970
3007.01069458,0.02669871
3008.93950195,0.02673882
3010.86830933,0.02655280
3012.79711670,0.02644526
3014.72592407,0.02652324
3016.65473145,0.02639180
3018.58353882,0.02630430
3020.51234619,0.02636566
3022.44115356,0.02631700
3024.36996094,0.02622912
3026.29876831,0.02608025
3028.22757568,0.02616626
3030.15638306,0.02606492
3032.08519043,0.02582466
3034.01399780,0.02604375
3035.94280518,0.02594989
3037.87161255,0.02578416
3039.80041992,0.02585353
3041.72922729,0.02579809
3043.65803467,0.02570534
3045.58684204,0.02568233
3047.51564941,0.02566541
3049.44445679,0.02541532
3051.37326416,0.02545151
3053.30207153,0.02549342
3055.23087891,0.02527084
3057.15968628,0.02523805
3059.08849365,0.02522659
3061.01730103,0.02526802
3062.94610840,0.02516105
3064.87491577,0.02511087
3066.80372314,0.02513559
3068.73253052,0.02499661
3070.66133789,0.02500952
3072.59014526,0.02498661
3074.51895264,0.02493872
3076.44776001,0.02492487
3078.37656738,0.02483779
3080.30537476,0.02479573
3082.23418213,0.02474669
3084.16298950,0.02456537
3086.09179687,0.02457227
3088.02060425,0.02466344
3089.94941162,0.02453780
3091.87821899,0.02452868
3093.80702637,0.02445508
3095.73583374,0.02435812
3097.66464111,0.02420720
3099.59344849,0.02412334
3101.52225586,0.02424023
3103.45106323,0.02407821
3105.37987061,0.02410898
3107.30867798,0.02409563
3109.23748535,0.02392939
3111.16629272,0.02390471
3113.09510010,0.02377209
3115.02390747,0.02382616
3116.95271484,0.02374976
3118.88152222,0.02362088
3120.81032959,0.02359242
3122.73913696,0.02348762
3124.66794434,0.02357154
3126.59675171,0.02358459
3128.52555908,0.02343151
3130.45436645,0.02335892
3132.38317383,0.02333919
3134.31198120,0.02324263
3136.24078857,0.02315677
3138.16959595,0.02310741
3140.09840332,0.02308072
3142.02721069,0.02298787
3143.95601807,0.02293084
3145.88482544,0.02293037
3147.81363281,0.02280359
3149.74244019,0.02285100
3151.67124756,0.02270970
3153.60005493,0.02255655
3155.52886230,0.02257014
3157.45766968,0.02243732
3159.38647705,0.02249258
3161.31528442,0.02230563
3163.24409180,0.02230398
3165.17289917,0.02244918
3167.10170654,0.02219384
3169.03051392,0.02219000
3170.95932129,0.02213313
3172.88812866,0.02196511
3174.81693604,0.02196601
3176.74574341,0.02194525
3178.67455078,0.02180704
3180.60335815,0.02178218
3182.53216553,0.02182111
3184.46097290,0.02161371
3186.38978027,0.02157135
3188.31858765,0.02165975
3190.24739502,0.02162607
3192.17620239,0.02141649
3194.10500977,0.02130008
3196.03381714,0.02138205
3197.96262451,0.02130263
3199.89143188,0.02125918
3201.82023926,0.02117228
3203.74904663,0.02112262
3205.67785400,0.02114999
3207.60666138,0.02108234
3209.53546875,0.02104208
3211.46427612,0.02092477
3213.39308350,0.02087333
3215.32189087,0.02085786
3217.25069824,0.02081907
3219.17950562,0.02076032
3221.10831299,0.02070510
3223.03712036,0.02076862
3224.96592773,0.02072991
3226.89473511,0.02063121
3228.82354248,0.02058377
3230.75234985,0.02061347
3232.68115723,0.02060247
3234.60996460,0.02047717
3236.53877197,0.02050714
3238.46757935,0.02045284
3240.39638672,0.02030332
3242.32519409,0.02040258
3244.25400146,0.02034501
3246.18280884,0.02025367
3248.11161621,0.02037164
3250.04042358,0.02028066
3251.96923096,0.02026007
3253.89803833,0.02026193
3255.82684570,0.02014765
3257.75565308,0.02023473
3259.68446045,0.02020420
3261.61326782,0.02012130
3263.54207520,0.02019148
3265.47088257,0.02009704
3267.39968994,0.01996667
3269.32849731,0.02001468
3271.25730469,0.01997564
3273.18611206,0.01992908
3275.11491943,0.01986625
3277.04372681,0.01977470
3278.97253418,0.01988766
3280.90134155,0.01982176
3282.83014893,0.01977351
3284.75895630,0.01976235
3286.68776367,0.01967216
3288.61657104,0.01979514
3290.54537842,0.01971841
3292.47418579,0.01970470
3294.40299316,0.01975991
3296.33180054,0.01967247
3298.26060791,0.01962779
3300.18941528,0.01947691
3302.11822266,0.01955714
3304.04703003,0.01965149
3305.97583740,0.01952743
3307.90464478,0.01944779
3309.83345215,0.01939746
3311.76225952,0.01941279
3313.69106689,0.01937708
3315.61987427,0.01940945
3317.54868164,0.01941448
3319.47748901,0.01925133
3321.40629639,0.01929841
3323.33510376,0.01926893
3325.26391113,0.01916325
3327.19271851,0.01927378
3329.12152588,0.01915208
3331.05033325,0.01911730
3332.97914062,0.01918528
3334.90794800,0.01900003
3336.83675537,0.01902291
3338.76556274,0.01911374
3340.69437012,0.01908910
3342.62317749,0.01902415
3344.55198486,0.01893201
3346.48079224,0.01889654
3348.40959961,0.01891163
3350.33840698,0.01886879
3352.26721436,0.01877630
3354.19602173,0.01880785
3356.12482910,0.01871510
3358.05363647,0.01867220
3359.98244385,0.01869231
3361.91125122,0.01857312
3363.84005859,0.01856910
3365.76886597,0.01857404
3367.69767334,0.01856040
3369.62648071,0.01852474
3371.55528809,0.01850102
3373.48409546,0.01848501
3375.41290283,0.01851627
3377.34171020,0.01843508
3379.27051758,0.01830025
3381.19932495,0.01833671
3383.12813232,0.01823684
3385.05693970,0.01824636
3386.98574707,0.01818883
3388.91455444,0.01819283
3390.84336182,0.01819350
3392.77216919,0.01797346
3394.70097656,0.01810091
3396.62978394,0.01805980
3398.55859131,0.01798694
3400.48739868,0.01795197
3402.41620605,0.01796756
3404.34501343,0.01797652
3406.27382080,0.01776565
3408.20262817,0.01792316
3410.13143555,0.01782895
3412.06024292,0.01776788
3413.98905029,0.01781966
3415.91785767,0.01768986
3417.84666504,0.01771202
3419.77547241,0.01755403
3421.70427979,0.01753020
3423.63308716,0.01756558
3425.56189453,0.01758994
3427.49070190,0.01750512
3429.41950928,0.01745172
3431.34831665,0.01747496
3433.27712402,0.01740547
3435.20593140,0.01743148
3437.13473877,0.01726707
3439.06354614,0.01739288
3440.99235352,0.01730495
3442.92116089,0.01712343
3444.84996826,0.01724139
3446.77877563,0.01693207
3448.70758301,0.01700410
3450.63639038,0.01728307
3452.56519775,0.01718931
3454.49400513,0.01699333
3456.42281250,0.01701021
3458.35161987,0.01708202
3460.28042725,0.01698505
3462.20923462,0.01706574
3464.13804199,0.01704242
3466.06684937,0.01689164
3467.99565674,0.01685265
3469.92446411,0.01694462
3471.85327148,0.01692216
3473.78207886,0.01687580
3475.71088623,0.01679347
3477.63969360,0.01679880
3479.56850098,0.01690274
3481.49730835,0.01653910
3483.42611572,0.01665248
3485.35492310,0.01683424
3487.28373047,0.01662430
3489.21253784,0.01669209
3491.14134521,0.01670402
3493.07015259,0.01677511
3494.99895996,0.01668958
3496.92776733,0.01657821
3498.85657471,0.01667007
3500.78538208,0.01666748
3502.71418945,0.01627761
3504.64299683,0.01632330
3506.57180420,0.01675118
3508.50061157,0.01637721
3510.42941895,0.01635295
3512.35822632,0.01656264
3514.28703369,0.01659928
3516.21584106,0.01658313
3518.14464844,0.01644347
3520.07345581,0.01663879
3522.00226318,0.01636183
3523.93107056,0.01610665
3525.85987793,0.01618150
3527.78868530,0.01618260
3529.71749268,0.01618992
3531.64630005,0.01632181
3533.57510742,0.01660444
3535.50391479,0.01637731
3537.43272217,0.01630164
3539.36152954,0.01656443
3541.29033691,0.01650489
3543.21914429,0.01634832
3545.14795166,0.01595085
3547.07675903,0.01564820
3549.00556641,0.01631895
3550.93437378,0.01640426
3552.86318115,0.01584236
3554.79198853,0.01635972
3556.72079590,0.01634748
3558.64960327,0.01609848
3560.57841064,0.01606695
3562.50721802,0.01593413
3564.43602539,0.01610915
3566.36483276,0.01490614
3568.29364014,0.01436140
3570.22244751,0.01583989
3572.15125488,0.01635938
3574.08006226,0.01604235
3576.00886963,0.01619424
3577.93767700,0.01606737
3579.86648437,0.01604647
3581.79529175,0.01617065
3583.72409912,0.01618928
3585.65290649,0.01579634
3587.58171387,0.01413007
3589.51052124,0.01460258
3591.43932861,0.01622740
3593.36813599,0.01569654
3595.29694336,0.01533503
3597.22575073,0.01562323
3599.15455811,0.01590075
3601.08336548,0.01568121
3603.01217285,0.01587146
3604.94098022,0.01624398
3606.86978760,0.01543009
3608.79859497,0.01438334
3610.72740234,0.01478932
3612.65620972,0.01521630
3614.58501709,0.01469459
3616.51382446,0.01593174
3618.44263184,0.01450505
3620.37143921,0.01382882
3622.30024658,0.01605959
3624.22905395,0.01562480
3626.15786133,0.01642171
3628.08666870,0.01348520
3630.01547607,0.01202219
3631.94428345,0.01582471
3633.87309082,0.01541960
3635.80189819,0.01567462
3637.73070557,0.01599725
3639.65951294,0.01581522
3641.58832031,0.01592536
3643.51712769,0.01574979
3645.44593506,0.01585915
3647.37474243,0.01378548
3649.30354980,0.01263358
3651.23235718,0.01277315
3653.16116455,0.01560551
3655.08997192,0.01550033
3657.01877930,0.01357273
3658.94758667,0.01606841
3660.87639404,0.01564339
3662.80520142,0.01581465
3664.73400879,0.01585204
3666.66281616,0.01567820
3668.59162354,0.01505130
3670.52043091,0.01190660
3672.44923828,0.01486841
3674.37804565,0.01389202
3676.30685303,0.01112675
3678.23566040,0.01466670
3680.16446777,0.01515842
3682.09327515,0.01514922
3684.02208252,0.01560324
3685.95088989,0.01542176
3687.87969727,0.01365056
3689.80850464,0.01231897
3691.73731201,0.01431685
3693.66611938,0.01483996
3695.59492676,0.01536333
3697.52373413,0.01533613
3699.45254150,0.01513143
3701.38134888,0.01464415
3703.31015625,0.01396366
3705.23896362,0.01562768
3707.16777100,0.01480213
3709.09657837,0.01436744
3711.02538574,0.01337198
3712.95419312,0.01235634
3714.88300049,0.01491586
3716.81180786,0.01468713
3718.74061523,0.01475222
3720.66942261,0.01438314
3722.59822998,0.01386510
3724.52703735,0.01450591
3726.45584473,0.01320030
3728.38465210,0.01455299
3730.31345947,0.01438015
3732.24226685,0.01298597
3734.17107422,0.01267282
3736.09988159,0.01174941
3738.02868896,0.01266671
3739.95749634,0.01403780
3741.88630371,0.01478220
3743.81511108,0.01107903
3745.74391846,0.01019589
3747.67272583,0.01391592
3749.60153320,0.01175473
3751.53034058,0.01062707
3753.45914795,0.01251250
3755.38795532,0.01362971
3757.31676270,0.01426992
3759.24557007,0.01294174
3761.17437744,0.01352537
3763.10318481,0.01461133
3765.03199219,0.01342328
3766.96079956,0.01378218
3768.88960693,0.01366523
3770.81841431,0.01280932
3772.74722168,0.01414930
3774.67602905,0.01429572
3776.60483643,0.01416522
3778.53364380,0.01370716
3780.46245117,0.01303043
3782.39125854,0.01416604
3784.32006592,0.01378925
3786.24887329,0.01352352
3788.17768066,0.01400000
3790.10648804,0.01388035
3792.03529541,0.01375098
3793.96410278,0.01410552
3795.89291016,0.01313115
3797.82171753,0.01282075
3799.75052490,0.01365993
3801.67933228,0.01043822
3803.60813965,0.01244902
3805.53694702,0.01384472
3807.46575439,0.01096137
3809.39456177,0.01365271
3811.32336914,0.01335537
3813.25217651,0.01386536
3815.18098389,0.01234768
3817.10979126,0.01059763
3819.03859863,0.01393151
3820.96740601,0.01074954
3822.89621338,0.01152893
3824.82502075,0.01386373
3826.75382812,0.01222166
3828.68263550,0.01332536
3830.61144287,0.01271485
3832.54025024,0.01230696
3834.46905762,0.01250305
3836.39786499,0.01189814
3838.32667236,0.01064204
3840.25547974,0.01144039
3842.18428711,0.01261761
3844.11309448,0.01194413
3846.04190186,0.01311525
3847.97070923,0.01297277
3849.89951660,0.01295072
3851.82832397,0.01144550
3853.75713135,0.00808889
3855.68593872,0.00999746
3857.61474609,0.01288010
3859.54355347,0.01249203
3861.47236084,0.01234506
3863.40116821,0.01195100
3865.32997559,0.01106022
3867.25878296,0.01257218
3869.18759033,0.01125427
3871.11639770,0.01032166
3873.04520508,0.01265584
3874.97401245,0.01145802
3876.90281982,0.01258927
3878.83162720,0.01281305
3880.76043457,0.01057497
3882.68924194,0.01259793
3884.61804932,0.01169759
3886.54685669,0.01047842
3888.47566406,0.01271651
3890.40447144,0.01196339
3892.33327881,0.01093923
3894.26208618,0.01223203
3896.19089355,0.01254586
3898.11970093,0.01184292
3900.04850830,0.01108658
3901.97731567,0.01091620
3903.90612305,0.01080256
3905.83493042,0.01097177
3907.76373779,0.01231810
3909.69254517,0.01233157
3911.62135254,0.01205325
3913.55015991,0.01231279
3915.47896728,0.01187431
3917.40777466,0.01148859
3919.33658203,0.01133448
3921.26538940,0.01192832
3923.19419678,0.01186589
3925.12300415,0.01154976
3927.05181152,0.01185607
3928.98061890,0.01192551
3930.90942627,0.01170120
3932.83823364,0.01125289
3934.76704102,0.01177676
3936.69584839,0.01197862
3938.62465576,0.01176543
3940.55346313,0.01184888
3942.48227051,0.01136946
3944.41107788,0.01147683
3946.33988525,0.01173037
3948.26869263,0.01138064
3950.19750000,0.01129824
3952.12630737,0.01156063
3954.05511475,0.01158240
3955.98392212,0.01156037
3957.91272949,0.01158687
3959.84153687,0.01159749
3961.77034424,0.01153501
3963.69915161,0.01138020
3965.62795898,0.01153125
3967.55676636,0.01141086
3969.48557373,0.01135802
3971.41438110,0.01141219
3973.34318848,0.01137281
3975.27199585,0.01138940
3977.20080322,0.01122979
3979.12961060,0.01134235
3981.05841797,0.01125148
3982.98722534,0.01128687
3984.91603271,0.01134602
3986.84484009,0.01124682
3988.77364746,0.01124805
3990.70245483,0.01100592
3992.63126221,0.01114520
3994.56006958,0.01106692
3996.48887695,0.01098668
3998.41768433,0.01114979
4000.34649170,0.01102268
4002.27529907,0.01101704
4004.20410645,0.01103501
4006.13291382,0.01102298
4008.06172119,0.01093928
4009.99052856,0.01102818
4011.91933594,0.01096705
4013.84814331,0.01082104
4015.77695068,0.01087054
4017.70575806,0.01075477
4019.63456543,0.01073374
4021.56337280,0.01076060
4023.49218018,0.01080601
4025.42098755,0.01074035
4027.34979492,0.01072375
4029.27860229,0.01079219
4031.20740967,0.01075814
4033.13621704,0.01069673
4035.06502441,0.01064970
4036.99383179,0.01066619
4038.92263916,0.01047838
4040.85144653,0.01055177
4042.78025391,0.01061284
4044.70906128,0.01049291
4046.63786865,0.01053555
4048.56667603,0.01046464
4050.49548340,0.01046199
4052.42429077,0.01037353
4054.35309814,0.01046405
4056.28190552,0.01053326
4058.21071289,0.01029920
4060.13952026,0.01033130
4062.06832764,0.01045620
4063.99713501,0.01033191
4065.92594238,0.01024534
4067.85474976,0.01036086
4069.78355713,0.01025198
4071.71236450,0.01021303
4073.64117187,0.01023754
4075.56997925,0.01017582
4077.49878662,0.01016487
4079.42759399,0.01009971
4081.35640137,0.01008223
4083.28520874,0.00998770
4085.21401611,0.01005484
4087.14282349,0.01001272
4089.07163086,0.01001965
4091.00043823,0.01007232
4092.92924561,0.00987748
4094.85805298,0.00996700
4096.78686035,0.00993806
4098.71566772,0.00990302
4100.64447510,0.00983038
4102.57328247,0.00978460
4104.50208984,0.00986373
4106.43089722,0.00973928
4108.35970459,0.00979504
4110.28851196,0.00976005
4112.21731934,0.00976597
4114.14612671,0.00975083
4116.07493408,0.00964795
4118.00374145,0.00966493
4119.93254883,0.00968229
4121.86135620,0.00968928
4123.79016357,0.00952715
4125.71897095,0.00959639
4127.64777832,0.00958344
4129.57658569,0.00952366
4131.50539307,0.00960895
4133.43420044,0.00949771
4135.36300781,0.00946687
4137.29181519,0.00947351
4139.22062256,0.00953019
4141.14942993,0.00945740
4143.07823730,0.00934413
4145.00704468,0.00930404
4146.93585205,0.00930979
4148.86465942,0.00933459
4150.79346680,0.00922996
4152.72227417,0.00933785
4154.65108154,0.00931501
4156.57988892,0.00919401
4158.50869629,0.00923244
4160.43750366,0.00917924
4162.36631103,0.00913683
4164.29511841,0.00918362
4166.22392578,0.00916450
4168.15273315,0.00906021
4170.08154053,0.00911184
4172.01034790,0.00907793
4173.93915527,0.00906236
4175.86796265,0.00908010
4177.79677002,0.00899508
4179.72557739,0.00900229
4181.65438477,0.00897565
4183.58319214,0.00899338
4185.51199951,0.00891273
4187.44080688,0.00889288
4189.36961426,0.00892617
4191.29842163,0.00885373
4193.22722900,0.00888163
4195.15603638,0.00884241
4197.08484375,0.00875958
4199.01365112,0.00877982
4200.94245850,0.00891296
4202.87126587,0.00877777
4204.80007324,0.00864391
4206.72888062,0.00872185
4208.65768799,0.00869801
4210.58649536,0.00869568
4212.51530273,0.00857289
4214.44411011,0.00864156
4216.37291748,0.00871786
4218.30172485,0.00859492
4220.23053223,0.00860346
4222.15933960,0.00857835
4224.08814697,0.00856780
4226.01695435,0.00851676
4227.94576172,0.00847316
4229.87456909,0.00844144
4231.80337646,0.00845529
4233.73218384,0.00844358
4235.66099121,0.00835108
4237.58979858,0.00839158
4239.51860596,0.00834575
4241.44741333,0.00836191
4243.37622070,0.00836556
4245.30502808,0.00825940
4247.23383545,0.00830036
4249.16264282,0.00828458
4251.09145020,0.00826635
4253.02025757,0.00828527
4254.94906494,0.00818450
4256.87787231,0.00815605
4258.80667969,0.00815604
4260.73548706,0.00811263
4262.66429443,0.00821644
4264.59310181,0.00814536
4266.52190918,0.00804111
4268.45071655,0.00808922
4270.37952393,0.00802434
4272.30833130,0.00806926
4274.23713867,0.00804960
4276.16594604,0.00793940
4278.09475342,0.00789761
4280.02356079,0.00792058
4281.95236816,0.00792580
4283.88117554,0.00785512
4285.80998291,0.00792743
4287.73879028,0.00785186
4289.66759766,0.00776154
4291.59640503,0.00783146
4293.52521240,0.00781226
4295.45401978,0.00776775
4297.38282715,0.00774065
4299.31163452,0.00773606
4301.24044189,0.00771930
4303.16924927,0.00779223
4305.09805664,0.00780467
4307.02686401,0.00769370
4308.95567139,0.00763062
4310.88447876,0.00762526
4312.81328613,0.00762020
4314.74209351,0.00756509
4316.67090088,0.00759393
4318.59970825,0.00760346
4320.52851562,0.00757660
4322.45732300,0.00754577
4324.38613037,0.00756540
4326.31493774,0.00759518
4328.24374512,0.00751660
4330.17255249,0.00751046
4332.10135986,0.00745833
4334.03016724,0.00742381
4335.95897461,0.00744765
4337.88778198,0.00742185
4339.81658936,0.00740962
4341.74539673,0.00744655
4343.67420410,0.00746660
4345.60301147,0.00738845
4347.53181885,0.00735120
4349.46062622,0.00728067
4351.38943359,0.00733127
4353.31824097,0.00736216
4355.24704834,0.00728919
4357.17585571,0.00731429
4359.10466309,0.00718635
4361.03347046,0.00718184
4362.96227783,0.00721080
4364.89108520,0.00716589
4366.81989258,0.00720975
4368.74869995,0.00719520
4370.67750732,0.00713282
4372.60631470,0.00706280
4374.53512207,0.00710210
4376.46392944,0.00705676
4378.39273682,0.00708648
4380.32154419,0.00707699
4382.25035156,0.00698746
4384.17915894,0.00707129
4386.10796631,0.00688641
4388.03677368,0.00689367
4389.96558105,0.00697751
4391.89438843,0.00684198
4393.82319580,0.00695196
4395.75200317,0.00694378
4397.68081055,0.00690536
4399.60961792,0.00688416
4401.53842529,0.00684298
4403.46723267,0.00690045
4405.39604004,0.00680527
4407.32484741,0.00679823
4409.25365478,0.00681266
4411.18246216,0.00676813
4413.11126953,0.00675204
4415.04007690,0.00669436
4416.96888428,0.00682514
4418.89769165,0.00679008
4420.82649902,0.00665729
4422.75530640,0.00672845
4424.68411377,0.00666652
4426.61292114,0.00664316
4428.54172852,0.00661914
4430.47053589,0.00658824
4432.39934326,0.00660443
4434.32815063,0.00659994
4436.25695801,0.00664564
4438.18576538,0.00656254
4440.11457275,0.00653661
4442.04338013,0.00646783
4443.97218750,0.00645541
4445.90099487,0.00653422
4447.82980225,0.00647923
4449.75860962,0.00654632
4451.68741699,0.00644779
4453.61622437,0.00644160
4455.54503174,0.00650405
4457.47383911,0.00636972
4459.40264648,0.00644703
4461.33145386,0.00639293
4463.26026123,0.00631274
4465.18906860,0.00636107
4467.11787598,0.00631399
4469.04668335,0.00635585
4470.97549072,0.00633032
4472.90429810,0.00624199
4474.83310547,0.00633269
4476.76191284,0.00633613
4478.69072021,0.00623813
4480.61952759,0.00622919
4482.54833496,0.00617815
4484.47714233,0.00619913
4486.40594971,0.00619607
4488.33475708,0.00618016
4490.26356445,0.00617922
4492.19237183,0.00605473
4494.12117920,0.00606597
4496.04998657,0.00611211
4497.97879395,0.00609232
4499.90760132,0.00601315
4501.83640869,0.00601897
4503.76521606,0.00608943
4505.69402344,0.00602728
4507.62283081,0.00601547
4509.55163818,0.00598910
4511.48044556,0.00599782
4513.40925293,0.00594554
4515.33806030,0.00590500
4517.26686768,0.00592242
4519.19567505,0.00582038
4521.12448242,0.00589996
4523.05328979,0.00593096
4524.98209717,0.00584916
4526.91090454,0.00584166
4528.83971191,0.00581079
4530.76851929,0.00581245
4532.69732666,0.00583870
4534.62613403,0.00579647
4536.55494141,0.00572768
4538.48374878,0.00572956
4540.41255615,0.00570353
4542.34136353,0.00575753
4544.27017090,0.00574753
4546.19897827,0.00570034
4548.12778564,0.00572977
4550.05659302,0.00559551
4551.98540039,0.00560855
4553.91420776,0.00561997
4555.84301514,0.00551319
4557.77182251,0.00557548
4559.70062988,0.00559034
4561.62943726,0.00551804
4563.55824463,0.00552494
4565.48705200,0.00554287
4567.41585937,0.00555942
4569.34466675,0.00561230
4571.27347412,0.00553854
4573.20228149,0.00553317
4575.13108887,0.00556518
4577.05989624,0.00545599
4578.98870361,0.00540135
4580.91751099,0.00539488
4582.84631836,0.00543007
4584.77512573,0.00543967
4586.70393311,0.00538142
4588.63274048,0.00531619
4590.56154785,0.00537001
4592.49035522,0.00533916
4594.41916260,0.00529997
4596.34796997,0.00541981
4598.27677734,0.00533096
4600.20558472,0.00532850
4602.13439209,0.00533734
4604.06319946,0.00527035
4605.99200684,0.00525047
4607.92081421,0.00518500
4609.84962158,0.00522829
4611.77842895,0.00518911
4613.70723633,0.00517463
4615.63604370,0.00509439
4617.56485107,0.00510097
4619.49365845,0.00517266
4621.42246582,0.00509005
4623.35127319,0.00516609
4625.28008057,0.00512276
4627.20888794,0.00516276
4629.13769531,0.00515749
4631.06650269,0.00503975
4632.99531006,0.00510442
4634.92411743,0.00508029
4636.85292480,0.00508226
4638.78173218,0.00498676
4640.71053955,0.00494969
4642.63934692,0.00503071
4644.56815430,0.00501480
4646.49696167,0.00499060
4648.42576904,0.00498107
4650.35457642,0.00499545
4652.28338379,0.00501001
4654.21219116,0.00504350
4656.14099853,0.00493310
4658.06980591,0.00487818
4659.99861328,0.00488167
4661.92742065,0.00492888
4663.85622803,0.00494522
4665.78503540,0.00478423
4667.71384277,0.00485649
4669.64265015,0.00485303
4671.57145752,0.00482201
4673.50026489,0.00478286
4675.42907227,0.00470782
4677.35787964,0.00481870
4679.28668701,0.00472596
4681.21549438,0.00475521
4683.14430176,0.00481892
4685.07310913,0.00471142
4687.00191650,0.00467679
4688.93072388,0.00469707
4690.85953125,0.00472735
4692.78833862,0.00469721
4694.71714600,0.00470336
4696.64595337,0.00462392
4698.57476074,0.00465846
4700.50356812,0.00468832
4702.43237549,0.00459832
4704.36118286,0.00467314
4706.28999023,0.00461799
4708.21879761,0.00454438
4710.14760498,0.00459803
4712.07641235,0.00462655
4714.00521973,0.00457523
4715.93402710,0.00453585
4717.86283447,0.00456850
4719.79164185,0.00454697
4721.72044922,0.00452323
4723.64925659,0.00454394
4725.57806396,0.00457406
4727.50687134,0.00446834
4729.43567871,0.00438733
4731.36448608,0.00446324
4733.29329346,0.00451328
4735.22210083,0.00449635
4737.15090820,0.00445500
4739.07971558,0.00446988
4741.00852295,0.00445487
4742.93733032,0.00444025
4744.86613770,0.00440673
4746.79494507,0.00433534
4748.72375244,0.00435284
4750.65255981,0.00433841
4752.58136719,0.00432877
4754.51017456,0.00436184
4756.43898193,0.00431106
4758.36778931,0.00432444
4760.29659668,0.00436788
4762.22540405,0.00426572
4764.15421143,0.00430468
4766.08301880,0.00433929
4768.01182617,0.00425379
4769.94063354,0.00429681
4771.86944092,0.00430067
4773.79824829,0.00428441
4775.72705566,0.00422561
4777.65586304,0.00423942
4779.58467041,0.00424076
4781.51347778,0.00415000
4783.44228516,0.00424929
4785.37109253,0.00419055
4787.29989990,0.00409720
4789.22870728,0.00415509
4791.15751465,0.00415642
4793.08632202,0.00414846
4795.01512939,0.00410150
4796.94393677,0.00405344
4798.87274414,0.00403305
4800.80155151,0.00409359
4802.73035889,0.00409619
4804.65916626,0.00404735
4806.58797363,0.00409049
4808.51678101,0.00406482
4810.44558838,0.00404231
4812.37439575,0.00411431
4814.30320312,0.00406990
4816.23201050,0.00400909
4818.16081787,0.00403807
4820.08962524,0.00398208
4822.01843262,0.00404930
4823.94723999,0.00402507
4825.87604736,0.00389955
4827.80485474,0.00394482
4829.73366211,0.00390985
4831.66246948,0.00399627
4833.59127686,0.00396028
4835.52008423,0.00378857
4837.44889160,0.00380932
4839.37769897,0.00383378
4841.30650635,0.00386744
4843.23531372,0.00378356
4845.16412109,0.00380455
4847.09292847,0.00391244
4849.02173584,0.00383190
4850.95054321,0.00380905
4852.87935059,0.00381541
4854.80815796,0.00374790
4856.73696533,0.00378960
4858.66577270,0.00382496
4860.59458008,0.00375874
4862.52338745,0.00377417
4864.45219482,0.00374370
4866.38100220,0.00380153
4868.30980957,0.00379842
4870.23861694,0.00369972
4872.16742432,0.00376215
4874.09623169,0.00369768
4876.02503906,0.00375303
4877.95384644,0.00371443
4879.88265381,0.00361307
4881.81146118,0.00373370
4883.74026855,0.00365793
4885.66907593,0.00358912
4887.59788330,0.00357472
4889.52669067,0.00364459
4891.45549805,0.00367060
4893.38430542,0.00357399
4895.31311279,0.00361301
4897.24192017,0.00359539
4899.17072754,0.00359605
4901.09953491,0.00363011
4903.02834228,0.00356797
4904.95714966,0.00352964
4906.88595703,0.00355544
4908.81476440,0.00352662
4910.74357178,0.00350571
4912.67237915,0.00349873
4914.60118652,0.00357004
4916.52999390,0.00363524
4918.45880127,0.00347284
4920.38760864,0.00349519
4922.31641602,0.00345509
4924.24522339,0.00342586
4926.17403076,0.00351976
4928.10283813,0.00338062
4930.03164551,0.00346754
4931.96045288,0.00342012
4933.88926025,0.00334206
4935.81806763,0.00347187
4937.74687500,0.00340993
4939.67568237,0.00338495
4941.60448975,0.00337889
4943.53329712,0.00341632
4945.46210449,0.00339491
4947.39091187,0.00333901
4949.31971924,0.00332413
4951.24852661,0.00335319
4953.17733398,0.00339412
4955.10614136,0.00324332
4957.03494873,0.00325115
4958.96375610,0.00327863
4960.89256348,0.00322612
4962.82137085,0.00323785
4964.75017822,0.00322107
4966.67898560,0.00324158
4968.60779297,0.00319731
4970.53660034,0.00325804
4972.46540771,0.00325366
4974.39421509,0.00313692
4976.32302246,0.00316576
4978.25182983,0.00313444
4980.18063721,0.00317853
4982.10944458,0.00319495
4984.03825195,0.00311379
4985.96705933,0.00314338
4987.89586670,0.00308470
4989.82467407,0.00314356
4991.75348145,0.00326154
4993.68228882,0.00314037
4995.61109619,0.00308531
4997.53990356,0.00312836
4999.46871094,0.00312995
5001.39751831,0.00305640
5003.32632568,0.00305416
5005.25513306,0.00313582
5007.18394043,0.00312088
5009.11274780,0.00307767
5011.04155518,0.00303294
5012.97036255,0.00305352
5014.89916992,0.00298716
5016.82797729,0.00299849
5018.75678467,0.00304200
5020.68559204,0.00291723
5022.61439941,0.00303281
5024.54320679,0.00303553
5026.47201416,0.00298860
5028.40082153,0.00301738
5030.32962891,0.00291755
5032.25843628,0.00297214
5034.18724365,0.00295297
5036.11605103,0.00288665
5038.04485840,0.00286712
5039.97366577,0.00290581
5041.90247314,0.00292611
5043.83128052,0.00287097
5045.76008789,0.00290110
5047.68889526,0.00290073
5049.61770264,0.00291348
5051.54651001,0.00283929
5053.47531738,0.00282970
5055.40412476,0.00290452
5057.33293213,0.00290208
5059.26173950,0.00290274
5061.19054687,0.00286440
5063.11935425,0.00285364
5065.04816162,0.00277126
5066.97696899,0.00278999
5068.90577637,0.00282316
5070.83458374,0.00275525
5072.76339111,0.00275441
5074.69219849,0.00275649
5076.62100586,0.00277339
5078.54981323,0.00274651
5080.47862061,0.00279720
5082.40742798,0.00273901
5084.33623535,0.00267880
5086.26504272,0.00274692
5088.19385010,0.00274684
5090.12265747,0.00276106
5092.05146484,0.00271479
5093.98027222,0.00278187
5095.90907959,0.00275316
5097.83788696,0.00270989
5099.76669434,0.00271584
5101.69550171,0.00262302
5103.62430908,0.00270749
5105.55311645,0.00269316
5107.48192383,0.00267976
5109.41073120,0.00261742
5111.33953857,0.00259591
5113.26834595,0.00267215
5115.19715332,0.00256355
5117.12596069,0.00261007
5119.05476807,0.00259527
5120.98357544,0.00257027
5122.91238281,0.00262816
5124.84119019,0.00258386
5126.76999756,0.00259854
5128.69880493,0.00261503
5130.62761230,0.00259129
5132.55641968,0.00256608
5134.48522705,0.00256465
5136.41403442,0.00252371
5138.34284180,0.00256906
5140.27164917,0.00252683
5142.20045654,0.00247402
5144.12926392,0.00260162
5146.05807129,0.00251249
5147.98687866,0.00246600
5149.91568603,0.00252120
5151.84449341,0.00247969
5153.77330078,0.00246036
5155.70210815,0.00245583
5157.63091553,0.00243842
5159.55972290,0.00242371
5161.48853027,0.00246135
5163.41733765,0.00243645
5165.34614502,0.00243926
5167.27495239,0.00248088
5169.20375977,0.00245234
5171.13256714,0.00243592
5173.06137451,0.00248509
5174.99018188,0.00249873
5176.91898926,0.00243670
5178.84779663,0.00238757
5180.77660400,0.00237141
5182.70541138,0.00244024
5184.63421875,0.00235976
5186.56302612,0.00234002
5188.49183350,0.00240186
5190.42064087,0.00228877
5192.34944824,0.00237594
5194.27825562,0.00240350
5196.20706299,0.00231495
5198.13587036,0.00230039
5200.06467773,0.00230547
5201.99348511,0.00230108
5203.92229248,0.00225127
5205.85109985,0.00229790
5207.77990723,0.00224652
5209.70871460,0.00224251
5211.63752197,0.00230091
5213.56632935,0.00231281
5215.49513672,0.00228335
5217.42394409,0.00217371
5219.35275146,0.00225857
5221.28155884,0.00232239
5223.21036621,0.00230375
5225.13917358,0.00225213
5227.06798096,0.00224621
5228.99678833,0.00225665
5230.92559570,0.00214400
5232.85440308,0.00222407
5234.78321045,0.00227557
5236.71201782,0.00224755
5238.64082520,0.00222802
5240.56963257,0.00221914
5242.49843994,0.00222959
5244.42724731,0.00210883
5246.35605469,0.00217713
5248.28486206,0.00216540
5250.21366943,0.00202768
5252.14247681,0.00217006
5254.07128418,0.00220467
5256.00009155,0.00212039
5257.92889893,0.00216461
5259.85770630,0.00217612
5261.78651367,0.00210589
5263.71532104,0.00204051
5265.64412842,0.00206812
5267.57293579,0.00213981
5269.50174316,0.00212236
5271.43055054,0.00210035
5273.35935791,0.00210939
5275.28816528,0.00206247
5277.21697266,0.00209293
5279.14578003,0.00219143
5281.07458740,0.00207574
5283.00339478,0.00202144
5284.93220215,0.00213586
5286.86100952,0.00206620
5288.78981689,0.00207792
5290.71862427,0.00204595
5292.64743164,0.00197245
5294.57623901,0.00206619
5296.50504639,0.00203680
5298.43385376,0.00209480
5300.36266113,0.00206758
5302.29146851,0.00199297
5304.22027588,0.00207194
5306.14908325,0.00201740
5308.07789062,0.00198394
5310.00669800,0.00195175
5311.93550537,0.00195721
5313.86431274,0.00203378
5315.79312012,0.00204626
5317.72192749,0.00200189
5319.65073486,0.00196029
5321.57954224,0.00198941
5323.50834961,0.00196825
5325.43715698,0.00191403
5327.36596436,0.00192540
5329.29477173,0.00200035
5331.22357910,0.00196560
5333.15238647,0.00188749
5335.08119385,0.00194760
5337.01000122,0.00193998
5338.93880859,0.00181828
5340.86761597,0.00186922
5342.79642334,0.00194531
5344.72523071,0.00181259
5346.65403809,0.00186013
5348.58284546,0.00190434
5350.51165283,0.00191064
5352.44046020,0.00187116
5354.36926758,0.00167932
5356.29807495,0.00183858
5358.22688232,0.00185513
5360.15568970,0.00185786
5362.08449707,0.00195736
5364.01330444,0.00182490
5365.94211182,0.00188294
5367.87091919,0.00186283
5369.79972656,0.00186757
5371.72853394,0.00184884
5373.65734131,0.00175527
5375.58614868,0.00176873
5377.51495605,0.00173579
5379.44376343,0.00173858
5381.37257080,0.00171453
5383.30137817,0.00185895
5385.23018555,0.00181863
5387.15899292,0.00169147
5389.08780029,0.00181926
5391.01660767,0.00177251
5392.94541504,0.00174873
5394.87422241,0.00176963
5396.80302978,0.00171207
5398.73183716,0.00170092
5400.66064453,0.00177556
5402.58945190,0.00173516
5404.51825928,0.00170227
5406.44706665,0.00176224
5408.37587402,0.00171262
5410.30468140,0.00173977
5412.23348877,0.00167430
5414.16229614,0.00169776
5416.09110352,0.00169297
5418.01991089,0.00163455
5419.94871826,0.00176522
5421.87752563,0.00165927
5423.80633301,0.00168713
5425.73514038,0.00171518
5427.66394775,0.00163072
5429.59275513,0.00169835
5431.52156250,0.00169795
5433.45036987,0.00169085
5435.37917725,0.00157127
5437.30798462,0.00155936
5439.23679199,0.00159506
5441.16559936,0.00158527
5443.09440674,0.00166897
5445.02321411,0.00162943
5446.95202148,0.00160970
5448.88082886,0.00164196
5450.80963623,0.00166528
5452.73844360,0.00166448
5454.66725098,0.00164288
5456.59605835,0.00164179
5458.52486572,0.00161718
5460.45367310,0.00160654
5462.38248047,0.00159455
5464.31128784,0.00154376
5466.24009521,0.00156135
5468.16890259,0.00164398
5470.09770996,0.00159807
5472.02651733,0.00157839
5473.95532471,0.00152667
5475.88413208,0.00148589
5477.81293945,0.00161268
5479.74174683,0.00155565
5481.67055420,0.00151075
5483.59936157,0.00158426
5485.52816895,0.00158802
5487.45697632,0.00157754
5489.38578369,0.00159010
5491.31459106,0.00154957
5493.24339844,0.00152184
5495.17220581,0.00160610
5497.10101318,0.00145684
5499.02982056,0.00143425
5500.95862793,0.00155232
5502.88743530,0.00146413
5504.81624268,0.00153440
5506.74505005,0.00149483
5508.67385742,0.00144838
5510.60266479,0.00149509
5512.53147217,0.00145807
5514.46027954,0.00150818
5516.38908691,0.00145358
5518.31789429,0.00143760
5520.24670166,0.00143567
5522.17550903,0.00140967
5524.10431641,0.00148636
5526.03312378,0.00146167
5527.96193115,0.00147652
5529.89073853,0.00144986
5531.81954590,0.00133457
5533.74835327,0.00139683
5535.67716064,0.00146274
5537.60596802,0.00141211
5539.53477539,0.00143831
5541.46358276,0.00148675
5543.39239014,0.00141597
5545.32119751,0.00140878
5547.25000488,0.00139852
5549.17881226,0.00133381
5551.10761963,0.00143417
5553.03642700,0.00144539
5554.96523437,0.00135160
5556.89404175,0.00138077
5558.82284912,0.00137474
5560.75165649,0.00135120
5562.68046387,0.00141715
5564.60927124,0.00146046
5566.53807861,0.00137272
5568.46688599,0.00135859
5570.39569336,0.00139636
5572.32450073,0.00130052
5574.25330811,0.00133586
5576.18211548,0.00139313
5578.11092285,0.00134558
5580.03973022,0.00134304
5581.96853760,0.00132512
5583.89734497,0.00137608
5585.82615234,0.00134544
5587.75495972,0.00128233
5589.68376709,0.00139746
5591.61257446,0.00136428
5593.54138184,0.00127665
5595.47018921,0.00130949
5597.39899658,0.00130451
5599.32780395,0.00132897
5601.25661133,0.00134390
5603.18541870,0.00134246
5605.11422607,0.00132965
5607.04303345,0.00128506
5608.97184082,0.00124647
5610.90064819,0.00117106
5612.82945557,0.00120151
5614.75826294,0.00130091
5616.68707031,0.00134024
5618.61587769,0.00126931
5620.54468506,0.00120622
5622.47349243,0.00130390
5624.40229980,0.00127749
5626.33110718,0.00127857
5628.25991455,0.00132197
5630.18872192,0.00121321
5632.11752930,0.00124456
5634.04633667,0.00127499
5635.97514404,0.00126042
5637.90395142,0.00127034
5639.83275879,0.00121839
5641.76156616,0.00123116
5643.69037353,0.00124972
5645.61918091,0.00119568
5647.54798828,0.00117255
5649.47679565,0.00122243
5651.40560303,0.00120196
5653.33441040,0.00117300
5655.26321777,0.00124659
5657.19202515,0.00128963
5659.12083252,0.00128814
5661.04963989,0.00122909
5662.97844727,0.00116536
5664.90725464,0.00124381
5666.83606201,0.00124751
5668.76486938,0.00116396
5670.69367676,0.00124316
5672.62248413,0.00119751
5674.55129150,0.00114151
5676.48009888,0.00123766
5678.40890625,0.00119891
5680.33771362,0.00117185
5682.26652100,0.00112493
5684.19532837,0.00113462
5686.12413574,0.00116595
5688.05294311,0.00110954
5689.98175049,0.00117175
5691.91055786,0.00115703
5693.83936523,0.00115328
5695.76817261,0.00118015
5697.69697998,0.00113468
5699.62578735,0.00110345
5701.55459473,0.00108238
5703.48340210,0.00107060
5705.41220947,0.00104778
5707.34101685,0.00114410
5709.26982422,0.00112668
5711.19863159,0.00113114
5713.12743896,0.00119239
5715.05624634,0.00105245
5716.98505371,0.00109887
5718.91386108,0.00111740
5720.84266846,0.00107587
5722.77147583,0.00109839
5724.70028320,0.00106604
5726.62909058,0.00110995
5728.55789795,0.00105519
5730.48670532,0.00108203
5732.41551270,0.00111103
5734.34432007,0.00101527
5736.27312744,0.00101472
5738.20193481,0.00101554
5740.13074219,0.00109431
5742.05954956,0.00108905
5743.98835693,0.00102753
5745.91716431,0.00105235
5747.84597168,0.00104099
5749.77477905,0.00106731
5751.70358643,0.00099131
5753.63239380,0.00100590
5755.56120117,0.00105687
5757.49000854,0.00093691
5759.41881592,0.00102543
5761.34762329,0.00105666
5763.27643066,0.00099531
5765.20523804,0.00101683
5767.13404541,0.00097742
5769.06285278,0.00103410
5770.99166016,0.00104543
5772.92046753,0.00104876
5774.84927490,0.00103969
5776.77808228,0.00099122
5778.70688965,0.00104699
5780.63569702,0.00101326
5782.56450439,0.00099745
5784.49331177,0.00097614
5786.42211914,0.00093270
5788.35092651,0.00098723
5790.27973389,0.00097362
5792.20854126,0.00093961
5794.13734863,0.00095982
5796.06615601,0.00099026
5797.99496338,0.00102099
5799.92377075,0.00098935
5801.85257812,0.00090786
5803.78138550,0.00097233
5805.71019287,0.00098414
5807.63900024,0.00093232
5809.56780762,0.00098220
5811.49661499,0.00090797
5813.42542236,0.00094965
5815.35422974,0.00097615
5817.28303711,0.00090924
5819.21184448,0.00095286
5821.14065186,0.00088552
5823.06945923,0.00091109
5824.99826660,0.00096654
5826.92707397,0.00093177
5828.85588135,0.00094263
5830.78468872,0.00095471
5832.71349609,0.00095416
5834.64230347,0.00094547
5836.57111084,0.00095769
5838.49991821,0.00092860
5840.42872559,0.00088690
5842.35753296,0.00088795
5844.28634033,0.00095261
5846.21514770,0.00090859
5848.14395508,0.00086475
5850.07276245,0.00094300
5852.00156982,0.00091122
5853.93037720,0.00091715
5855.85918457,0.00084751
5857.78799194,0.00079858
5859.71679932,0.00087453
5861.64560669,0.00087237
5863.57441406,0.00089179
5865.50322144,0.00087654
5867.43202881,0.00088602
5869.36083618,0.00085018
5871.28964355,0.00083669
5873.21845093,0.00088947
5875.14725830,0.00090241
5877.07606567,0.00089613
5879.00487305,0.00078107
5880.93368042,0.00084923
5882.86248779,0.00092461
5884.79129517,0.00084435
5886.72010254,0.00086169
5888.64890991,0.00084648
5890.57771728,0.00082985
5892.50652466,0.00083875
5894.43533203,0.00079737
5896.36413940,0.00079694
5898.29294678,0.00083389
5900.22175415,0.00081059
5902.15056152,0.00083639
5904.07936890,0.00081454
5906.00817627,0.00077481
5907.93698364,0.00081149
5909.86579102,0.00077740
5911.79459839,0.00081215
5913.72340576,0.00079789
5915.65221313,0.00083357
5917.58102051,0.00083567
5919.50982788,0.00073360
5921.43863525,0.00084165
5923.36744263,0.00085192
5925.29625000,0.00081228
5927.22505737,0.00077152
5929.15386475,0.00074979
5931.08267212,0.00077331
5933.01147949,0.00076810
5934.94028686,0.00085039
5936.86909424,0.00078380
5938.79790161,0.00077977
5940.72670898,0.00079307
5942.65551636,0.00073835
5944.58432373,0.00078123
5946.51313110,0.00072936
5948.44193848,0.00071054
5950.37074585,0.00072323
5952.29955322,0.00075587
5954.22836060,0.00075421
5956.15716797,0.00071033
5958.08597534,0.00072269
5960.01478271,0.00073864
5961.94359009,0.00074526
5963.87239746,0.00073470
5965.80120483,0.00079248
5967.73001221,0.00073927
5969.65881958,0.00071450
5971.58762695,0.00077447
5973.51643433,0.00071345
5975.44524170,0.00074546
5977.37404907,0.00076031
5979.30285645,0.00073366
5981.23166382,0.00075283
5983.16047119,0.00072497
5985.08927856,0.00070812
5987.01808594,0.00072840
5988.94689331,0.00069992
5990.87570068,0.00069685
5992.80450806,0.00074657
5994.73331543,0.00069767
5996.66212280,0.00067392
5998.59093018,0.00067496
6000.51973755,0.00070220
