399.26312622,0.00019245
401.19193359,0.00098792
403.12074097,0.00068917
405.04954834,0.00093726
406.97835571,0.00087056
408.90716309,0.00031525
410.83597046,0.00108816
412.76477783,0.00073997
414.69358521,0.00053394
416.62239258,0.00060453
418.55119995,0.00066548
420.48000732,0.00070262
422.40881470,0.00109953
424.33762207,0.00132298
426.26642944,0.00078273
428.19523682,0.00109227
430.12404419,0.00106896
432.05285156,0.00128188
433.98165894,0.00101068
435.91046631,0.00105047
437.83927368,0.00123912
439.76808105,0.00033173
441.69688843,0.00110539
443.62569580,0.00110116
445.55450317,0.00069818
447.48331055,0.00116984
449.41211792,0.00102763
451.34092529,0.00035028
453.26973267,0.00005220
455.19854004,0.00070081
457.12734741,0.00048646
459.05615479,0.00076110
460.98496216,0.00082957
462.91376953,0.00046282
464.84257690,0.00063938
466.77138428,0.00052068
468.70019165,0.00082721
470.62899902,0.00051854
472.55780640,0.00032174
474.48661377,0.00032230
476.41542114,0.00031690
478.34422852,0.00057165
480.27303589,0.00041706
482.20184326,0.00010387
484.13065063,0.00022467
486.05945801,0.00018372
487.98826538,-0.00023092
489.91707275,0.00034617
491.84588013,0.00032555
493.77468750,0.00041908
495.70349487,0.00068809
497.63230225,0.00015906
499.56110962,0.00014112
501.48991699,0.00001200
503.41872437,0.00002712
505.34753174,-0.00002347
507.27633911,0.00049599
509.20514648,0.00046289
511.13395386,0.00010442
513.06276123,0.00062215
514.99156860,0.00042184
516.92037598,0.00048445
518.84918335,-0.00009814
520.77799072,-0.00005768
522.70679810,0.00055051
524.63560547,0.00012900
526.56441284,0.00045336
528.49322021,-0.00005442
530.42202759,0.00018321
532.35083496,0.00041130
534.27964233,0.00006346
536.20844971,0.00039862
538.13725708,-0.00002710
540.06606445,0.00027243
541.99487183,0.00034438
543.92367920,0.00042228
545.85248657,0.00043742
547.78129395,0.00000296
549.71010132,0.00047906
551.63890869,0.00016959
553.56771606,0.00012729
555.49652344,0.00053831
557.42533081,0.00031956
559.35413818,0.00045815
561.28294556,0.00040467
563.21175293,0.00004092
565.14056030,-0.00017079
567.06936768,-0.00015544
568.99817505,0.00015597
570.92698242,0.00024791
572.85578979,0.00014042
574.78459717,0.00013236
576.71340454,0.00021244
578.64221191,0.00014355
580.57101929,0.00013326
582.49982666,0.00023505
584.42863403,0.00015358
586.35744141,0.00045583
588.28624878,0.00027287
590.21505615,0.00006166
592.14386353,0.00034167
594.07267090,-0.00004173
596.00147827,0.00014603
597.93028564,0.00023837
599.85909302,-0.00001752
601.78790039,0.00014825
603.71670776,0.00024945
605.64551514,0.00019023
607.57432251,0.00019146
609.50312988,0.00008156
611.43193726,-0.00012116
613.36074463,0.00034700
615.28955200,0.00031791
617.21835938,0.00011153
619.14716675,0.00000518
621.07597412,0.00016762
623.00478149,0.00011393
624.93358887,0.00008987
626.86239624,0.00009520
628.79120361,-0.00009323
630.72001099,0.00030002
632.64881836,0.00058816
634.57762573,0.00066271
636.50643311,0.00102136
638.43524048,0.00101613
640.36404785,0.00100878
642.29285522,0.00094309
644.22166260,0.00102979
646.15046997,0.00142557
648.07927734,0.00100882
650.00808472,0.00121566
651.93689209,0.00154643
653.86569946,0.00093782
655.79450684,0.00125429
657.72331421,0.00134517
659.65212158,0.00129487
661.58092896,0.00171874
663.50973633,0.00156456
665.43854370,0.00182718
667.36735107,0.00187092
669.29615845,0.00148792
671.22496582,0.00203543
673.15377319,0.00244334
675.08258057,0.00202274
677.01138794,0.00187295
678.94019531,0.00180912
680.86900269,0.00169888
682.79781006,0.00202327
684.72661743,0.00194909
686.65542480,0.00183525
688.58423218,0.00199366
690.51303955,0.00189242
692.44184692,0.00207246
694.37065430,0.00233628
696.29946167,0.00275057
698.22826904,0.00328738
700.15707642,0.00330220
702.08588379,0.00319116
704.01469116,0.00297247
705.94349854,0.00268966
707.87230591,0.00240371
709.80111328,0.00178160
711.72992065,0.00133777
713.65872803,0.00092778
715.58753540,0.00034921
717.51634277,0.00023668
719.44515015,0.00043598
721.37395752,0.00038708
723.30276489,0.00008573
725.23157227,0.00024694
727.16037964,0.00029102
729.08918701,-0.00015250
731.01799438,-0.00004041
732.94680176,0.00011046
734.87560913,0.00015035
736.80441650,0.00039907
738.73322388,0.00043133
740.66203125,0.00017407
742.59083862,-0.00004072
744.51964600,0.00023550
746.44845337,0.00040794
748.37726074,0.00032276
750.30606812,0.00037349
752.23487549,0.00038388
754.16368286,0.00028336
756.09249023,0.00034220
758.02129761,0.00045737
759.95010498,0.00011372
761.87891235,0.00005113
763.80771973,0.00031141
765.73652710,0.00032064
767.66533447,0.00032290
769.59414185,0.00011607
771.52294922,0.00014284
773.45175659,0.00034178
775.38056396,0.00017646
777.30937134,0.00018956
779.23817871,0.00038074
781.16698608,0.00021665
783.09579346,0.00016753
785.02460083,0.00044306
786.95340820,0.00037813
788.88221558,0.00024350
790.81102295,0.00016351
792.73983032,0.00013379
794.66863770,0.00000183
796.59744507,-0.00006191
798.52625244,0.00051146
800.45505981,0.00040262
802.38386719,0.00010103
804.31267456,0.00047083
806.24148193,0.00026265
808.17028931,0.00006920
810.09909668,0.00036865
812.02790405,0.00043194
813.95671143,0.00039501
815.88551880,0.00037050
817.81432617,0.00018577
819.74313354,0.00022657
821.67194092,0.00029735
823.60074829,0.00037670
825.52955566,0.00048515
827.45836304,0.00033912
829.38717041,0.00062111
831.31597778,0.00083875
833.24478516,0.00067358
835.17359253,0.00074146
837.10239990,0.00062336
839.03120728,0.00055935
840.96001465,0.00075214
842.88882202,0.00067248
844.81762939,0.00062682
846.74643677,0.00074418
848.67524414,0.00073971
850.60405151,0.00068507
852.53285889,0.00033166
854.46166626,0.00035542
856.39047363,0.00085732
858.31928101,0.00061270
860.24808838,0.00043159
862.17689575,0.00055880
864.10570313,0.00036918
866.03451050,0.00043594
867.96331787,0.00044990
869.89212524,0.00033129
871.82093262,0.00027831
873.74973999,0.00038572
875.67854736,0.00060161
877.60735474,0.00035840
879.53616211,0.00019867
881.46496948,0.00025986
883.39377686,0.00015468
885.32258423,0.00024966
887.25139160,0.00034334
889.18019897,0.00036469
891.10900635,0.00039581
893.03781372,0.00040151
894.96662109,0.00053073
896.89542847,0.00056375
898.82423584,0.00057625
900.75304321,0.00057931
902.68185059,0.00044098
904.61065796,0.00052816
906.53946533,0.00067321
908.46827271,0.00031984
910.39708008,0.00022737
912.32588745,0.00039295
914.25469482,0.00033096
916.18350220,0.00063211
918.11230957,0.00075303
920.04111694,0.00063261
921.96992432,0.00071631
923.89873169,0.00080611
925.82753906,0.00081481
927.75634644,0.00062034
929.68515381,0.00087983
931.61396118,0.00114105
933.54276855,0.00087260
935.47157593,0.00114925
937.40038330,0.00134328
939.32919067,0.00112369
941.25799805,0.00116338
943.18680542,0.00118231
945.11561279,0.00122642
947.04442017,0.00117374
948.97322754,0.00116191
950.90203491,0.00123186
952.83084229,0.00102286
954.75964966,0.00099267
956.68845703,0.00115878
958.61726440,0.00106007
960.54607178,0.00099809
962.47487915,0.00118928
964.40368652,0.00125236
966.33249390,0.00142554
968.26130127,0.00153198
970.19010864,0.00144567
972.11891602,0.00167809
974.04772339,0.00159163
975.97653076,0.00142535
977.90533813,0.00166239
979.83414551,0.00191981
981.76295288,0.00218587
983.69176025,0.00230563
985.62056763,0.00246254
987.54937500,0.00277205
989.47818237,0.00306061
991.40698975,0.00314754
993.33579712,0.00343747
995.26460449,0.00394524
997.19341187,0.00426398
999.12221924,0.00462917
1001.05102661,0.00473736
1002.97983398,0.00510688
1004.90864136,0.00546197
1006.83744873,0.00570977
1008.76625610,0.00651718
1010.69506348,0.00663259
1012.62387085,0.00682958
1014.55267822,0.00744540
1016.48148560,0.00764232
1018.41029297,0.00800491
1020.33910034,0.00845575
1022.26790771,0.00904044
1024.19671509,0.00925478
1026.12552246,0.00924431
1028.05432983,0.00963597
1029.98313721,0.01009607
1031.91194458,0.01047190
1033.84075195,0.01064837
1035.76955933,0.01093009
1037.69836670,0.01096908
1039.62717407,0.01088102
1041.55598145,0.01100104
1043.48478882,0.01070813
1045.41359619,0.01065594
1047.34240356,0.01076643
1049.27121094,0.01047984
1051.20001831,0.01034516
1053.12882568,0.01003185
1055.05763306,0.00970184
1056.98644043,0.00958437
1058.91524780,0.00931324
1060.84405518,0.00917446
1062.77286255,0.00879343
1064.70166992,0.00849580
1066.63047729,0.00834727
1068.55928467,0.00775093
1070.48809204,0.00747760
1072.41689941,0.00722871
1074.34570679,0.00679011
1076.27451416,0.00643792
1078.20332153,0.00630418
1080.13212891,0.00635917
1082.06093628,0.00583314
1083.98974365,0.00542658
1085.91855103,0.00524461
1087.84735840,0.00500530
1089.77616577,0.00494288
1091.70497314,0.00474470
1093.63378052,0.00452773
1095.56258789,0.00410215
1097.49139526,0.00401029
1099.42020264,0.00416961
1101.34901001,0.00400794
1103.27781738,0.00388627
1105.20662476,0.00366356
1107.13543213,0.00372075
1109.06423950,0.00384221
1110.99304687,0.00368056
1112.92185425,0.00359230
1114.85066162,0.00353394
1116.77946899,0.00371100
1118.70827637,0.00373220
1120.63708374,0.00366616
1122.56589111,0.00379198
1124.49469849,0.00367418
1126.42350586,0.00376949
1128.35231323,0.00385171
1130.28112061,0.00383911
1132.20992798,0.00407570
1134.13873535,0.00403233
1136.06754272,0.00416268
1137.99635010,0.00455080
1139.92515747,0.00486673
1141.85396484,0.00509749
1143.78277222,0.00533290
1145.71157959,0.00593551
1147.64038696,0.00625693
1149.56919434,0.00634901
1151.49800171,0.00668674
1153.42680908,0.00700289
1155.35561646,0.00729208
1157.28442383,0.00755263
1159.21323120,0.00780813
1161.14203857,0.00815568
1163.07084595,0.00862332
1164.99965332,0.00888935
1166.92846069,0.00908993
1168.85726807,0.00937568
1170.78607544,0.00979490
1172.71488281,0.01039086
1174.64369019,0.01057166
1176.57249756,0.01085532
1178.50130493,0.01135491
1180.43011230,0.01172735
1182.35891968,0.01224205
1184.28772705,0.01274159
1186.21653442,0.01338393
1188.14534180,0.01396918
1190.07414917,0.01451943
1192.00295654,0.01528448
1193.93176392,0.01612117
1195.86057129,0.01682559
1197.78937866,0.01741145
1199.71818604,0.01830104
1201.64699341,0.01909521
1203.57580078,0.01975299
1205.50460815,0.02051919
1207.43341553,0.02131325
1209.36222290,0.02215184
1211.29103027,0.02279162
1213.21983765,0.02350578
1215.14864502,0.02417145
1217.07745239,0.02450997
1219.00625977,0.02497609
1220.93506714,0.02563461
1222.86387451,0.02583165
1224.79268188,0.02583116
1226.72148926,0.02626413
1228.65029663,0.02630497
1230.57910400,0.02623639
1232.50791138,0.02656811
1234.43671875,0.02648482
1236.36552612,0.02628402
1238.29433350,0.02629894
1240.22314087,0.02621219
1242.15194824,0.02604072
1244.08075562,0.02598004
1246.00956299,0.02593841
1247.93837036,0.02564834
1249.86717773,0.02543521
1251.79598511,0.02541008
1253.72479248,0.02523556
1255.65359985,0.02493565
1257.58240723,0.02461474
1259.51121460,0.02422503
1261.44002197,0.02375220
1263.36882935,0.02350644
1265.29763672,0.02335956
1267.22644409,0.02302003
1269.15525146,0.02272784
1271.08405884,0.02227215
1273.01286621,0.02191062
1274.94167358,0.02160969
1276.87048096,0.02099639
1278.79928833,0.02066693
1280.72809570,0.02025997
1282.65690308,0.01982059
1284.58571045,0.01963905
1286.51451782,0.01922366
1288.44332520,0.01887470
1290.37213257,0.01866203
1292.30093994,0.01845063
1294.22974731,0.01827199
1296.15855469,0.01840035
1298.08736206,0.01853750
1300.01616943,0.01841088
1301.94497681,0.01858200
1303.87378418,0.01857051
1305.80259155,0.01854745
1307.73139893,0.01906752
1309.66020630,0.01956873
1311.58901367,0.01964787
1313.51782104,0.01985600
1315.44662842,0.02061982
1317.37543579,0.02086873
1319.30424316,0.02113960
1321.23305054,0.02220378
1323.16185791,0.02291409
1325.09066528,0.02344600
1327.01947266,0.02411526
1328.94828003,0.02461784
1330.87708740,0.02526381
1332.80589478,0.02598213
1334.73470215,0.02645119
1336.66350952,0.02662389
1338.59231689,0.02633582
1340.52112427,0.02668535
1342.44993164,0.02783129
1344.37873901,0.02803171
1346.30754639,0.02805287
1348.23635376,0.02794816
1350.16516113,0.02762786
1352.09396851,0.02776659
1354.02277588,0.02738723
1355.95158325,0.02718082
1357.88039062,0.02691808
1359.80919800,0.02658039
1361.73800537,0.02548079
1363.66681274,0.02474242
1365.59562012,0.02634630
1367.52442749,0.02576155
1369.45323486,0.02541674
1371.38204224,0.02598044
1373.31084961,0.02422912
1375.23965698,0.02461940
1377.16846436,0.02542724
1379.09727173,0.02542066
1381.02607910,0.02545790
1382.95488647,0.02532404
1384.88369385,0.02540606
1386.81250122,0.02398133
1388.74130859,0.02443601
1390.67011597,0.02671114
1392.59892334,0.02585718
1394.52773071,0.02382195
1396.45653809,0.02511745
1398.38534546,0.02514186
1400.31415283,0.02501805
1402.24296021,0.02744411
1404.17176758,0.02551525
1406.10057495,0.02594870
1408.02938232,0.02714865
1409.95818970,0.02571115
1411.88699707,0.02668553
1413.81580444,0.02571924
1415.74461182,0.02626362
1417.67341919,0.02315835
1419.60222656,0.02044445
1421.53103394,0.02455157
1423.45984131,0.02348819
1425.38864868,0.02281224
1427.31745605,0.02325480
1429.24626343,0.02117842
1431.17507080,0.02071501
1433.10387817,0.02117827
1435.03268555,0.01912396
1436.96149292,0.01594348
1438.89030029,0.01874261
1440.81910767,0.01914633
1442.74791504,0.01771805
1444.67672241,0.01913998
1446.60552979,0.01702505
1448.53433716,0.01711256
1450.46314453,0.01800938
1452.39195190,0.01826971
1454.32075928,0.01887361
1456.24956665,0.01497393
1458.17837402,0.01566879
1460.10718140,0.02177805
1462.03598877,0.02315915
1463.96479614,0.02266375
1465.89360352,0.02344457
1467.82241089,0.02731857
1469.75121826,0.02931323
1471.68002563,0.02512763
1473.60883301,0.02675496
1475.53764038,0.03060132
1477.46644775,0.03304990
1479.39525513,0.03685460
1481.32406250,0.03704645
1483.25286987,0.03959886
1485.18167725,0.04075749
1487.11048462,0.03972108
1489.03929199,0.03893938
1490.96809937,0.03915880
1492.89690674,0.04683223
1494.82571411,0.04500404
1496.75452148,0.03967230
1498.68332886,0.04553779
1500.61213623,0.04719425
1502.54094360,0.05140746
1504.46975098,0.04767208
1506.39855835,0.03236192
1508.32736572,0.04113182
1510.25617310,0.04966455
1512.18498047,0.04800845
1514.11378784,0.05269992
1516.04259521,0.04628723
1517.97140259,0.04858060
1519.90020996,0.04691366
1521.82901733,0.03921832
1523.75782471,0.04998701
1525.68663208,0.04896787
1527.61543945,0.04872673
1529.54424683,0.05513085
1531.47305420,0.05238936
1533.40186157,0.04711322
1535.33066895,0.05074275
1537.25947632,0.05495901
1539.18828369,0.03690124
1541.11709106,0.03888756
1543.04589844,0.04813804
1544.97470581,0.04598327
1546.90351318,0.05621468
1548.83232056,0.05170900
1550.76112793,0.05369680
1552.68993530,0.05334129
1554.61874268,0.04743869
1556.54755005,0.05134491
1558.47635742,0.03363978
1560.40516479,0.03728596
1562.33397217,0.05668594
1564.26277954,0.05298712
1566.19158691,0.05494530
1568.12039429,0.05411673
1570.04920166,0.04696976
1571.97800903,0.05582565
1573.90681641,0.05625831
1575.83562378,0.04293254
1577.76443115,0.04996271
1579.69323853,0.05737505
1581.62204590,0.05461168
1583.55085327,0.05626882
1585.47966064,0.05532784
1587.40846802,0.05598837
1589.33727539,0.05543232
1591.26608276,0.05506730
1593.19489014,0.05524538
1595.12369751,0.05476516
1597.05250488,0.05561488
1598.98131226,0.05521707
1600.91011963,0.05547905
1602.83892700,0.05423841
1604.76773437,0.05532758
1606.69654175,0.05449851
1608.62534912,0.05424093
1610.55415649,0.05435559
1612.48296387,0.05492498
1614.41177124,0.05537385
1616.34057861,0.04395449
1618.26938599,0.04852731
1620.19819336,0.05775900
1622.12700073,0.05014454
1624.05580811,0.05032682
1625.98461548,0.05356491
1627.91342285,0.05302433
1629.84223022,0.05291943
1631.77103760,0.05709761
1633.69984497,0.05162555
1635.62865234,0.04121182
1637.55745972,0.04942277
1639.48626709,0.05557472
1641.41507446,0.05384278
1643.34388184,0.05551325
1645.27268921,0.04913606
1647.20149658,0.04176582
1649.13030396,0.05435638
1651.05911133,0.05107938
1652.98791870,0.03002603
1654.91672607,0.04365145
1656.84553345,0.05686308
1658.77434082,0.05451785
1660.70314819,0.05606150
1662.63195557,0.04999213
1664.56076294,0.05345928
1666.48957031,0.05800887
1668.41837769,0.04915615
1670.34718506,0.04764291
1672.27599243,0.05537160
1674.20479980,0.05035413
1676.13360718,0.04798234
1678.06241455,0.05655441
1679.99122192,0.05422951
1681.92002930,0.05309055
1683.84883667,0.04163258
1685.77764404,0.04180723
1687.70645142,0.05992591
1689.63525879,0.05080424
1691.56406616,0.05694679
1693.49287354,0.05787462
1695.42168091,0.04014497
1697.35048828,0.05155957
1699.27929565,0.04380027
1701.20810303,0.03882135
1703.13691040,0.05629892
1705.06571777,0.05061679
1706.99452515,0.05120965
1708.92333252,0.05667938
1710.85213989,0.05421586
1712.78094727,0.05511846
1714.70975464,0.05021196
1716.63856201,0.04436215
1718.56736938,0.04377192
1720.49617676,0.05351945
1722.42498413,0.05581611
1724.35379150,0.05121484
1726.28259888,0.05676763
1728.21140625,0.05176448
1730.14021362,0.05218465
1732.06902100,0.05061194
1733.99782837,0.03662676
1735.92663574,0.04805154
1737.85544312,0.05364262
1739.78425049,0.04668764
1741.71305786,0.05180819
1743.64186523,0.05219260
1745.57067261,0.05237052
1747.49947998,0.05270522
1749.42828735,0.04972021
1751.35709473,0.04736628
1753.28590210,0.05358333
1755.21470947,0.05640926
1757.14351685,0.05052213
1759.07232422,0.05679009
1761.00113159,0.05258865
1762.92993896,0.05034830
1764.85874634,0.05919789
1766.78755371,0.05211993
1768.71636108,0.05279057
1770.64516846,0.05219677
1772.57397583,0.04616331
1774.50278320,0.05281284
1776.43159058,0.05599420
1778.36039795,0.05519633
1780.28920532,0.05431161
1782.21801270,0.05501293
1784.14682007,0.05485317
1786.07562744,0.05356277
1788.00443481,0.05703112
1789.93324219,0.05484036
1791.86204956,0.04883575
1793.79085693,0.05152589
1795.71966431,0.05581654
1797.64847168,0.05505103
1799.57727905,0.05397844
1801.50608643,0.05296031
1803.43489380,0.05504665
1805.36370117,0.05649875
1807.29250854,0.05553053
1809.22131592,0.05561413
1811.15012329,0.05400874
1813.07893066,0.05599330
1815.00773804,0.05630412
1816.93654541,0.05563597
1818.86535278,0.05612195
1820.79416016,0.05592977
1822.72296753,0.05695524
1824.65177490,0.05245736
1826.58058228,0.05479324
1828.50938965,0.05482573
1830.43819702,0.05065752
1832.36700439,0.05625381
1834.29581177,0.05582104
1836.22461914,0.05575680
1838.15342651,0.05557697
1840.08223389,0.05591044
1842.01104126,0.05593852
1843.93984863,0.04840308
1845.86865601,0.05248452
1847.79746338,0.05581093
1849.72627075,0.05430981
1851.65507812,0.05658913
1853.58388550,0.05520613
1855.51269287,0.05583803
1857.44150024,0.05542029
1859.37030762,0.05498036
1861.29911499,0.05554959
1863.22792236,0.05478902
1865.15672974,0.05550231
1867.08553711,0.05324814
1869.01434448,0.05050722
1870.94315186,0.05298667
1872.87195923,0.05554888
1874.80076660,0.05443674
1876.72957397,0.05478685
1878.65838135,0.05464694
1880.58718872,0.05429072
1882.51599609,0.05488564
1884.44480347,0.05379561
1886.37361084,0.05475942
1888.30241821,0.05308490
1890.23122559,0.05196130
1892.16003296,0.05456506
1894.08884033,0.05345589
1896.01764771,0.05332559
1897.94645508,0.05411886
1899.87526245,0.05368990
1901.80406982,0.05374253
1903.73287720,0.05347696
1905.66168457,0.05396388
1907.59049194,0.05307093
1909.51929932,0.05266987
1911.44810669,0.05321389
1913.37691406,0.05328331
1915.30572144,0.05367521
1917.23452881,0.05090616
1919.16333618,0.05123624
1921.09214355,0.05340088
1923.02095093,0.05128904
1924.94975830,0.05271184
1926.87856567,0.05343676
1928.80737305,0.05254101
1930.73618042,0.05330443
1932.66498779,0.05264185
1934.59379517,0.05314535
1936.52260254,0.05255184
1938.45140991,0.05292784
1940.38021729,0.05288815
1942.30902466,0.05085128
1944.23783203,0.05202751
1946.16663940,0.05241694
1948.09544678,0.05247287
1950.02425415,0.05262673
1951.95306152,0.05235662
1953.88186890,0.05266933
1955.81067627,0.05206606
1957.73948364,0.05249063
1959.66829102,0.05247954
1961.59709839,0.05219811
1963.52590576,0.05251297
1965.45471313,0.05188176
1967.38352051,0.05135342
1969.31232788,0.05201620
1971.24113525,0.05243362
1973.16994263,0.05203611
1975.09875000,0.05233415
1977.02755737,0.05193621
1978.95636475,0.05186078
1980.88517212,0.05197354
1982.81397949,0.05164089
1984.74278687,0.05198989
1986.67159424,0.05140790
1988.60040161,0.05155245
1990.52920898,0.05117937
1992.45801636,0.05024049
1994.38682373,0.05110289
1996.31563110,0.05132554
1998.24443848,0.05124934
2000.17324585,0.05121724
2002.10205322,0.05089501
2004.03086060,0.05107325
2005.95966797,0.05107239
2007.88847534,0.05080739
2009.81728271,0.05066989
2011.74609009,0.05051195
2013.67489746,0.05047958
2015.60370483,0.05020103
2017.53251221,0.04972904
2019.46131958,0.05011255
2021.39012695,0.05019467
2023.31893433,0.04981136
2025.24774170,0.04982461
2027.17654907,0.04983622
2029.10535645,0.04966608
2031.03416382,0.04944759
2032.96297119,0.04954900
2034.89177856,0.04923536
2036.82058594,0.04917286
2038.74939331,0.04936862
2040.67820068,0.04896239
2042.60700806,0.04889675
2044.53581543,0.04880126
2046.46462280,0.04871740
2048.39343018,0.04868921
2050.32223755,0.04853599
2052.25104492,0.04861142
2054.17985229,0.04852596
2056.10865967,0.04839310
2058.03746704,0.04826326
2059.96627441,0.04812867
2061.89508179,0.04810015
2063.82388916,0.04778273
2065.75269653,0.04748269
2067.68150391,0.04768289
2069.61031128,0.04770716
2071.53911865,0.04759412
2073.46792603,0.04744215
2075.39673340,0.04732986
2077.32554077,0.04749385
2079.25434814,0.04726490
2081.18315552,0.04717219
2083.11196289,0.04705919
2085.04077026,0.04687794
2086.96957764,0.04701104
2088.89838501,0.04681854
2090.82719238,0.04660209
2092.75599976,0.04649627
2094.68480713,0.04666300
2096.61361450,0.04665913
2098.54242187,0.04641468
2100.47122925,0.04636460
2102.40003662,0.04623931
2104.32884399,0.04611582
2106.25765137,0.04595750
2108.18645874,0.04606061
2110.11526611,0.04598205
2112.04407349,0.04586007
2113.97288086,0.04585062
2115.90168823,0.04569832
2117.83049561,0.04577659
2119.75930298,0.04557463
2121.68811035,0.04557084
2123.61691772,0.04560277
2125.54572510,0.04531418
2127.47453247,0.04519714
2129.40333984,0.04521054
2131.33214722,0.04527878
2133.26095459,0.04512659
2135.18976196,0.04512871
2137.11856934,0.04508734
2139.04737671,0.04503721
2140.97618408,0.04512621
2142.90499146,0.04505780
2144.83379883,0.04494075
2146.76260620,0.04482151
2148.69141357,0.04486225
2150.62022095,0.04466475
2152.54902832,0.04464697
2154.47783569,0.04469135
2156.40664307,0.04451648
2158.33545044,0.04446049
2160.26425781,0.04428699
2162.19306519,0.04432731
2164.12187256,0.04422706
2166.05067993,0.04427017
2167.97948730,0.04434971
2169.90829468,0.04420728
2171.83710205,0.04429483
2173.76590942,0.04405948
2175.69471680,0.04401775
2177.62352417,0.04405066
2179.55233154,0.04391947
2181.48113892,0.04391396
2183.40994629,0.04383497
2185.33875366,0.04379584
2187.26756104,0.04366839
2189.19636841,0.04370819
2191.12517578,0.04367243
2193.05398315,0.04359042
2194.98279053,0.04364894
2196.91159790,0.04350390
2198.84040527,0.04339688
2200.76921265,0.04330594
2202.69802002,0.04329010
2204.62682739,0.04333134
2206.55563477,0.04322508
2208.48444214,0.04314658
2210.41324951,0.04318635
2212.34205688,0.04306903
2214.27086426,0.04299237
2216.19967163,0.04309826
2218.12847900,0.04290520
2220.05728638,0.04287351
2221.98609375,0.04296007
2223.91490112,0.04275984
2225.84370850,0.04268997
2227.77251587,0.04264278
2229.70132324,0.04261424
2231.63013062,0.04260319
2233.55893799,0.04248599
2235.48774536,0.04240112
2237.41655273,0.04223356
2239.34536011,0.04218664
2241.27416748,0.04229575
2243.20297485,0.04216462
2245.13178223,0.04208321
2247.06058960,0.04207921
2248.98939697,0.04190306
2250.91820435,0.04193051
2252.84701172,0.04200854
2254.77581909,0.04182129
2256.70462646,0.04168769
2258.63343384,0.04164162
2260.56224121,0.04156815
2262.49104858,0.04156446
2264.41985596,0.04144343
2266.34866333,0.04142050
2268.27747070,0.04156430
2270.20627808,0.04137637
2272.13508545,0.04116506
2274.06389282,0.04125932
2275.99270020,0.04139215
2277.92150757,0.04124729
2279.85031494,0.04107912
2281.77912231,0.04105146
2283.70792969,0.04101379
2285.63673706,0.04099143
2287.56554443,0.04082143
2289.49435181,0.04078993
2291.42315918,0.04060988
2293.35196655,0.04051859
2295.28077393,0.04065896
2297.20958130,0.04033473
2299.13838867,0.04026993
2301.06719604,0.04014202
2302.99600342,0.03990534
2304.92481079,0.03981661
2306.85361816,0.03945124
2308.78242554,0.03936626
2310.71123291,0.03910930
2312.64004028,0.03859767
2314.56884766,0.03820503
2316.49765503,0.03772871
2318.42646240,0.03722680
2320.35526978,0.03682774
2322.28407715,0.03637730
2324.21288452,0.03588424
2326.14169189,0.03560133
2328.07049927,0.03509534
2329.99930664,0.03464008
2331.92811401,0.03447196
2333.85692139,0.03442566
2335.78572876,0.03422603
2337.71453613,0.03409319
2339.64334351,0.03429117
2341.57215088,0.03414353
2343.50095825,0.03462832
2345.42976562,0.03545072
2347.35857300,0.03669301
2349.28738037,0.03791275
2351.21618774,0.03660749
2353.14499512,0.03485274
2355.07380249,0.03371591
2357.00260986,0.03267794
2358.93141724,0.03210002
2360.86022461,0.03154634
2362.78903198,0.03155880
2364.71783936,0.03175340
2366.64664673,0.03222373
2368.57545410,0.03291203
2370.50426147,0.03351502
2372.43306885,0.03444629
2374.36187622,0.03538093
2376.29068359,0.03624369
2378.21949097,0.03700054
2380.14829834,0.03757252
2382.07710571,0.03785135
2384.00591309,0.03824636
2385.93472046,0.03837461
2387.86352783,0.03816016
2389.79233521,0.03832119
2391.72114258,0.03829002
2393.64994995,0.03826874
2395.57875732,0.03816963
2397.50756470,0.03805730
2399.43637207,0.03811334
2401.36517944,0.03796833
2403.29398682,0.03799487
2405.22279419,0.03792439
2407.15160156,0.03785404
2409.08040894,0.03777548
2411.00921631,0.03765710
2412.93802368,0.03769588
2414.86683105,0.03766790
2416.79563843,0.03768636
2418.72444580,0.03761199
2420.65325317,0.03762206
2422.58206055,0.03756454
2424.51086792,0.03741986
2426.43967529,0.03737232
2428.36848267,0.03725744
2430.29729004,0.03740195
2432.22609741,0.03736961
2434.15490479,0.03714807
2436.08371216,0.03713528
2438.01251953,0.03709851
2439.94132690,0.03711676
2441.87013428,0.03703752
2443.79894165,0.03697452
2445.72774902,0.03701908
2447.65655640,0.03682980
2449.58536377,0.03673271
2451.51417114,0.03683841
2453.44297852,0.03678372
2455.37178589,0.03664678
2457.30059326,0.03658003
2459.22940063,0.03651797
2461.15820801,0.03640662
2463.08701538,0.03638081
2465.01582275,0.03639504
2466.94463013,0.03635996
2468.87343750,0.03632326
2470.80224487,0.03625999
2472.73105225,0.03620438
2474.65985962,0.03612926
2476.58866699,0.03616277
2478.51747437,0.03608387
2480.44628174,0.03598819
2482.37508911,0.03608872
2484.30389648,0.03592378
2486.23270386,0.03585918
2488.16151123,0.03581188
2490.09031860,0.03568741
2492.01912598,0.03576385
2493.94793335,0.03568123
2495.87674072,0.03568610
2497.80554810,0.03561375
2499.73435547,0.03548974
2501.66316284,0.03554809
2503.59197021,0.03544093
2505.52077759,0.03532153
2507.44958496,0.03523141
2509.37839233,0.03527937
2511.30719971,0.03536420
2513.23600708,0.03518214
2515.16481445,0.03511474
2517.09362183,0.03512570
2519.02242920,0.03502765
2520.95123657,0.03512104
2522.88004395,0.03503975
2524.80885132,0.03490920
2526.73765869,0.03502300
2528.66646606,0.03486319
2530.59527344,0.03480911
2532.52408081,0.03481721
2534.45288818,0.03476129
2536.38169556,0.03478034
2538.31050293,0.03464434
2540.23931030,0.03466876
2542.16811768,0.03459114
2544.09692505,0.03457998
2546.02573242,0.03462615
2547.95453979,0.03441158
2549.88334717,0.03435319
2551.81215454,0.03437912
2553.74096191,0.03437704
2555.66976929,0.03418085
2557.59857666,0.03414605
2559.52738403,0.03418316
2561.45619141,0.03411454
2563.38499878,0.03420793
2565.31380615,0.03403421
2567.24261353,0.03394760
2569.17142090,0.03384424
2571.10022827,0.03379765
2573.02903564,0.03392676
2574.95784302,0.03367286
2576.88665039,0.03365145
2578.81545776,0.03367260
2580.74426514,0.03357764
2582.67307251,0.03369008
2584.60187988,0.03365439
2586.53068726,0.03352520
2588.45949463,0.03342793
2590.38830200,0.03340057
2592.31710937,0.03332435
2594.24591675,0.03328899
2596.17472412,0.03327676
2598.10353149,0.03319232
2600.03233887,0.03326885
2601.96114624,0.03320854
2603.88995361,0.03310692
2605.81876099,0.03312340
2607.74756836,0.03301320
2609.67637573,0.03301292
2611.60518311,0.03297146
2613.53399048,0.03287086
2615.46279785,0.03288861
2617.39160522,0.03277866
2619.32041260,0.03264954
2621.24921997,0.03256079
2623.17802734,0.03261682
2625.10683472,0.03259982
2627.03564209,0.03244223
2628.96444946,0.03253712
2630.89325684,0.03246859
2632.82206421,0.03243339
2634.75087158,0.03248685
2636.67967895,0.03233264
2638.60848633,0.03229251
2640.53729370,0.03215412
2642.46610107,0.03211789
2644.39490845,0.03223307
2646.32371582,0.03223014
2648.25252319,0.03216347
2650.18133057,0.03203174
2652.11013794,0.03198779
2654.03894531,0.03189915
2655.96775269,0.03190596
2657.89656006,0.03201938
2659.82536743,0.03190018
2661.75417480,0.03172366
2663.68298218,0.03167156
2665.61178955,0.03161677
2667.54059692,0.03152436
2669.46940430,0.03152289
2671.39821167,0.03151412
2673.32701904,0.03147275
2675.25582642,0.03144133
2677.18463379,0.03136171
2679.11344116,0.03129300
2681.04224854,0.03133909
2682.97105591,0.03131519
2684.89986328,0.03114495
2686.82867065,0.03115811
2688.75747803,0.03113255
2690.68628540,0.03097109
2692.61509277,0.03097375
2694.54390015,0.03102084
2696.47270752,0.03090681
2698.40151489,0.03082724
2700.33032227,0.03084600
2702.25912964,0.03074569
2704.18793701,0.03080224
2706.11674438,0.03076809
2708.04555176,0.03060567
2709.97435913,0.03062838
2711.90316650,0.03056394
2713.83197388,0.03051036
2715.76078125,0.03041817
2717.68958862,0.03042607
2719.61839600,0.03048674
2721.54720337,0.03039375
2723.47601074,0.03022612
2725.40481812,0.03006678
2727.33362549,0.03014423
2729.26243286,0.03014836
2731.19124023,0.03015039
2733.12004761,0.03002525
2735.04885498,0.02989876
2736.97766235,0.02996288
2738.90646973,0.02976152
2740.83527710,0.02986531
2742.76408447,0.02989339
2744.69289185,0.02965484
2746.62169922,0.02976404
2748.55050659,0.02970955
2750.47931396,0.02952151
2752.40812134,0.02955447
2754.33692871,0.02956278
2756.26573608,0.02943325
2758.19454346,0.02941926
2760.12335083,0.02930379
2762.05215820,0.02918771
2763.98096558,0.02928569
2765.90977295,0.02927634
2767.83858032,0.02916628
2769.76738770,0.02903295
2771.69619507,0.02904617
2773.62500244,0.02897664
2775.55380981,0.02897230
2777.48261719,0.02893823
2779.41142456,0.02866320
2781.34023193,0.02873886
2783.26903931,0.02872024
2785.19784668,0.02865699
2787.12665405,0.02869510
2789.05546143,0.02862734
2790.98426880,0.02858354
2792.91307617,0.02841200
2794.84188354,0.02837747
2796.77069092,0.02824403
2798.69949829,0.02817374
2800.62830566,0.02829503
2802.55711304,0.02821515
2804.48592041,0.02820517
2806.41472778,0.02813481
2808.34353516,0.02802716
2810.27234253,0.02805570
2812.20114990,0.02796063
2814.12995728,0.02780772
2816.05876465,0.02783560
2817.98757202,0.02778956
2819.91637939,0.02768162
2821.84518677,0.02763437
2823.77399414,0.02756383
2825.70280151,0.02761266
2827.63160889,0.02752906
2829.56041626,0.02751336
2831.48922363,0.02745775
2833.41803101,0.02730478
2835.34683838,0.02733077
2837.27564575,0.02710052
2839.20445312,0.02709959
2841.13326050,0.02707352
2843.06206787,0.02683238
2844.99087524,0.02689341
2846.91968262,0.02667715
2848.84848999,0.02654737
2850.77729736,0.02660289
2852.70610474,0.02646821
2854.63491211,0.02648248
2856.56371948,0.02645187
2858.49252686,0.02639229
2860.42133423,0.02641506
2862.35014160,0.02630424
2864.27894897,0.02627653
2866.20775635,0.02631494
2868.13656372,0.02629122
2870.06537109,0.02628273
2871.99417847,0.02608025
2873.92298584,0.02599672
2875.85179321,0.02603237
2877.78060059,0.02587472
2879.70940796,0.02589764
2881.63821533,0.02595860
2883.56702270,0.02586821
2885.49583008,0.02582479
2887.42463745,0.02583887
2889.35344482,0.02572664
2891.28225220,0.02560028
2893.21105957,0.02558736
2895.13986694,0.02548155
2897.06867432,0.02551147
2898.99748169,0.02551524
2900.92628906,0.02539179
2902.85509644,0.02538241
2904.78390381,0.02527862
2906.71271118,0.02519342
2908.64151855,0.02515558
2910.57032593,0.02514871
2912.49913330,0.02508930
2914.42794067,0.02487249
2916.35674805,0.02487724
2918.28555542,0.02487274
2920.21436279,0.02475107
2922.14317017,0.02477778
2924.07197754,0.02467653
2926.00078491,0.02464708
2927.92959229,0.02467681
2929.85839966,0.02461975
2931.78720703,0.02462693
2933.71601440,0.02450662
2935.64482178,0.02465386
2937.57362915,0.02472020
2939.50243652,0.02456440
2941.43124390,0.02465525
2943.36005127,0.02458510
2945.28885864,0.02468549
2947.21766602,0.02454104
2949.14647339,0.02430801
2951.07528076,0.02445496
2953.00408813,0.02422807
2954.93289551,0.02429727
2956.86170288,0.02426643
2958.79051025,0.02401088
2960.71931763,0.02418999
2962.64812500,0.02411671
2964.57693237,0.02405074
2966.50573975,0.02397589
2968.43454712,0.02394091
2970.36335449,0.02411227
2972.29216187,0.02402913
2974.22096924,0.02394613
2976.14977661,0.02397718
2978.07858398,0.02403886
2980.00739136,0.02401349
2981.93619873,0.02394354
2983.86500610,0.02393586
2985.79381348,0.02394328
2987.72262085,0.02396632
2989.65142822,0.02385143
2991.58023560,0.02380274
2993.50904297,0.02379406
2995.43785034,0.02372479
2997.36665771,0.02373775
2999.29546509,0.02369342
3001.22427246,0.02370169
3003.15307983,0.02362025
3005.08188721,0.02339233
3007.01069458,0.02339750
3008.93950195,0.02341621
3010.86830933,0.02330544
3012.79711670,0.02327204
3014.72592407,0.02323336
3016.65473145,0.02312829
3018.58353882,0.02315167
3020.51234619,0.02318236
3022.44115356,0.02302608
3024.36996094,0.02299972
3026.29876831,0.02299363
3028.22757568,0.02286208
3030.15638306,0.02278541
3032.08519043,0.02273034
3034.01399780,0.02274406
3035.94280518,0.02267582
3037.87161255,0.02261262
3039.80041992,0.02260077
3041.72922729,0.02250796
3043.65803467,0.02251011
3045.58684204,0.02248846
3047.51564941,0.02235738
3049.44445679,0.02225586
3051.37326416,0.02229977
3053.30207153,0.02224128
3055.23087891,0.02208329
3057.15968628,0.02208220
3059.08849365,0.02208922
3061.01730103,0.02212131
3062.94610840,0.02199571
3064.87491577,0.02189965
3066.80372314,0.02196002
3068.73253052,0.02190111
3070.66133789,0.02190086
3072.59014526,0.02185135
3074.51895264,0.02179075
3076.44776001,0.02173264
3078.37656738,0.02162285
3080.30537476,0.02157420
3082.23418213,0.02156413
3084.16298950,0.02160508
3086.09179687,0.02151872
3088.02060425,0.02147086
3089.94941162,0.02145056
3091.87821899,0.02133641
3093.80702637,0.02132009
3095.73583374,0.02130816
3097.66464111,0.02126388
3099.59344849,0.02116389
3101.52225586,0.02111825
3103.45106323,0.02112859
3105.37987061,0.02105502
3107.30867798,0.02103092
3109.23748535,0.02101333
3111.16629272,0.02092332
3113.09510010,0.02085949
3115.02390747,0.02080745
3116.95271484,0.02067601
3118.88152222,0.02065593
3120.81032959,0.02072556
3122.73913696,0.02059185
3124.66794434,0.02053233
3126.59675171,0.02059739
3128.52555908,0.02051910
3130.45436645,0.02043506
3132.38317383,0.02028817
3134.31198120,0.02022100
3136.24078857,0.02026797
3138.16959595,0.02018001
3140.09840332,0.02015711
3142.02721069,0.02004047
3143.95601807,0.01996973
3145.88482544,0.02001875
3147.81363281,0.01986710
3149.74244019,0.01985801
3151.67124756,0.01987537
3153.60005493,0.01976372
3155.52886230,0.01969636
3157.45766968,0.01964221
3159.38647705,0.01954867
3161.31528442,0.01950350
3163.24409180,0.01951705
3165.17289917,0.01939963
3167.10170654,0.01936737
3169.03051392,0.01929903
3170.95932129,0.01926150
3172.88812866,0.01932139
3174.81693604,0.01920036
3176.74574341,0.01917589
3178.67455078,0.01910510
3180.60335815,0.01897904
3182.53216553,0.01894893
3184.46097290,0.01892723
3186.38978027,0.01884732
3188.31858765,0.01879068
3190.24739502,0.01879026
3192.17620239,0.01866675
3194.10500977,0.01871640
3196.03381714,0.01868122
3197.96262451,0.01854452
3199.89143188,0.01851492
3201.82023926,0.01843245
3203.74904663,0.01845568
3205.67785400,0.01839916
3207.60666138,0.01839204
3209.53546875,0.01836709
3211.46427612,0.01827980
3213.39308350,0.01821336
3215.32189087,0.01818006
3217.25069824,0.01823983
3219.17950562,0.01804567
3221.10831299,0.01804776
3223.03712036,0.01809411
3224.96592773,0.01793284
3226.89473511,0.01799061
3228.82354248,0.01794320
3230.75234985,0.01783925
3232.68115723,0.01788130
3234.60996460,0.01781604
3236.53877197,0.01772484
3238.46757935,0.01784707
3240.39638672,0.01780281
3242.32519409,0.01772089
3244.25400146,0.01773164
3246.18280884,0.01764664
3248.11161621,0.01777234
3250.04042358,0.01773223
3251.96923096,0.01756524
3253.89803833,0.01752438
3255.82684570,0.01755820
3257.75565308,0.01751258
3259.68446045,0.01735066
3261.61326782,0.01747580
3263.54207520,0.01752260
3265.47088257,0.01746596
3267.39968994,0.01742956
3269.32849731,0.01743351
3271.25730469,0.01744658
3273.18611206,0.01735225
3275.11491943,0.01735202
3277.04372681,0.01722961
3278.97253418,0.01727827
3280.90134155,0.01729118
3282.83014893,0.01715928
3284.75895630,0.01733093
3286.68776367,0.01730497
3288.61657104,0.01709149
3290.54537842,0.01711212
3292.47418579,0.01713988
3294.40299316,0.01703538
3296.33180054,0.01713853
3298.26060791,0.01710067
3300.18941528,0.01699782
3302.11822266,0.01705255
3304.04703003,0.01696423
3305.97583740,0.01700917
3307.90464478,0.01685969
3309.83345215,0.01675233
3311.76225952,0.01685578
3313.69106689,0.01690176
3315.61987427,0.01692658
3317.54868164,0.01678146
3319.47748901,0.01684694
3321.40629639,0.01683748
3323.33510376,0.01670666
3325.26391113,0.01666098
3327.19271851,0.01666464
3329.12152588,0.01671217
3331.05033325,0.01664579
3332.97914062,0.01663399
3334.90794800,0.01644699
3336.83675537,0.01644088
3338.76556274,0.01657246
3340.69437012,0.01648442
3342.62317749,0.01645879
3344.55198486,0.01640739
3346.48079224,0.01645462
3348.40959961,0.01639869
3350.33840698,0.01622628
3352.26721436,0.01628403
3354.19602173,0.01634101
3356.12482910,0.01619117
3358.05363647,0.01619746
3359.98244385,0.01620094
3361.91125122,0.01606346
3363.84005859,0.01618184
3365.76886597,0.01608917
3367.69767334,0.01596332
3369.62648071,0.01606671
3371.55528809,0.01609650
3373.48409546,0.01597856
3375.41290283,0.01589859
3377.34171020,0.01605089
3379.27051758,0.01594064
3381.19932495,0.01584128
3383.12813232,0.01585209
3385.05693970,0.01583772
3386.98574707,0.01586521
3388.91455444,0.01579855
3390.84336182,0.01577510
3392.77216919,0.01562395
3394.70097656,0.01561138
3396.62978394,0.01560581
3398.55859131,0.01553220
3400.48739868,0.01557816
3402.41620605,0.01554663
3404.34501343,0.01544020
3406.27382080,0.01539433
3408.20262817,0.01553361
3410.13143555,0.01541029
3412.06024292,0.01541127
3413.98905029,0.01544233
3415.91785767,0.01529587
3417.84666504,0.01530335
3419.77547241,0.01515462
3421.70427979,0.01526144
3423.63308716,0.01526047
3425.56189453,0.01518468
3427.49070190,0.01520719
3429.41950928,0.01511037
3431.34831665,0.01514736
3433.27712402,0.01503947
3435.20593140,0.01505476
3437.13473877,0.01498664
3439.06354614,0.01493944
3440.99235352,0.01488524
3442.92116089,0.01476263
3444.84996826,0.01487877
3446.77877563,0.01462187
3448.70758301,0.01470350
3450.63639038,0.01494452
3452.56519775,0.01475022
3454.49400513,0.01478553
3456.42281250,0.01479966
3458.35161987,0.01473926
3460.28042725,0.01469821
3462.20923462,0.01463796
3464.13804199,0.01468812
3466.06684937,0.01460435
3467.99565674,0.01449078
3469.92446411,0.01461420
3471.85327148,0.01460253
3473.78207886,0.01453907
3475.71088623,0.01455963
3477.63969360,0.01455224
3479.56850098,0.01451810
3481.49730835,0.01433413
3483.42611572,0.01436906
3485.35492310,0.01445852
3487.28373047,0.01447409
3489.21253784,0.01441777
3491.14134521,0.01428236
3493.07015259,0.01440816
3494.99895996,0.01443831
3496.92776733,0.01428476
3498.85657471,0.01431537
3500.78538208,0.01444777
3502.71418945,0.01401996
3504.64299683,0.01397027
3506.57180420,0.01443191
3508.50061157,0.01409168
3510.42941895,0.01404704
3512.35822632,0.01425293
3514.28703369,0.01420199
3516.21584106,0.01422505
3518.14464844,0.01417014
3520.07345581,0.01422691
3522.00226318,0.01413109
3523.93107056,0.01396383
3525.85987793,0.01394068
3527.78868530,0.01404758
3529.71749268,0.01401718
3531.64630005,0.01406959
3533.57510742,0.01425043
3535.50391479,0.01405384
3537.43272217,0.01396496
3539.36152954,0.01414609
3541.29033691,0.01418407
3543.21914429,0.01395877
3545.14795166,0.01358513
3547.07675903,0.01329939
3549.00556641,0.01386529
3550.93437378,0.01404028
3552.86318115,0.01351740
3554.79198853,0.01391105
3556.72079590,0.01397527
3558.64960327,0.01395852
3560.57841064,0.01376560
3562.50721802,0.01359391
3564.43602539,0.01390096
3566.36483276,0.01271577
3568.29364014,0.01232494
3570.22244751,0.01354999
3572.15125488,0.01403387
3574.08006226,0.01386850
3576.00886963,0.01379718
3577.93767700,0.01375750
3579.86648437,0.01372144
3581.79529175,0.01380807
3583.72409912,0.01380398
3585.65290649,0.01341137
3587.58171387,0.01215810
3589.51052124,0.01259558
3591.43932861,0.01394898
3593.36813599,0.01341456
3595.29694336,0.01319116
3597.22575073,0.01353160
3599.15455811,0.01361631
3601.08336548,0.01334856
3603.01217285,0.01353198
3604.94098022,0.01393749
3606.86978760,0.01321324
3608.79859497,0.01238371
3610.72740234,0.01275175
3612.65620972,0.01297129
3614.58501709,0.01261648
3616.51382446,0.01363485
3618.44263184,0.01241393
3620.37143921,0.01198838
3622.30024658,0.01376031
3624.22905395,0.01333860
3626.15786133,0.01409647
3628.08666870,0.01154445
3630.01547607,0.01029666
3631.94428345,0.01348962
3633.87309082,0.01317351
3635.80189819,0.01351796
3637.73070557,0.01366608
3639.65951294,0.01347888
3641.58832031,0.01359550
3643.51712769,0.01332778
3645.44593506,0.01355111
3647.37474243,0.01188954
3649.30354980,0.01075076
3651.23235718,0.01093186
3653.16116455,0.01345363
3655.08997192,0.01313805
3657.01877930,0.01150843
3658.94758667,0.01376517
3660.87639404,0.01339744
3662.80520142,0.01356310
3664.73400879,0.01347620
3666.66281616,0.01342006
3668.59162354,0.01280315
3670.52043091,0.01000786
3672.44923828,0.01281988
3674.37804565,0.01191632
3676.30685303,0.00947169
3678.23566040,0.01252749
3680.16446777,0.01290332
3682.09327515,0.01299676
3684.02208252,0.01333001
3685.95088989,0.01311035
3687.87969727,0.01168343
3689.80850464,0.01050273
3691.73731201,0.01218615
3693.66611938,0.01270299
3695.59492676,0.01302935
3697.52373413,0.01302124
3699.45254150,0.01290223
3701.38134888,0.01240710
3703.31015625,0.01192722
3705.23896362,0.01331303
3707.16777100,0.01261670
3709.09657837,0.01225472
3711.02538574,0.01133182
3712.95419312,0.01055881
3714.88300049,0.01274083
3716.81180786,0.01259973
3718.74061523,0.01261298
3720.66942261,0.01223902
3722.59822998,0.01181039
3724.52703735,0.01231529
3726.45584473,0.01132045
3728.38465210,0.01247700
3730.31345947,0.01232363
3732.24226685,0.01106801
3734.17107422,0.01076883
3736.09988159,0.01010732
3738.02868896,0.01078527
3739.95749634,0.01193108
3741.88630371,0.01255840
3743.81511108,0.00940711
3745.74391846,0.00877894
3747.67272583,0.01191754
3749.60153320,0.00998837
3751.53034058,0.00898261
3753.45914795,0.01064868
3755.38795532,0.01158774
3757.31676270,0.01211094
3759.24557007,0.01105038
3761.17437744,0.01153744
3763.10318481,0.01244462
3765.03199219,0.01139975
3766.96079956,0.01171046
3768.88960693,0.01163464
3770.81841431,0.01090990
3772.74722168,0.01202490
3774.67602905,0.01210433
3776.60483643,0.01200181
3778.53364380,0.01160293
3780.46245117,0.01109530
3782.39125854,0.01203632
3784.32006592,0.01166860
3786.24887329,0.01157453
3788.17768066,0.01189067
3790.10648804,0.01176898
3792.03529541,0.01181404
3793.96410278,0.01198428
3795.89291016,0.01110371
3797.82171753,0.01092996
3799.75052490,0.01162796
3801.67933228,0.00891938
3803.60813965,0.01062406
3805.53694702,0.01175004
3807.46575439,0.00927364
3809.39456177,0.01157770
3811.32336914,0.01133367
3813.25217651,0.01179764
3815.18098389,0.01055068
3817.10979126,0.00891797
3819.03859863,0.01170610
3820.96740601,0.00912128
3822.89621338,0.00976114
3824.82502075,0.01172415
3826.75382812,0.01035812
3828.68263550,0.01131377
3830.61144287,0.01076198
3832.54025024,0.01042063
3834.46905762,0.01062257
3836.39786499,0.01001127
3838.32667236,0.00896898
3840.25547974,0.00975656
3842.18428711,0.01066186
3844.11309448,0.01004782
3846.04190186,0.01114055
3847.97070923,0.01095870
3849.89951660,0.01082921
3851.82832397,0.00961882
3853.75713135,0.00683721
3855.68593872,0.00839675
3857.61474609,0.01090889
3859.54355347,0.01065304
3861.47236084,0.01044522
3863.40116821,0.01018040
3865.32997559,0.00940020
3867.25878296,0.01067412
3869.18759033,0.00963407
3871.11639770,0.00866917
3873.04520508,0.01058119
3874.97401245,0.00955435
3876.90281982,0.01061110
3878.83162720,0.01087520
3880.76043457,0.00895488
3882.68924194,0.01074152
3884.61804932,0.00991115
3886.54685669,0.00892535
3888.47566406,0.01069506
3890.40447144,0.01008874
3892.33327881,0.00934542
3894.26208618,0.01021871
3896.19089355,0.01065475
3898.11970093,0.00996377
3900.04850830,0.00922142
3901.97731567,0.00928612
3903.90612305,0.00915775
3905.83493042,0.00932841
3907.76373779,0.01033064
3909.69254517,0.01035016
3911.62135254,0.01020323
3913.55015991,0.01041367
3915.47896728,0.01002263
3917.40777466,0.00961446
3919.33658203,0.00959112
3921.26538940,0.01005014
3923.19419678,0.00996547
3925.12300415,0.00970122
3927.05181152,0.00995762
3928.98061890,0.01005771
3930.90942627,0.00976491
3932.83823364,0.00937251
3934.76704102,0.00981969
3936.69584839,0.01003469
3938.62465576,0.00990178
3940.55346313,0.01009468
3942.48227051,0.00964903
3944.41107788,0.00954726
3946.33988525,0.00986022
3948.26869263,0.00953953
3950.19750000,0.00950057
3952.12630737,0.00978989
3954.05511475,0.00977483
3955.98392212,0.00978184
3957.91272949,0.00968700
3959.84153687,0.00961965
3961.77034424,0.00966582
3963.69915161,0.00969679
3965.62795898,0.00972744
3967.55676636,0.00959553
3969.48557373,0.00961453
3971.41438110,0.00954025
3973.34318848,0.00948282
3975.27199585,0.00948104
3977.20080322,0.00948946
3979.12961060,0.00962460
3981.05841797,0.00946622
3982.98722534,0.00946512
3984.91603271,0.00947059
3986.84484009,0.00950193
3988.77364746,0.00946138
3990.70245483,0.00927795
3992.63126221,0.00936194
3994.56006958,0.00930437
3996.48887695,0.00939498
3998.41768433,0.00930348
4000.34649170,0.00923214
4002.27529907,0.00932799
4004.20410645,0.00920139
4006.13291382,0.00931287
4008.06172119,0.00926031
4009.99052856,0.00917342
4011.91933594,0.00912274
4013.84814331,0.00909854
4015.77695068,0.00918274
4017.70575806,0.00912870
4019.63456543,0.00905722
4021.56337280,0.00904061
4023.49218018,0.00910088
4025.42098755,0.00898641
4027.34979492,0.00899594
4029.27860229,0.00898949
4031.20740967,0.00889484
4033.13621704,0.00888003
4035.06502441,0.00888167
4036.99383179,0.00908125
4038.92263916,0.00893176
4040.85144653,0.00882984
4042.78025391,0.00886208
4044.70906128,0.00874073
4046.63786865,0.00881474
4048.56667603,0.00881297
4050.49548340,0.00875465
4052.42429077,0.00868781
4054.35309814,0.00867504
4056.28190552,0.00872622
4058.21071289,0.00873385
4060.13952026,0.00867670
4062.06832764,0.00871107
4063.99713501,0.00867397
4065.92594238,0.00853265
4067.85474976,0.00865174
4069.78355713,0.00855242
4071.71236450,0.00848136
4073.64117187,0.00854980
4075.56997925,0.00845988
4077.49878662,0.00846321
4079.42759399,0.00845548
4081.35640137,0.00846590
4083.28520874,0.00845781
4085.21401611,0.00842840
4087.14282349,0.00837937
4089.07163086,0.00840904
4091.00043823,0.00835285
4092.92924561,0.00825069
4094.85805298,0.00827361
4096.78686035,0.00820690
4098.71566772,0.00825076
4100.64447510,0.00819227
4102.57328247,0.00823507
4104.50208984,0.00825684
4106.43089722,0.00810541
4108.35970459,0.00814453
4110.28851196,0.00809296
4112.21731934,0.00816129
4114.14612671,0.00813523
4116.07493408,0.00807950
4118.00374145,0.00812036
4119.93254883,0.00803181
4121.86135620,0.00803506
4123.79016357,0.00800398
4125.71897095,0.00801151
4127.64777832,0.00799931
4129.57658569,0.00797630
4131.50539307,0.00793765
4133.43420044,0.00796033
4135.36300781,0.00798248
4137.29181519,0.00786912
4139.22062256,0.00787470
4141.14942993,0.00778491
4143.07823730,0.00774188
4145.00704468,0.00770547
4146.93585205,0.00769880
4148.86465942,0.00779526
4150.79346680,0.00776434
4152.72227417,0.00778228
4154.65108154,0.00773971
4156.57988892,0.00769627
4158.50869629,0.00766593
4160.43750366,0.00763648
4162.36631103,0.00758572
4164.29511841,0.00755266
4166.22392578,0.00759879
4168.15273315,0.00758875
4170.08154053,0.00756744
4172.01034790,0.00752910
4173.93915527,0.00761603
4175.86796265,0.00751016
4177.79677002,0.00743237
4179.72557739,0.00752391
4181.65438477,0.00744740
4183.58319214,0.00746628
4185.51199951,0.00744453
4187.44080688,0.00745603
4189.36961426,0.00734147
4191.29842163,0.00729658
4193.22722900,0.00735822
4195.15603638,0.00725467
4197.08484375,0.00736062
4199.01365112,0.00729007
4200.94245850,0.00724185
4202.87126587,0.00729518
4204.80007324,0.00721340
4206.72888062,0.00722686
4208.65768799,0.00723499
4210.58649536,0.00721025
4212.51530273,0.00720484
4214.44411011,0.00724475
4216.37291748,0.00712699
4218.30172485,0.00711152
4220.23053223,0.00708997
4222.15933960,0.00700309
4224.08814697,0.00711569
4226.01695435,0.00709746
4227.94576172,0.00703132
4229.87456909,0.00694180
4231.80337646,0.00693372
4233.73218384,0.00696357
4235.66099121,0.00707648
4237.58979858,0.00708105
4239.51860596,0.00684470
4241.44741333,0.00689969
4243.37622070,0.00688420
4245.30502808,0.00690100
4247.23383545,0.00689597
4249.16264282,0.00675152
4251.09145020,0.00675794
4253.02025757,0.00670877
4254.94906494,0.00676367
4256.87787231,0.00672182
4258.80667969,0.00667284
4260.73548706,0.00672071
4262.66429443,0.00674433
4264.59310181,0.00679673
4266.52190918,0.00679239
4268.45071655,0.00674136
4270.37952393,0.00656819
4272.30833130,0.00655635
4274.23713867,0.00661995
4276.16594604,0.00661251
4278.09475342,0.00657540
4280.02356079,0.00655547
4281.95236816,0.00658805
4283.88117554,0.00653688
4285.80998291,0.00659186
4287.73879028,0.00655664
4289.66759766,0.00650709
4291.59640503,0.00649084
4293.52521240,0.00641835
4295.45401978,0.00643747
4297.38282715,0.00640405
4299.31163452,0.00642239
4301.24044189,0.00641751
4303.16924927,0.00642675
4305.09805664,0.00640087
4307.02686401,0.00633815
4308.95567139,0.00639711
4310.88447876,0.00641351
4312.81328613,0.00643294
4314.74209351,0.00635143
4316.67090088,0.00623533
4318.59970825,0.00627664
4320.52851562,0.00632779
4322.45732300,0.00623403
4324.38613037,0.00621335
4326.31493774,0.00623047
4328.24374512,0.00619663
4330.17255249,0.00627043
4332.10135986,0.00618917
4334.03016724,0.00618575
4335.95897461,0.00617387
4337.88778198,0.00604378
4339.81658936,0.00607589
4341.74539673,0.00604344
4343.67420410,0.00606491
4345.60301147,0.00608895
4347.53181885,0.00601536
4349.46062622,0.00595193
4351.38943359,0.00600922
4353.31824097,0.00602822
4355.24704834,0.00592083
4357.17585571,0.00593231
4359.10466309,0.00593803
4361.03347046,0.00598836
4362.96227783,0.00592306
4364.89108520,0.00584072
4366.81989258,0.00593110
4368.74869995,0.00592692
4370.67750732,0.00585467
4372.60631470,0.00582180
4374.53512207,0.00586752
4376.46392944,0.00578703
4378.39273682,0.00580388
4380.32154419,0.00585582
4382.25035156,0.00575400
4384.17915894,0.00577117
4386.10796631,0.00576699
4388.03677368,0.00574381
4389.96558105,0.00564941
4391.89438843,0.00565783
4393.82319580,0.00571847
4395.75200317,0.00563532
4397.68081055,0.00568295
4399.60961792,0.00567202
4401.53842529,0.00558209
4403.46723267,0.00559642
4405.39604004,0.00558673
4407.32484741,0.00553942
4409.25365478,0.00562025
4411.18246216,0.00562237
4413.11126953,0.00556164
4415.04007690,0.00556743
4416.96888428,0.00549185
4418.89769165,0.00552232
4420.82649902,0.00548368
4422.75530640,0.00542487
4424.68411377,0.00545353
4426.61292114,0.00545092
4428.54172852,0.00543955
4430.47053589,0.00534825
4432.39934326,0.00539297
4434.32815063,0.00544242
4436.25695801,0.00541343
4438.18576538,0.00539551
4440.11457275,0.00539099
4442.04338013,0.00536836
4443.97218750,0.00533153
4445.90099487,0.00530313
4447.82980225,0.00519873
4449.75860962,0.00528702
4451.68741699,0.00530652
4453.61622437,0.00524555
4455.54503174,0.00527188
4457.47383911,0.00524428
4459.40264648,0.00525711
4461.33145386,0.00519433
4463.26026123,0.00521204
4465.18906860,0.00514261
4467.11787598,0.00514838
4469.04668335,0.00520065
4470.97549072,0.00507714
4472.90429810,0.00516211
4474.83310547,0.00510905
4476.76191284,0.00507030
4478.69072021,0.00510018
4480.61952759,0.00507091
4482.54833496,0.00508478
4484.47714233,0.00500038
4486.40594971,0.00504377
4488.33475708,0.00506209
4490.26356445,0.00505451
4492.19237183,0.00500701
4494.12117920,0.00494298
4496.04998657,0.00496650
4497.97879395,0.00495877
4499.90760132,0.00497651
4501.83640869,0.00488102
4503.76521606,0.00486056
4505.69402344,0.00490548
4507.62283081,0.00488636
4509.55163818,0.00488966
4511.48044556,0.00485888
4513.40925293,0.00482757
4515.33806030,0.00483012
4517.26686768,0.00488146
4519.19567505,0.00479877
4521.12448242,0.00472633
4523.05328979,0.00477616
4524.98209717,0.00475759
4526.91090454,0.00471486
4528.83971191,0.00470753
4530.76851929,0.00471574
4532.69732666,0.00473389
4534.62613403,0.00476974
4536.55494141,0.00470529
4538.48374878,0.00466060
4540.41255615,0.00469322
4542.34136353,0.00468068
4544.27017090,0.00463205
4546.19897827,0.00465729
4548.12778564,0.00466015
4550.05659302,0.00456671
4551.98540039,0.00465887
4553.91420776,0.00462466
4555.84301514,0.00459461
4557.77182251,0.00466048
4559.70062988,0.00453963
4561.62943726,0.00456531
4563.55824463,0.00452970
4565.48705200,0.00452826
4567.41585937,0.00454822
4569.34466675,0.00448017
4571.27347412,0.00450862
4573.20228149,0.00447126
4575.13108887,0.00449323
4577.05989624,0.00442274
4578.98870361,0.00437020
4580.91751099,0.00439078
4582.84631836,0.00438029
4584.77512573,0.00444345
4586.70393311,0.00439239
4588.63274048,0.00436892
4590.56154785,0.00439971
4592.49035522,0.00436921
4594.41916260,0.00430386
4596.34796997,0.00430636
4598.27677734,0.00428334
4600.20558472,0.00423796
4602.13439209,0.00429172
4604.06319946,0.00427771
4605.99200684,0.00426153
4607.92081421,0.00420654
4609.84962158,0.00422162
4611.77842895,0.00424057
4613.70723633,0.00420026
4615.63604370,0.00423417
4617.56485107,0.00421960
4619.49365845,0.00420131
4621.42246582,0.00408570
4623.35127319,0.00414504
4625.28008057,0.00420592
4627.20888794,0.00413527
4629.13769531,0.00420390
4631.06650269,0.00411775
4632.99531006,0.00407955
4634.92411743,0.00406624
4636.85292480,0.00411886
4638.78173218,0.00415921
4640.71053955,0.00407626
4642.63934692,0.00414232
4644.56815430,0.00401021
4646.49696167,0.00397505
4648.42576904,0.00405436
4650.35457642,0.00401422
4652.28338379,0.00404650
4654.21219116,0.00395752
4656.14099853,0.00392527
4658.06980591,0.00395054
4659.99861328,0.00398629
4661.92742065,0.00402498
4663.85622803,0.00392136
4665.78503540,0.00391799
4667.71384277,0.00394660
4669.64265015,0.00391640
4671.57145752,0.00393110
4673.50026489,0.00387088
4675.42907227,0.00388117
4677.35787964,0.00390717
4679.28668701,0.00380892
4681.21549438,0.00379521
4683.14430176,0.00374277
4685.07310913,0.00380635
4687.00191650,0.00387710
4688.93072388,0.00375408
4690.85953125,0.00378661
4692.78833862,0.00377068
4694.71714600,0.00377081
4696.64595337,0.00375769
4698.57476074,0.00369226
4700.50356812,0.00377193
4702.43237549,0.00370954
4704.36118286,0.00366859
4706.28999023,0.00366630
4708.21879761,0.00366190
4710.14760498,0.00364601
4712.07641235,0.00361522
4714.00521973,0.00373496
4715.93402710,0.00369721
4717.86283447,0.00363515
4719.79164185,0.00364377
4721.72044922,0.00362644
4723.64925659,0.00362091
4725.57806396,0.00354906
4727.50687134,0.00359774
4729.43567871,0.00362929
4731.36448608,0.00356444
4733.29329346,0.00357461
4735.22210083,0.00358694
4737.15090820,0.00355328
4739.07971558,0.00354670
4741.00852295,0.00354545
4742.93733032,0.00351825
4744.86613770,0.00356572
4746.79494507,0.00355663
4748.72375244,0.00351224
4750.65255981,0.00349070
4752.58136719,0.00344615
4754.51017456,0.00348973
4756.43898193,0.00348260
4758.36778931,0.00347965
4760.29659668,0.00346717
4762.22540405,0.00338205
4764.15421143,0.00345803
4766.08301880,0.00344904
4768.01182617,0.00335343
4769.94063354,0.00338647
4771.86944092,0.00337446
4773.79824829,0.00338394
4775.72705566,0.00338146
4777.65586304,0.00336635
4779.58467041,0.00336281
4781.51347778,0.00329420
4783.44228516,0.00334794
4785.37109253,0.00333779
4787.29989990,0.00332729
4789.22870728,0.00342834
4791.15751465,0.00330238
4793.08632202,0.00321904
4795.01512939,0.00325726
4796.94393677,0.00325814
4798.87274414,0.00329414
4800.80155151,0.00328800
4802.73035889,0.00325019
4804.65916626,0.00323263
4806.58797363,0.00329666
4808.51678101,0.00326957
4810.44558838,0.00318922
4812.37439575,0.00319341
4814.30320312,0.00316191
4816.23201050,0.00320518
4818.16081787,0.00316917
4820.08962524,0.00313699
4822.01843262,0.00319688
4823.94723999,0.00310836
4825.87604736,0.00311495
4827.80485474,0.00316267
4829.73366211,0.00315493
4831.66246948,0.00313181
4833.59127686,0.00305566
4835.52008423,0.00308649
4837.44889160,0.00310057
4839.37769897,0.00304501
4841.30650635,0.00299282
4843.23531372,0.00303819
4845.16412109,0.00308783
4847.09292847,0.00299620
4849.02173584,0.00300465
4850.95054321,0.00302785
4852.87935059,0.00302514
4854.80815796,0.00300154
4856.73696533,0.00293003
4858.66577270,0.00300024
4860.59458008,0.00301704
4862.52338745,0.00297997
4864.45219482,0.00298855
4866.38100220,0.00299052
4868.30980957,0.00299976
4870.23861694,0.00296773
4872.16742432,0.00298203
4874.09623169,0.00298662
4876.02503906,0.00293658
4877.95384644,0.00285688
4879.88265381,0.00286200
4881.81146118,0.00295160
4883.74026855,0.00285374
4885.66907593,0.00281290
4887.59788330,0.00284449
4889.52669067,0.00278498
4891.45549805,0.00285955
4893.38430542,0.00288805
4895.31311279,0.00286599
4897.24192017,0.00284334
4899.17072754,0.00276218
4901.09953491,0.00280534
4903.02834228,0.00277644
4904.95714966,0.00276134
4906.88595703,0.00281711
4908.81476440,0.00273285
4910.74357178,0.00272967
4912.67237915,0.00273088
4914.60118652,0.00274789
4916.52999390,0.00276085
4918.45880127,0.00264269
4920.38760864,0.00268212
4922.31641602,0.00274965
4924.24522339,0.00272851
4926.17403076,0.00273301
4928.10283813,0.00271471
4930.03164551,0.00265082
4931.96045288,0.00264886
4933.88926025,0.00271169
4935.81806763,0.00270602
4937.74687500,0.00270377
4939.67568237,0.00262820
4941.60448975,0.00265153
4943.53329712,0.00275221
4945.46210449,0.00267990
4947.39091187,0.00266000
4949.31971924,0.00260452
4951.24852661,0.00262260
4953.17733398,0.00267119
4955.10614136,0.00256392
4957.03494873,0.00258538
4958.96375610,0.00264631
4960.89256348,0.00260323
4962.82137085,0.00250999
4964.75017822,0.00252067
4966.67898560,0.00260060
4968.60779297,0.00263091
4970.53660034,0.00254177
4972.46540771,0.00246275
4974.39421509,0.00257978
4976.32302246,0.00250256
4978.25182983,0.00246493
4980.18063721,0.00257432
4982.10944458,0.00247685
4984.03825195,0.00245613
4985.96705933,0.00246702
4987.89586670,0.00243700
4989.82467407,0.00242727
4991.75348145,0.00244376
4993.68228882,0.00246432
4995.61109619,0.00243580
4997.53990356,0.00247374
4999.46871094,0.00246057
5001.39751831,0.00244903
5003.32632568,0.00241242
5005.25513306,0.00231468
5007.18394043,0.00238117
5009.11274780,0.00239357
5011.04155518,0.00234986
5012.97036255,0.00238816
5014.89916992,0.00235696
5016.82797729,0.00238558
5018.75678467,0.00241512
5020.68559204,0.00236597
5022.61439941,0.00239565
5024.54320679,0.00234522
5026.47201416,0.00228057
5028.40082153,0.00232075
5030.32962891,0.00233075
5032.25843628,0.00232543
5034.18724365,0.00232094
5036.11605103,0.00230758
5038.04485840,0.00228863
5039.97366577,0.00235166
5041.90247314,0.00230986
5043.83128052,0.00218371
5045.76008789,0.00225607
5047.68889526,0.00224934
5049.61770264,0.00220737
5051.54651001,0.00225401
5053.47531738,0.00228054
5055.40412476,0.00233341
5057.33293213,0.00227206
5059.26173950,0.00220186
5061.19054687,0.00222626
5063.11935425,0.00222415
5065.04816162,0.00225664
5066.97696899,0.00223261
5068.90577637,0.00213997
5070.83458374,0.00219148
5072.76339111,0.00215698
5074.69219849,0.00206423
5076.62100586,0.00219082
5078.54981323,0.00225812
5080.47862061,0.00217645
5082.40742798,0.00213981
5084.33623535,0.00221593
5086.26504272,0.00212832
5088.19385010,0.00203326
5090.12265747,0.00211377
5092.05146484,0.00203754
5093.98027222,0.00213894
5095.90907959,0.00213584
5097.83788696,0.00197438
5099.76669434,0.00209598
5101.69550171,0.00207626
5103.62430908,0.00210668
5105.55311645,0.00209281
5107.48192383,0.00200548
5109.41073120,0.00212964
5111.33953857,0.00203460
5113.26834595,0.00196474
5115.19715332,0.00207697
5117.12596069,0.00204683
5119.05476807,0.00205434
5120.98357544,0.00205750
5122.91238281,0.00193170
5124.84119019,0.00201019
5126.76999756,0.00206662
5128.69880493,0.00196583
5130.62761230,0.00195804
5132.55641968,0.00188600
5134.48522705,0.00195004
5136.41403442,0.00200548
5138.34284180,0.00197309
5140.27164917,0.00198155
5142.20045654,0.00184037
5144.12926392,0.00186831
5146.05807129,0.00194472
5147.98687866,0.00191917
5149.91568603,0.00189648
5151.84449341,0.00188296
5153.77330078,0.00188288
5155.70210815,0.00183813
5157.63091553,0.00191698
5159.55972290,0.00187553
5161.48853027,0.00188130
5163.41733765,0.00198342
5165.34614502,0.00186762
5167.27495239,0.00186482
5169.20375977,0.00187592
5171.13256714,0.00188805
5173.06137451,0.00187962
5174.99018188,0.00181519
5176.91898926,0.00187374
5178.84779663,0.00177983
5180.77660400,0.00174435
5182.70541138,0.00182326
5184.63421875,0.00177751
5186.56302612,0.00180700
5188.49183350,0.00183839
5190.42064087,0.00182164
5192.34944824,0.00182772
5194.27825562,0.00178965
5196.20706299,0.00178658
5198.13587036,0.00182946
5200.06467773,0.00177935
5201.99348511,0.00174102
5203.92229248,0.00180935
5205.85109985,0.00176973
5207.77990723,0.00170730
5209.70871460,0.00174234
5211.63752197,0.00175576
5213.56632935,0.00180383
5215.49513672,0.00172497
5217.42394409,0.00166337
5219.35275146,0.00174961
5221.28155884,0.00171046
5223.21036621,0.00175381
5225.13917358,0.00169203
5227.06798096,0.00158226
5228.99678833,0.00168001
5230.92559570,0.00163775
5232.85440308,0.00167841
5234.78321045,0.00171974
5236.71201782,0.00162460
5238.64082520,0.00166798
5240.56963257,0.00172501
5242.49843994,0.00165536
5244.42724731,0.00162492
5246.35605469,0.00172859
5248.28486206,0.00165840
5250.21366943,0.00164218
5252.14247681,0.00167773
5254.07128418,0.00162551
5256.00009155,0.00170593
5257.92889893,0.00164073
5259.85770630,0.00164639
5261.78651367,0.00160455
5263.71532104,0.00146666
5265.64412842,0.00152138
5267.57293579,0.00154519
5269.50174316,0.00169650
5271.43055054,0.00168000
5273.35935791,0.00156003
5275.28816528,0.00162794
5277.21697266,0.00163551
5279.14578003,0.00163909
5281.07458740,0.00162073
5283.00339478,0.00164184
5284.93220215,0.00162739
5286.86100952,0.00163462
5288.78981689,0.00158573
5290.71862427,0.00148876
5292.64743164,0.00159906
5294.57623901,0.00155659
5296.50504639,0.00155341
5298.43385376,0.00158589
5300.36266113,0.00149710
5302.29146851,0.00155200
5304.22027588,0.00154165
5306.14908325,0.00152463
5308.07789062,0.00150417
5310.00669800,0.00144732
5311.93550537,0.00147749
5313.86431274,0.00153427
5315.79312012,0.00151093
5317.72192749,0.00145301
5319.65073486,0.00154401
5321.57954224,0.00157481
5323.50834961,0.00156564
5325.43715698,0.00151511
5327.36596436,0.00138835
5329.29477173,0.00144507
5331.22357910,0.00148927
5333.15238647,0.00148674
5335.08119385,0.00149009
5337.01000122,0.00144785
5338.93880859,0.00141480
5340.86761597,0.00143849
5342.79642334,0.00148343
5344.72523071,0.00138473
5346.65403809,0.00137450
5348.58284546,0.00141368
5350.51165283,0.00143576
5352.44046020,0.00147866
5354.36926758,0.00129951
5356.29807495,0.00133569
5358.22688232,0.00148220
5360.15568970,0.00137780
5362.08449707,0.00138812
5364.01330444,0.00141901
5365.94211182,0.00139466
5367.87091919,0.00136431
5369.79972656,0.00136798
5371.72853394,0.00140721
5373.65734131,0.00136888
5375.58614868,0.00135962
5377.51495605,0.00130932
5379.44376343,0.00134747
5381.37257080,0.00138357
5383.30137817,0.00127811
5385.23018555,0.00132916
5387.15899292,0.00131964
5389.08780029,0.00131443
5391.01660767,0.00138462
5392.94541504,0.00132821
5394.87422241,0.00135530
5396.80302978,0.00129994
5398.73183716,0.00125379
5400.66064453,0.00137757
5402.58945190,0.00136659
5404.51825928,0.00133089
5406.44706665,0.00127410
5408.37587402,0.00125837
5410.30468140,0.00139483
5412.23348877,0.00128385
5414.16229614,0.00114697
5416.09110352,0.00127984
5418.01991089,0.00131487
5419.94871826,0.00130177
5421.87752563,0.00131340
5423.80633301,0.00125928
5425.73514038,0.00128631
5427.66394775,0.00126673
5429.59275513,0.00121271
5431.52156250,0.00128440
5433.45036987,0.00120898
5435.37917725,0.00113436
5437.30798462,0.00125814
5439.23679199,0.00122674
5441.16559936,0.00116148
5443.09440674,0.00117273
5445.02321411,0.00119417
5446.95202148,0.00120400
5448.88082886,0.00115407
5450.80963623,0.00123574
5452.73844360,0.00121111
5454.66725098,0.00116034
5456.59605835,0.00119059
5458.52486572,0.00115892
5460.45367310,0.00124284
5462.38248047,0.00117757
5464.31128784,0.00115707
5466.24009521,0.00118257
5468.16890259,0.00108797
5470.09770996,0.00113261
5472.02651733,0.00112420
5473.95532471,0.00116663
5475.88413208,0.00113570
5477.81293945,0.00110478
5479.74174683,0.00118057
5481.67055420,0.00111317
5483.59936157,0.00115994
5485.52816895,0.00116659
5487.45697632,0.00114362
5489.38578369,0.00117983
5491.31459106,0.00110561
5493.24339844,0.00105013
5495.17220581,0.00109282
5497.10101318,0.00111223
5499.02982056,0.00108126
5500.95862793,0.00116268
5502.88743530,0.00110171
5504.81624268,0.00108936
5506.74505005,0.00114772
5508.67385742,0.00103371
5510.60266479,0.00111969
5512.53147217,0.00109746
5514.46027954,0.00100463
5516.38908691,0.00106195
5518.31789429,0.00107843
5520.24670166,0.00113016
5522.17550903,0.00111662
5524.10431641,0.00107568
5526.03312378,0.00108977
5527.96193115,0.00113153
5529.89073853,0.00104406
5531.81954590,0.00099327
5533.74835327,0.00109256
5535.67716064,0.00107243
5537.60596802,0.00104840
5539.53477539,0.00102487
5541.46358276,0.00103015
5543.39239014,0.00108931
5545.32119751,0.00110552
5547.25000488,0.00102797
5549.17881226,0.00098192
5551.10761963,0.00103895
5553.03642700,0.00093812
5554.96523437,0.00099670
5556.89404175,0.00110171
5558.82284912,0.00102715
5560.75165649,0.00106418
5562.68046387,0.00099464
5564.60927124,0.00097218
5566.53807861,0.00101696
5568.46688599,0.00096237
5570.39569336,0.00096757
5572.32450073,0.00096668
5574.25330811,0.00097529
5576.18211548,0.00098866
5578.11092285,0.00103220
5580.03973022,0.00100168
5581.96853760,0.00093561
5583.89734497,0.00101327
5585.82615234,0.00101731
5587.75495972,0.00101059
5589.68376709,0.00100183
5591.61257446,0.00099986
5593.54138184,0.00102170
5595.47018921,0.00088839
5597.39899658,0.00095375
5599.32780395,0.00101367
5601.25661133,0.00089980
5603.18541870,0.00095756
5605.11422607,0.00093793
5607.04303345,0.00092412
5608.97184082,0.00089699
5610.90064819,0.00085082
5612.82945557,0.00096963
5614.75826294,0.00095802
5616.68707031,0.00095238
5618.61587769,0.00101940
5620.54468506,0.00097571
5622.47349243,0.00089882
5624.40229980,0.00088756
5626.33110718,0.00092218
5628.25991455,0.00095990
5630.18872192,0.00096600
5632.11752930,0.00090468
5634.04633667,0.00092668
5635.97514404,0.00091985
5637.90395142,0.00089744
5639.83275879,0.00092765
5641.76156616,0.00094800
5643.69037353,0.00098165
5645.61918091,0.00089430
5647.54798828,0.00084489
5649.47679565,0.00084775
5651.40560303,0.00091636
5653.33441040,0.00091877
5655.26321777,0.00086333
5657.19202515,0.00098034
5659.12083252,0.00092396
5661.04963989,0.00090724
5662.97844727,0.00089403
5664.90725464,0.00083114
5666.83606201,0.00088512
5668.76486938,0.00083138
5670.69367676,0.00086821
5672.62248413,0.00084497
5674.55129150,0.00084761
5676.48009888,0.00090130
5678.40890625,0.00085037
5680.33771362,0.00083504
5682.26652100,0.00077280
5684.19532837,0.00079146
5686.12413574,0.00081954
5688.05294311,0.00087377
5689.98175049,0.00086376
5691.91055786,0.00080716
5693.83936523,0.00081829
5695.76817261,0.00076460
5697.69697998,0.00082297
5699.62578735,0.00082497
5701.55459473,0.00080066
5703.48340210,0.00079686
5705.41220947,0.00081741
5707.34101685,0.00084727
5709.26982422,0.00075554
5711.19863159,0.00081086
5713.12743896,0.00081156
5715.05624634,0.00078359
5716.98505371,0.00080678
5718.91386108,0.00080809
5720.84266846,0.00080589
5722.77147583,0.00069650
5724.70028320,0.00076430
5726.62909058,0.00080520
5728.55789795,0.00075993
5730.48670532,0.00083772
5732.41551270,0.00079639
5734.34432007,0.00075324
5736.27312744,0.00081747
5738.20193481,0.00076468
5740.13074219,0.00076271
5742.05954956,0.00080007
5743.98835693,0.00066772
5745.91716431,0.00073704
5747.84597168,0.00074178
5749.77477905,0.00068050
5751.70358643,0.00081106
5753.63239380,0.00076741
5755.56120117,0.00073782
5757.49000854,0.00066551
5759.41881592,0.00069769
5761.34762329,0.00076946
5763.27643066,0.00069004
5765.20523804,0.00075917
5767.13404541,0.00072167
5769.06285278,0.00077805
5770.99166016,0.00077858
5772.92046753,0.00068223
5774.84927490,0.00076718
5776.77808228,0.00067432
5778.70688965,0.00070551
5780.63569702,0.00080357
5782.56450439,0.00077571
5784.49331177,0.00076335
5786.42211914,0.00066409
5788.35092651,0.00074266
5790.27973389,0.00080735
5792.20854126,0.00064244
5794.13734863,0.00067115
5796.06615601,0.00074167
5797.99496338,0.00066993
5799.92377075,0.00069471
5801.85257812,0.00071002
5803.78138550,0.00071514
5805.71019287,0.00070861
5807.63900024,0.00066155
5809.56780762,0.00065847
5811.49661499,0.00063893
5813.42542236,0.00064155
5815.35422974,0.00062142
5817.28303711,0.00065526
5819.21184448,0.00069206
5821.14065186,0.00063394
5823.06945923,0.00062395
5824.99826660,0.00064768
5826.92707397,0.00066036
5828.85588135,0.00060516
5830.78468872,0.00062173
5832.71349609,0.00066006
5834.64230347,0.00064614
5836.57111084,0.00066800
5838.49991821,0.00067689
5840.42872559,0.00072896
5842.35753296,0.00067705
5844.28634033,0.00065382
5846.21514770,0.00072691
5848.14395508,0.00065419
5850.07276245,0.00063741
5852.00156982,0.00069547
5853.93037720,0.00065279
5855.85918457,0.00064041
5857.78799194,0.00062880
5859.71679932,0.00057517
5861.64560669,0.00064328
5863.57441406,0.00059559
5865.50322144,0.00055064
5867.43202881,0.00063979
5869.36083618,0.00059144
5871.28964355,0.00057406
5873.21845093,0.00056371
5875.14725830,0.00059359
5877.07606567,0.00057103
5879.00487305,0.00055488
5880.93368042,0.00067415
5882.86248779,0.00059215
5884.79129517,0.00056873
5886.72010254,0.00056342
5888.64890991,0.00053163
5890.57771728,0.00060718
5892.50652466,0.00057614
5894.43533203,0.00053269
5896.36413940,0.00055560
5898.29294678,0.00062084
5900.22175415,0.00056211
5902.15056152,0.00059227
5904.07936890,0.00068665
5906.00817627,0.00059393
5907.93698364,0.00055362
5909.86579102,0.00055204
5911.79459839,0.00058597
5913.72340576,0.00056588
5915.65221313,0.00057020
5917.58102051,0.00059445
5919.50982788,0.00051460
5921.43863525,0.00052195
5923.36744263,0.00053797
5925.29625000,0.00057695
5927.22505737,0.00055419
5929.15386475,0.00053864
5931.08267212,0.00061797
5933.01147949,0.00057261
5934.94028686,0.00053229
5936.86909424,0.00054773
5938.79790161,0.00048795
5940.72670898,0.00045569
5942.65551636,0.00055543
5944.58432373,0.00052353
5946.51313110,0.00052053
5948.44193848,0.00057442
5950.37074585,0.00049416
5952.29955322,0.00059877
5954.22836060,0.00055643
5956.15716797,0.00047508
5958.08597534,0.00056893
5960.01478271,0.00049485
5961.94359009,0.00048880
5963.87239746,0.00055195
5965.80120483,0.00059422
5967.73001221,0.00052437
5969.65881958,0.00045562
5971.58762695,0.00051875
5973.51643433,0.00047821
5975.44524170,0.00050470
5977.37404907,0.00055081
5979.30285645,0.00050097
5981.23166382,0.00047719
5983.16047119,0.00045810
5985.08927856,0.00044578
5987.01808594,0.00049452
5988.94689331,0.00055545
5990.87570068,0.00048711
5992.80450806,0.00045830
5994.73331543,0.00049133
5996.66212280,0.00046116
5998.59093018,0.00048525
6000.51973755,0.00047959
