399.26312622,0.00039120
401.19193359,0.00075424
403.12074097,0.00067593
405.04954834,0.00054682
406.97835571,0.00067726
408.90716309,0.00092826
410.83597046,0.00086690
412.76477783,0.00086694
414.69358521,0.00077032
416.62239258,0.00091688
418.55119995,0.00063463
420.48000732,0.00047968
422.40881470,0.00089563
424.33762207,0.00084901
426.26642944,0.00104234
428.19523682,0.00090905
430.12404419,0.00073898
432.05285156,0.00101667
433.98165894,0.00092704
435.91046631,0.00090352
437.83927368,0.00102959
439.76808105,0.00103731
441.69688843,0.00073962
443.62569580,0.00066436
445.55450317,0.00068961
447.48331055,0.00063570
449.41211792,0.00095921
451.34092529,0.00091496
453.26973267,0.00068356
455.19854004,0.00073374
457.12734741,0.00076236
459.05615479,0.00058229
460.98496216,0.00057520
462.91376953,0.00077802
464.84257690,0.00068216
466.77138428,0.00074234
468.70019165,0.00048626
470.62899902,0.00021702
472.55780640,0.00051672
474.48661377,0.00067662
476.41542114,0.00069727
478.34422852,0.00016194
480.27303589,0.00022519
482.20184326,0.00061346
484.13065063,0.00014598
486.05945801,0.00014002
487.98826538,0.00048072
489.91707275,0.00048310
491.84588013,0.00024088
493.77468750,0.00041863
495.70349487,0.00004327
497.63230225,-0.00019764
499.56110962,0.00043701
501.48991699,0.00015797
503.41872437,0.00002706
505.34753174,-0.00001516
507.27633911,0.00020022
509.20514648,0.00046689
511.13395386,-0.00003072
513.06276123,0.00010523
514.99156860,0.00053130
516.92037598,0.00034798
518.84918335,0.00050482
520.77799072,0.00074675
522.70679810,0.00032535
524.63560547,0.00018533
526.56441284,0.00020978
528.49322021,0.00057065
530.42202759,0.00041783
532.35083496,-0.00026312
534.27964233,0.00016090
536.20844971,0.00021854
538.13725708,0.00024258
540.06606445,0.00022041
541.99487183,0.00004794
543.92367920,0.00036264
545.85248657,0.00000385
547.78129395,0.00008793
549.71010132,0.00041493
551.63890869,0.00026538
553.56771606,0.00009590
555.49652344,0.00026831
557.42533081,0.00049620
559.35413818,0.00002847
561.28294556,0.00025227
563.21175293,0.00030074
565.14056030,-0.00009586
567.06936768,0.00013992
568.99817505,0.00025856
570.92698242,0.00044062
572.85578979,0.00049987
574.78459717,0.00036077
576.71340454,0.00038174
578.64221191,0.00040094
580.57101929,0.00039003
582.49982666,0.00042117
584.42863403,-0.00010846
586.35744141,0.00001108
588.28624878,0.00065399
590.21505615,0.00001106
592.14386353,0.00002186
594.07267090,0.00001681
596.00147827,-0.00006743
597.93028564,0.00056116
599.85909302,0.00010134
601.78790039,-0.00001830
603.71670776,0.00037202
605.64551514,0.00040596
607.57432251,0.00010317
609.50312988,0.00014085
611.43193726,0.00052951
613.36074463,0.00008034
615.28955200,-0.00001375
617.21835938,0.00007629
619.14716675,0.00033537
621.07597412,0.00017813
623.00478149,-0.00022450
624.93358887,0.00016700
626.86239624,0.00011734
628.79120361,0.00011327
630.72001099,0.00036745
632.64881836,0.00083046
634.57762573,0.00098532
636.50643311,0.00055922
638.43524048,0.00056524
640.36404785,0.00076253
642.29285522,0.00082099
644.22166260,0.00067612
646.15046997,0.00116601
648.07927734,0.00138859
650.00808472,0.00146336
651.93689209,0.00141128
653.86569946,0.00097583
655.79450684,0.00149925
657.72331421,0.00148515
659.65212158,0.00158306
661.58092896,0.00169315
663.50973633,0.00128174
665.43854370,0.00133374
667.36735107,0.00134867
669.29615845,0.00182141
671.22496582,0.00163976
673.15377319,0.00161793
675.08258057,0.00200322
677.01138794,0.00198681
678.94019531,0.00213913
680.86900269,0.00170016
682.79781006,0.00188855
684.72661743,0.00203449
686.65542480,0.00182072
688.58423218,0.00217046
690.51303955,0.00217908
692.44184692,0.00209734
694.37065430,0.00227625
696.29946167,0.00268600
698.22826904,0.00277289
700.15707642,0.00296399
702.08588379,0.00314240
704.01469116,0.00305962
705.94349854,0.00284662
707.87230591,0.00219905
709.80111328,0.00179235
711.72992065,0.00109938
713.65872803,0.00073877
715.58753540,0.00055263
717.51634277,0.00016636
719.44515015,0.00022313
721.37395752,-0.00008271
723.30276489,0.00010534
725.23157227,0.00033564
727.16037964,0.00013792
729.08918701,0.00016520
731.01799438,0.00012787
732.94680176,-0.00002957
734.87560913,0.00011469
736.80441650,0.00039054
738.73322388,0.00031561
740.66203125,0.00027577
742.59083862,0.00010972
744.51964600,0.00020619
746.44845337,0.00018719
748.37726074,0.00017072
750.30606812,0.00011837
752.23487549,0.00008372
754.16368286,0.00035876
756.09249023,0.00044653
758.02129761,0.00042408
759.95010498,0.00043228
761.87891235,0.00063890
763.80771973,0.00047500
765.73652710,0.00039648
767.66533447,0.00041698
769.59414185,0.00010087
771.52294922,0.00027562
773.45175659,0.00033563
775.38056396,0.00031728
777.30937134,0.00026724
779.23817871,0.00016023
781.16698608,0.00043052
783.09579346,0.00029737
785.02460083,0.00017328
786.95340820,0.00020254
788.88221558,0.00027875
790.81102295,0.00056151
792.73983032,0.00050791
794.66863770,0.00037993
796.59744507,0.00023235
798.52625244,0.00036312
800.45505981,0.00069816
802.38386719,0.00046534
804.31267456,0.00007290
806.24148193,0.00036182
808.17028931,0.00049847
810.09909668,0.00018860
812.02790405,0.00035328
813.95671143,0.00030560
815.88551880,0.00009737
817.81432617,0.00036396
819.74313354,0.00062816
821.67194092,0.00043004
823.60074829,0.00012745
825.52955566,0.00019904
827.45836304,0.00022529
829.38717041,0.00029611
831.31597778,0.00045063
833.24478516,0.00072119
835.17359253,0.00084125
837.10239990,0.00061529
839.03120728,0.00062958
840.96001465,0.00062781
842.88882202,0.00065851
844.81762939,0.00053046
846.74643677,0.00042038
848.67524414,0.00059664
850.60405151,0.00060807
852.53285889,0.00063947
854.46166626,0.00041751
856.39047363,0.00018071
858.31928101,0.00033013
860.24808838,0.00041381
862.17689575,0.00044560
864.10570313,0.00070212
866.03451050,0.00048752
867.96331787,0.00017085
869.89212524,0.00052991
871.82093262,0.00040361
873.74973999,0.00032672
875.67854736,0.00072356
877.60735474,0.00037175
879.53616211,0.00015045
881.46496948,0.00050383
883.39377686,0.00048244
885.32258423,0.00049803
887.25139160,0.00036728
889.18019897,-0.00000712
891.10900635,0.00029028
893.03781372,0.00045743
894.96662109,0.00038477
896.89542847,0.00040818
898.82423584,0.00034388
900.75304321,0.00052605
902.68185059,0.00040618
904.61065796,0.00027740
906.53946533,0.00044736
908.46827271,0.00041696
910.39708008,0.00039345
912.32588745,0.00050509
914.25469482,0.00051409
916.18350220,0.00051681
918.11230957,0.00078731
920.04111694,0.00081318
921.96992432,0.00049095
923.89873169,0.00041195
925.82753906,0.00090490
927.75634644,0.00098874
929.68515381,0.00057953
931.61396118,0.00092175
933.54276855,0.00101924
935.47157593,0.00098647
937.40038330,0.00108862
939.32919067,0.00087456
941.25799805,0.00121475
943.18680542,0.00138049
945.11561279,0.00109543
947.04442017,0.00092825
948.97322754,0.00119130
950.90203491,0.00143374
952.83084229,0.00107609
954.75964966,0.00110097
956.68845703,0.00123396
958.61726440,0.00104245
960.54607178,0.00104204
962.47487915,0.00126508
964.40368652,0.00125344
966.33249390,0.00106512
968.26130127,0.00112265
970.19010864,0.00115140
972.11891602,0.00140807
974.04772339,0.00164249
975.97653076,0.00164924
977.90533813,0.00171390
979.83414551,0.00177516
981.76295288,0.00201836
983.69176025,0.00213049
985.62056763,0.00226682
987.54937500,0.00259630
989.47818237,0.00291640
991.40698975,0.00331244
993.33579712,0.00360210
995.26460449,0.00375364
997.19341187,0.00407134
999.12221924,0.00443683
1001.05102661,0.00459990
1002.97983398,0.00510401
1004.90864136,0.00549969
1006.83744873,0.00557919
1008.76625610,0.00607441
1010.69506348,0.00646233
1012.62387085,0.00663853
1014.55267822,0.00700211
1016.48148560,0.00753235
1018.41029297,0.00786920
1020.33910034,0.00812276
1022.26790771,0.00862766
1024.19671509,0.00906717
1026.12552246,0.00929233
1028.05432983,0.00927578
1029.98313721,0.00960098
1031.91194458,0.01011041
1033.84075195,0.01022431
1035.76955933,0.01047913
1037.69836670,0.01078966
1039.62717407,0.01066837
1041.55598145,0.01040528
1043.48478882,0.01039400
1045.41359619,0.01029277
1047.34240356,0.01028983
1049.27121094,0.01021152
1051.20001831,0.00976632
1053.12882568,0.00966785
1055.05763306,0.00944182
1056.98644043,0.00929208
1058.91524780,0.00922749
1060.84405518,0.00864667
1062.77286255,0.00855736
1064.70166992,0.00853518
1066.63047729,0.00811886
1068.55928467,0.00786471
1070.48809204,0.00739852
1072.41689941,0.00695592
1074.34570679,0.00669178
1076.27451416,0.00630492
1078.20332153,0.00613248
1080.13212891,0.00597402
1082.06093628,0.00565437
1083.98974365,0.00552254
1085.91855103,0.00528760
1087.84735840,0.00487568
1089.77616577,0.00458723
1091.70497314,0.00445497
1093.63378052,0.00445251
1095.56258789,0.00427745
1097.49139526,0.00393837
1099.42020264,0.00405129
1101.34901001,0.00409773
1103.27781738,0.00370277
1105.20662476,0.00382765
1107.13543213,0.00380064
1109.06423950,0.00350791
1110.99304687,0.00366620
1112.92185425,0.00347730
1114.85066162,0.00356221
1116.77946899,0.00377950
1118.70827637,0.00340456
1120.63708374,0.00367576
1122.56589111,0.00399501
1124.49469849,0.00372671
1126.42350586,0.00380641
1128.35231323,0.00388577
1130.28112061,0.00392095
1132.20992798,0.00396042
1134.13873535,0.00389252
1136.06754272,0.00425700
1137.99635010,0.00446698
1139.92515747,0.00456319
1141.85396484,0.00482178
1143.78277222,0.00525526
1145.71157959,0.00594315
1147.64038696,0.00592764
1149.56919434,0.00604930
1151.49800171,0.00653027
1153.42680908,0.00673075
1155.35561646,0.00714419
1157.28442383,0.00744662
1159.21323120,0.00788630
1161.14203857,0.00819824
1163.07084595,0.00835135
1164.99965332,0.00866751
1166.92846069,0.00882718
1168.85726807,0.00912652
1170.78607544,0.00937120
1172.71488281,0.00980655
1174.64369019,0.01024636
1176.57249756,0.01054410
1178.50130493,0.01117287
1180.43011230,0.01156791
1182.35891968,0.01183052
1184.28772705,0.01236772
1186.21653442,0.01303560
1188.14534180,0.01364899
1190.07414917,0.01429155
1192.00295654,0.01491975
1193.93176392,0.01550690
1195.86057129,0.01632635
1197.78937866,0.01715286
1199.71818604,0.01786911
1201.64699341,0.01861041
1203.57580078,0.01938425
1205.50460815,0.01988817
1207.43341553,0.02059516
1209.36222290,0.02162028
1211.29103027,0.02207152
1213.21983765,0.02264263
1215.14864502,0.02338545
1217.07745239,0.02382714
1219.00625977,0.02432264
1220.93506714,0.02457678
1222.86387451,0.02477726
1224.79268188,0.02504639
1226.72148926,0.02532420
1228.65029663,0.02552902
1230.57910400,0.02536711
1232.50791138,0.02544257
1234.43671875,0.02573371
1236.36552612,0.02567181
1238.29433350,0.02551791
1240.22314087,0.02547900
1242.15194824,0.02539901
1244.08075562,0.02524080
1246.00956299,0.02520572
1247.93837036,0.02495431
1249.86717773,0.02471218
1251.79598511,0.02480518
1253.72479248,0.02445701
1255.65359985,0.02418689
1257.58240723,0.02396397
1259.51121460,0.02335486
1261.44002197,0.02311536
1263.36882935,0.02292590
1265.29763672,0.02254773
1267.22644409,0.02212488
1269.15525146,0.02196880
1271.08405884,0.02174331
1273.01286621,0.02121397
1274.94167358,0.02103673
1276.87048096,0.02056431
1278.79928833,0.02001138
1280.72809570,0.01980598
1282.65690308,0.01953879
1284.58571045,0.01917822
1286.51451782,0.01877858
1288.44332520,0.01839843
1290.37213257,0.01794907
1292.30093994,0.01797089
1294.22974731,0.01796251
1296.15855469,0.01774887
1298.08736206,0.01782982
1300.01616943,0.01785476
1301.94497681,0.01797208
1303.87378418,0.01796930
1305.80259155,0.01812135
1307.73139893,0.01844977
1309.66020630,0.01885755
1311.58901367,0.01921234
1313.51782104,0.01928408
1315.44662842,0.01983844
1317.37543579,0.02027786
1319.30424316,0.02081850
1321.23305054,0.02161657
1323.16185791,0.02214395
1325.09066528,0.02284446
1327.01947266,0.02335892
1328.94828003,0.02394018
1330.87708740,0.02455264
1332.80589478,0.02513582
1334.73470215,0.02571891
1336.66350952,0.02580925
1338.59231689,0.02549489
1340.52112427,0.02574369
1342.44993164,0.02697836
1344.37873901,0.02724710
1346.30754639,0.02706767
1348.23635376,0.02718642
1350.16516113,0.02688318
1352.09396851,0.02681647
1354.02277588,0.02651834
1355.95158325,0.02628179
1357.88039062,0.02618020
1359.80919800,0.02583781
1361.73800537,0.02443177
1363.66681274,0.02392066
1365.59562012,0.02561459
1367.52442749,0.02492991
1369.45323486,0.02466296
1371.38204224,0.02524322
1373.31084961,0.02355568
1375.23965698,0.02376371
1377.16846436,0.02455128
1379.09727173,0.02467254
1381.02607910,0.02473440
1382.95488647,0.02463414
1384.88369385,0.02471316
1386.81250122,0.02328272
1388.74130859,0.02346255
1390.67011597,0.02582134
1392.59892334,0.02508720
1394.52773071,0.02304422
1396.45653809,0.02449121
1398.38534546,0.02433004
1400.31415283,0.02403825
1402.24296021,0.02646351
1404.17176758,0.02490880
1406.10057495,0.02507475
1408.02938232,0.02610481
1409.95818970,0.02527225
1411.88699707,0.02586148
1413.81580444,0.02480103
1415.74461182,0.02542132
1417.67341919,0.02233628
1419.60222656,0.01980631
1421.53103394,0.02356860
1423.45984131,0.02275144
1425.38864868,0.02209250
1427.31745605,0.02252473
1429.24626343,0.02063750
1431.17507080,0.02012435
1433.10387817,0.02079829
1435.03268555,0.01850631
1436.96149292,0.01526158
1438.89030029,0.01809993
1440.81910767,0.01860696
1442.74791504,0.01716099
1444.67672241,0.01813664
1446.60552979,0.01657641
1448.53433716,0.01687920
1450.46314453,0.01735331
1452.39195190,0.01768915
1454.32075928,0.01826314
1456.24956665,0.01453240
1458.17837402,0.01506682
1460.10718140,0.02098814
1462.03598877,0.02263645
1463.96479614,0.02194073
1465.89360352,0.02280509
1467.82241089,0.02671592
1469.75121826,0.02851969
1471.68002563,0.02439590
1473.60883301,0.02572741
1475.53764038,0.02964680
1477.46644775,0.03208604
1479.39525513,0.03564847
1481.32406250,0.03598221
1483.25286987,0.03844731
1485.18167725,0.03938305
1487.11048462,0.03823760
1489.03929199,0.03773529
1490.96809937,0.03782415
1492.89690674,0.04523684
1494.82571411,0.04372470
1496.75452148,0.03845363
1498.68332886,0.04445569
1500.61213623,0.04584047
1502.54094360,0.04942405
1504.46975098,0.04611532
1506.39855835,0.03154170
1508.32736572,0.03985611
1510.25617310,0.04810545
1512.18498047,0.04651194
1514.11378784,0.05073597
1516.04259521,0.04486599
1517.97140259,0.04710731
1519.90020996,0.04530814
1521.82901733,0.03818820
1523.75782471,0.04836021
1525.68663208,0.04744370
1527.61543945,0.04718372
1529.54424683,0.05329182
1531.47305420,0.05088739
1533.40186157,0.04560873
1535.33066895,0.04911121
1537.25947632,0.05308358
1539.18828369,0.03578350
1541.11709106,0.03784381
1543.04589844,0.04645711
1544.97470581,0.04449404
1546.90351318,0.05445467
1548.83232056,0.05004928
1550.76112793,0.05188064
1552.68993530,0.05155152
1554.61874268,0.04627555
1556.54755005,0.04996376
1558.47635742,0.03267771
1560.40516479,0.03636768
1562.33397217,0.05486127
1564.26277954,0.05133118
1566.19158691,0.05331829
1568.12039429,0.05226477
1570.04920166,0.04559223
1571.97800903,0.05414155
1573.90681641,0.05455381
1575.83562378,0.04178362
1577.76443115,0.04841827
1579.69323853,0.05589079
1581.62204590,0.05300412
1583.55085327,0.05436253
1585.47966064,0.05373341
1587.40846802,0.05399416
1589.33727539,0.05354400
1591.26608276,0.05360696
1593.19489014,0.05365500
1595.12369751,0.05301136
1597.05250488,0.05354444
1598.98131226,0.05323359
1600.91011963,0.05370253
1602.83892700,0.05266882
1604.76773437,0.05370616
1606.69654175,0.05269432
1608.62534912,0.05274854
1610.55415649,0.05264497
1612.48296387,0.05316742
1614.41177124,0.05391096
1616.34057861,0.04243255
1618.26938599,0.04703248
1620.19819336,0.05604846
1622.12700073,0.04858381
1624.05580811,0.04885377
1625.98461548,0.05170249
1627.91342285,0.05120807
1629.84223022,0.05122734
1631.77103760,0.05532542
1633.69984497,0.04984079
1635.62865234,0.03985678
1637.55745972,0.04781752
1639.48626709,0.05346439
1641.41507446,0.05224372
1643.34388184,0.05379032
1645.27268921,0.04735641
1647.20149658,0.04044736
1649.13030396,0.05267683
1651.05911133,0.04944853
1652.98791870,0.02910830
1654.91672607,0.04263012
1656.84553345,0.05521333
1658.77434082,0.05273940
1660.70314819,0.05428062
1662.63195557,0.04824064
1664.56076294,0.05174336
1666.48957031,0.05610276
1668.41837769,0.04731872
1670.34718506,0.04591685
1672.27599243,0.05350397
1674.20479980,0.04855893
1676.13360718,0.04649270
1678.06241455,0.05501901
1679.99122192,0.05251750
1681.92002930,0.05143089
1683.84883667,0.04031269
1685.77764404,0.04045675
1687.70645142,0.05798056
1689.63525879,0.04898638
1691.56406616,0.05508299
1693.49287354,0.05600351
1695.42168091,0.03874927
1697.35048828,0.04989918
1699.27929565,0.04256103
1701.20810303,0.03778304
1703.13691040,0.05450191
1705.06571777,0.04894586
1706.99452515,0.04963008
1708.92333252,0.05472543
1710.85213989,0.05223895
1712.78094727,0.05336468
1714.70975464,0.04869456
1716.63856201,0.04300018
1718.56736938,0.04231675
1720.49617676,0.05182458
1722.42498413,0.05417172
1724.35379150,0.04970314
1726.28259888,0.05513546
1728.21140625,0.05016665
1730.14021362,0.05056921
1732.06902100,0.04895329
1733.99782837,0.03535519
1735.92663574,0.04647620
1737.85544312,0.05183344
1739.78425049,0.04519239
1741.71305786,0.05006287
1743.64186523,0.05055269
1745.57067261,0.05070985
1747.49947998,0.05101959
1749.42828735,0.04836860
1751.35709473,0.04590843
1753.28590210,0.05203669
1755.21470947,0.05481692
1757.14351685,0.04897122
1759.07232422,0.05493611
1761.00113159,0.05089563
1762.92993896,0.04894891
1764.85874634,0.05721143
1766.78755371,0.05040617
1768.71636108,0.05127819
1770.64516846,0.05054631
1772.57397583,0.04462045
1774.50278320,0.05099589
1776.43159058,0.05418877
1778.36039795,0.05345944
1780.28920532,0.05267299
1782.21801270,0.05335092
1784.14682007,0.05308278
1786.07562744,0.05170565
1788.00443481,0.05518781
1789.93324219,0.05333459
1791.86204956,0.04721132
1793.79085693,0.04997667
1795.71966431,0.05429827
1797.64847168,0.05335583
1799.57727905,0.05238147
1801.50608643,0.05117261
1803.43489380,0.05334373
1805.36370117,0.05470631
1807.29250854,0.05366755
1809.22131592,0.05397894
1811.15012329,0.05229131
1813.07893066,0.05441352
1815.00773804,0.05465725
1816.93654541,0.05391610
1818.86535278,0.05449394
1820.79416016,0.05414306
1822.72296753,0.05517958
1824.65177490,0.05071162
1826.58058228,0.05291555
1828.50938965,0.05305064
1830.43819702,0.04914914
1832.36700439,0.05457948
1834.29581177,0.05401353
1836.22461914,0.05391037
1838.15342651,0.05373013
1840.08223389,0.05428573
1842.01104126,0.05426098
1843.93984863,0.04695105
1845.86865601,0.05100045
1847.79746338,0.05412222
1849.72627075,0.05272144
1851.65507812,0.05464870
1853.58388550,0.05341365
1855.51269287,0.05421328
1857.44150024,0.05359185
1859.37030762,0.05328593
1861.29911499,0.05380623
1863.22792236,0.05301733
1865.15672974,0.05374304
1867.08553711,0.05149586
1869.01434448,0.04888474
1870.94315186,0.05142001
1872.87195923,0.05389907
1874.80076660,0.05264578
1876.72957397,0.05295058
1878.65838135,0.05289307
1880.58718872,0.05260441
1882.51599609,0.05305347
1884.44480347,0.05196291
1886.37361084,0.05303867
1888.30241821,0.05149439
1890.23122559,0.05033122
1892.16003296,0.05268379
1894.08884033,0.05176609
1896.01764771,0.05170476
1897.94645508,0.05229347
1899.87526245,0.05187140
1901.80406982,0.05213252
1903.73287720,0.05185125
1905.66168457,0.05201757
1907.59049194,0.05133279
1909.51929932,0.05106305
1911.44810669,0.05142633
1913.37691406,0.05158675
1915.30572144,0.05211721
1917.23452881,0.04937324
1919.16333618,0.04949733
1921.09214355,0.05166359
1923.02095093,0.04977542
1924.94975830,0.05117405
1926.87856567,0.05171800
1928.80737305,0.05086961
1930.73618042,0.05170766
1932.66498779,0.05082502
1934.59379517,0.05145641
1936.52260254,0.05104334
1938.45140991,0.05127198
1940.38021729,0.05126918
1942.30902466,0.04912979
1944.23783203,0.05031614
1946.16663940,0.05092073
1948.09544678,0.05070478
1950.02425415,0.05096886
1951.95306152,0.05084947
1953.88186890,0.05086514
1955.81067627,0.05063566
1957.73948364,0.05100490
1959.66829102,0.05077023
1961.59709839,0.05072969
1963.52590576,0.05080662
1965.45471313,0.05037744
1967.38352051,0.04983681
1969.31232788,0.05010958
1971.24113525,0.05081292
1973.16994263,0.05039075
1975.09875000,0.05057291
1977.02755737,0.05050550
1978.95636475,0.05036711
1980.88517212,0.05020388
1982.81397949,0.05002750
1984.74278687,0.05042178
1986.67159424,0.04980661
1988.60040161,0.04995058
1990.52920898,0.04939816
1992.45801636,0.04876100
1994.38682373,0.04987561
1996.31563110,0.04980614
1998.24443848,0.04944680
2000.17324585,0.04946509
2002.10205322,0.04941587
2004.03086060,0.04934182
2005.95966797,0.04908716
2007.88847534,0.04915438
2009.81728271,0.04907364
2011.74609009,0.04888004
2013.67489746,0.04892937
2015.60370483,0.04848668
2017.53251221,0.04812114
2019.46131958,0.04854634
2021.39012695,0.04839616
2023.31893433,0.04817415
2025.24774170,0.04827961
2027.17654907,0.04813120
2029.10535645,0.04806269
2031.03416382,0.04797586
2032.96297119,0.04801228
2034.89177856,0.04780569
2036.82058594,0.04776441
2038.74939331,0.04778788
2040.67820068,0.04731108
2042.60700806,0.04724731
2044.53581543,0.04738310
2046.46462280,0.04720065
2048.39343018,0.04705687
2050.32223755,0.04701043
2052.25104492,0.04690973
2054.17985229,0.04688212
2056.10865967,0.04670423
2058.03746704,0.04660375
2059.96627441,0.04660871
2061.89508179,0.04645917
2063.82388916,0.04627366
2065.75269653,0.04601470
2067.68150391,0.04614045
2069.61031128,0.04615850
2071.53911865,0.04612190
2073.46792603,0.04606678
2075.39673340,0.04586560
2077.32554077,0.04590483
2079.25434814,0.04570338
2081.18315552,0.04564533
2083.11196289,0.04538558
2085.04077026,0.04535788
2086.96957764,0.04547796
2088.89838501,0.04516422
2090.82719238,0.04530498
2092.75599976,0.04514860
2094.68480713,0.04496806
2096.61361450,0.04496680
2098.54242187,0.04500432
2100.47122925,0.04497793
2102.40003662,0.04473194
2104.32884399,0.04483261
2106.25765137,0.04465106
2108.18645874,0.04456680
2110.11526611,0.04450941
2112.04407349,0.04437889
2113.97288086,0.04441903
2115.90168823,0.04428356
2117.83049561,0.04435316
2119.75930298,0.04429066
2121.68811035,0.04412937
2123.61691772,0.04414139
2125.54572510,0.04412656
2127.47453247,0.04390487
2129.40333984,0.04393849
2131.33214722,0.04401652
2133.26095459,0.04382160
2135.18976196,0.04380441
2137.11856934,0.04360607
2139.04737671,0.04357770
2140.97618408,0.04349984
2142.90499146,0.04351935
2144.83379883,0.04354806
2146.76260620,0.04333993
2148.69141357,0.04346873
2150.62022095,0.04312751
2152.54902832,0.04321939
2154.47783569,0.04337250
2156.40664307,0.04298049
2158.33545044,0.04311690
2160.26425781,0.04307223
2162.19306519,0.04299780
2164.12187256,0.04300538
2166.05067993,0.04296777
2167.97948730,0.04294306
2169.90829468,0.04283850
2171.83710205,0.04277224
2173.76590942,0.04269425
2175.69471680,0.04270430
2177.62352417,0.04262362
2179.55233154,0.04261475
2181.48113892,0.04255754
2183.40994629,0.04241530
2185.33875366,0.04236591
2187.26756104,0.04232717
2189.19636841,0.04225816
2191.12517578,0.04221357
2193.05398315,0.04220133
2194.98279053,0.04202640
2196.91159790,0.04206130
2198.84040527,0.04205806
2200.76921265,0.04198600
2202.69802002,0.04200936
2204.62682739,0.04197277
2206.55563477,0.04195002
2208.48444214,0.04175917
2210.41324951,0.04179724
2212.34205688,0.04178068
2214.27086426,0.04174379
2216.19967163,0.04173524
2218.12847900,0.04151955
2220.05728638,0.04157734
2221.98609375,0.04159516
2223.91490112,0.04155845
2225.84370850,0.04137905
2227.77251587,0.04132302
2229.70132324,0.04141387
2231.63013062,0.04118533
2233.55893799,0.04113639
2235.48774536,0.04111931
2237.41655273,0.04100561
2239.34536011,0.04090757
2241.27416748,0.04086831
2243.20297485,0.04090652
2245.13178223,0.04078694
2247.06058960,0.04065108
2248.98939697,0.04070873
2250.91820435,0.04063796
2252.84701172,0.04048944
2254.77581909,0.04050440
2256.70462646,0.04027302
2258.63343384,0.04022500
2260.56224121,0.04027940
2262.49104858,0.04028567
2264.41985596,0.04034149
2266.34866333,0.04001888
2268.27747070,0.03994269
2270.20627808,0.04003306
2272.13508545,0.04011841
2274.06389282,0.04004716
2275.99270020,0.03984935
2277.92150757,0.03990475
2279.85031494,0.03983299
2281.77912231,0.03985564
2283.70792969,0.03979186
2285.63673706,0.03973889
2287.56554443,0.03969199
2289.49435181,0.03951888
2291.42315918,0.03949001
2293.35196655,0.03933651
2295.28077393,0.03929803
2297.20958130,0.03910533
2299.13838867,0.03888298
2301.06719604,0.03888883
2302.99600342,0.03872456
2304.92481079,0.03850729
2306.85361816,0.03832991
2308.78242554,0.03810796
2310.71123291,0.03775093
2312.64004028,0.03744064
2314.56884766,0.03702869
2316.49765503,0.03661598
2318.42646240,0.03630526
2320.35526978,0.03584882
2322.28407715,0.03533194
2324.21288452,0.03493901
2326.14169189,0.03463204
2328.07049927,0.03415611
2329.99930664,0.03385703
2331.92811401,0.03353081
2333.85692139,0.03338316
2335.78572876,0.03339351
2337.71453613,0.03312277
2339.64334351,0.03317455
2341.57215088,0.03331236
2343.50095825,0.03379682
2345.42976562,0.03441645
2347.35857300,0.03556153
2349.28738037,0.03669563
2351.21618774,0.03549303
2353.14499512,0.03390395
2355.07380249,0.03288873
2357.00260986,0.03177181
2358.93141724,0.03126660
2360.86022461,0.03102442
2362.78903198,0.03095607
2364.71783936,0.03098531
2366.64664673,0.03140654
2368.57545410,0.03203683
2370.50426147,0.03258767
2372.43306885,0.03356240
2374.36187622,0.03452733
2376.29068359,0.03523400
2378.21949097,0.03593758
2380.14829834,0.03658480
2382.07710571,0.03694367
2384.00591309,0.03710910
2385.93472046,0.03718872
2387.86352783,0.03715294
2389.79233521,0.03718169
2391.72114258,0.03720109
2393.64994995,0.03706349
2395.57875732,0.03694991
2397.50756470,0.03698959
2399.43637207,0.03693479
2401.36517944,0.03689933
2403.29398682,0.03693737
2405.22279419,0.03685372
2407.15160156,0.03679903
2409.08040894,0.03667384
2411.00921631,0.03659162
2412.93802368,0.03664585
2414.86683105,0.03656048
2416.79563843,0.03650249
2418.72444580,0.03641938
2420.65325317,0.03632794
2422.58206055,0.03634749
2424.51086792,0.03615199
2426.43967529,0.03619984
2428.36848267,0.03626645
2430.29729004,0.03602702
2432.22609741,0.03610843
2434.15490479,0.03606790
2436.08371216,0.03602875
2438.01251953,0.03601444
2439.94132690,0.03589614
2441.87013428,0.03597964
2443.79894165,0.03581182
2445.72774902,0.03572819
2447.65655640,0.03566882
2449.58536377,0.03561680
2451.51417114,0.03569728
2453.44297852,0.03554867
2455.37178589,0.03550797
2457.30059326,0.03547040
2459.22940063,0.03545424
2461.15820801,0.03545006
2463.08701538,0.03533377
2465.01582275,0.03528468
2466.94463013,0.03531463
2468.87343750,0.03530916
2470.80224487,0.03517886
2472.73105225,0.03517350
2474.65985962,0.03513431
2476.58866699,0.03495201
2478.51747437,0.03484850
2480.44628174,0.03496415
2482.37508911,0.03491825
2484.30389648,0.03474703
2486.23270386,0.03487681
2488.16151123,0.03485909
2490.09031860,0.03483691
2492.01912598,0.03476302
2493.94793335,0.03468248
2495.87674072,0.03462721
2497.80554810,0.03445271
2499.73435547,0.03458323
2501.66316284,0.03443975
2503.59197021,0.03436318
2505.52077759,0.03446139
2507.44958496,0.03426796
2509.37839233,0.03428464
2511.30719971,0.03429299
2513.23600708,0.03418429
2515.16481445,0.03405536
2517.09362183,0.03410696
2519.02242920,0.03414008
2520.95123657,0.03402692
2522.88004395,0.03402658
2524.80885132,0.03395787
2526.73765869,0.03397721
2528.66646606,0.03385884
2530.59527344,0.03377746
2532.52408081,0.03379349
2534.45288818,0.03359276
2536.38169556,0.03367368
2538.31050293,0.03371412
2540.23931030,0.03353687
2542.16811768,0.03352186
2544.09692505,0.03350431
2546.02573242,0.03345057
2547.95453979,0.03336600
2549.88334717,0.03330125
2551.81215454,0.03328364
2553.74096191,0.03330281
2555.66976929,0.03335824
2557.59857666,0.03319678
2559.52738403,0.03313740
2561.45619141,0.03319531
2563.38499878,0.03300725
2565.31380615,0.03302593
2567.24261353,0.03308050
2569.17142090,0.03292284
2571.10022827,0.03283472
2573.02903564,0.03288896
2574.95784302,0.03289637
2576.88665039,0.03277403
2578.81545776,0.03275815
2580.74426514,0.03264415
2582.67307251,0.03263423
2584.60187988,0.03262810
2586.53068726,0.03244372
2588.45949463,0.03244706
2590.38830200,0.03245573
2592.31710937,0.03250482
2594.24591675,0.03244641
2596.17472412,0.03231161
2598.10353149,0.03217895
2600.03233887,0.03215484
2601.96114624,0.03216971
2603.88995361,0.03200456
2605.81876099,0.03208934
2607.74756836,0.03198981
2609.67637573,0.03195647
2611.60518311,0.03202578
2613.53399048,0.03191026
2615.46279785,0.03192600
2617.39160522,0.03170872
2619.32041260,0.03173783
2621.24921997,0.03172548
2623.17802734,0.03164076
2625.10683472,0.03169579
2627.03564209,0.03157789
2628.96444946,0.03167530
2630.89325684,0.03147765
2632.82206421,0.03143759
2634.75087158,0.03154815
2636.67967895,0.03130952
2638.60848633,0.03129831
2640.53729370,0.03125316
2642.46610107,0.03120747
2644.39490845,0.03121390
2646.32371582,0.03118806
2648.25252319,0.03116409
2650.18133057,0.03110384
2652.11013794,0.03108420
2654.03894531,0.03101651
2655.96775269,0.03093476
2657.89656006,0.03091247
2659.82536743,0.03092697
2661.75417480,0.03078504
2663.68298218,0.03073583
2665.61178955,0.03078669
2667.54059692,0.03064711
2669.46940430,0.03058837
2671.39821167,0.03062867
2673.32701904,0.03060690
2675.25582642,0.03056418
2677.18463379,0.03052937
2679.11344116,0.03038601
2681.04224854,0.03028922
2682.97105591,0.03033391
2684.89986328,0.03035952
2686.82867065,0.03028956
2688.75747803,0.03017700
2690.68628540,0.03016096
2692.61509277,0.03013178
2694.54390015,0.03013708
2696.47270752,0.03005807
2698.40151489,0.02993853
2700.33032227,0.02987549
2702.25912964,0.02980213
2704.18793701,0.02984478
2706.11674438,0.02972026
2708.04555176,0.02970791
2709.97435913,0.02975652
2711.90316650,0.02958013
2713.83197388,0.02957908
2715.76078125,0.02960430
2717.68958862,0.02956073
2719.61839600,0.02947707
2721.54720337,0.02937422
2723.47601074,0.02936452
2725.40481812,0.02944062
2727.33362549,0.02940637
2729.26243286,0.02924472
2731.19124023,0.02917243
2733.12004761,0.02907982
2735.04885498,0.02902414
2736.97766235,0.02899829
2738.90646973,0.02895695
2740.83527710,0.02896303
2742.76408447,0.02894913
2744.69289185,0.02877744
2746.62169922,0.02868290
2748.55050659,0.02885384
2750.47931396,0.02882466
2752.40812134,0.02873663
2754.33692871,0.02865830
2756.26573608,0.02855163
2758.19454346,0.02855303
2760.12335083,0.02851235
2762.05215820,0.02845955
2763.98096558,0.02830628
2765.90977295,0.02831849
2767.83858032,0.02836044
2769.76738770,0.02829982
2771.69619507,0.02824067
2773.62500244,0.02806893
2775.55380981,0.02806484
2777.48261719,0.02805108
2779.41142456,0.02806273
2781.34023193,0.02798694
2783.26903931,0.02784015
2785.19784668,0.02789717
2787.12665405,0.02784149
2789.05546143,0.02782702
2790.98426880,0.02776405
2792.91307617,0.02765796
2794.84188354,0.02760710
2796.77069092,0.02751991
2798.69949829,0.02747069
2800.62830566,0.02738806
2802.55711304,0.02743606
2804.48592041,0.02743419
2806.41472778,0.02734222
2808.34353516,0.02722839
2810.27234253,0.02714476
2812.20114990,0.02715620
2814.12995728,0.02699777
2816.05876465,0.02700848
2817.98757202,0.02705886
2819.91637939,0.02689238
2821.84518677,0.02684028
2823.77399414,0.02681136
2825.70280151,0.02677893
2827.63160889,0.02666542
2829.56041626,0.02658437
2831.48922363,0.02661656
2833.41803101,0.02653317
2835.34683838,0.02652077
2837.27564575,0.02644887
2839.20445312,0.02634358
2841.13326050,0.02626605
2843.06206787,0.02612805
2844.99087524,0.02619834
2846.91968262,0.02599355
2848.84848999,0.02575577
2850.77729736,0.02579701
2852.70610474,0.02560371
2854.63491211,0.02559660
2856.56371948,0.02568661
2858.49252686,0.02565742
2860.42133423,0.02565331
2862.35014160,0.02555169
2864.27894897,0.02548829
2866.20775635,0.02548685
2868.13656372,0.02540388
2870.06537109,0.02531879
2871.99417847,0.02540098
2873.92298584,0.02527124
2875.85179321,0.02516508
2877.78060059,0.02521821
2879.70940796,0.02512682
2881.63821533,0.02513565
2883.56702270,0.02507044
2885.49583008,0.02513349
2887.42463745,0.02510585
2889.35344482,0.02490981
2891.28225220,0.02486692
2893.21105957,0.02480368
2895.13986694,0.02484697
2897.06867432,0.02465605
2898.99748169,0.02466825
2900.92628906,0.02474878
2902.85509644,0.02446967
2904.78390381,0.02448641
2906.71271118,0.02440352
2908.64151855,0.02430817
2910.57032593,0.02435617
2912.49913330,0.02422990
2914.42794067,0.02414565
2916.35674805,0.02415393
2918.28555542,0.02410327
2920.21436279,0.02399316
2922.14317017,0.02397596
2924.07197754,0.02396026
2926.00078491,0.02401409
2927.92959229,0.02409483
2929.85839966,0.02402050
2931.78720703,0.02385889
2933.71601440,0.02395877
2935.64482178,0.02415062
2937.57362915,0.02402008
2939.50243652,0.02392036
2941.43124390,0.02387416
2943.36005127,0.02396648
2945.28885864,0.02397961
2947.21766602,0.02387627
2949.14647339,0.02387629
2951.07528076,0.02367472
2953.00408813,0.02364003
2954.93289551,0.02362169
2956.86170288,0.02352031
2958.79051025,0.02343361
2960.71931763,0.02341423
2962.64812500,0.02340165
2964.57693237,0.02319912
2966.50573975,0.02332285
2968.43454712,0.02327991
2970.36335449,0.02328040
2972.29216187,0.02345330
2974.22096924,0.02327837
2976.14977661,0.02330927
2978.07858398,0.02330779
2980.00739136,0.02332581
2981.93619873,0.02336615
2983.86500610,0.02330654
2985.79381348,0.02328466
2987.72262085,0.02315033
2989.65142822,0.02319169
2991.58023560,0.02319716
2993.50904297,0.02300604
2995.43785034,0.02294824
2997.36665771,0.02306477
2999.29546509,0.02298674
3001.22427246,0.02287485
3003.15307983,0.02286506
3005.08188721,0.02277253
3007.01069458,0.02283404
3008.93950195,0.02275328
3010.86830933,0.02261502
3012.79711670,0.02260764
3014.72592407,0.02257767
3016.65473145,0.02252845
3018.58353882,0.02254925
3020.51234619,0.02259648
3022.44115356,0.02231693
3024.36996094,0.02220327
3026.29876831,0.02230528
3028.22757568,0.02228406
3030.15638306,0.02211092
3032.08519043,0.02191780
3034.01399780,0.02202883
3035.94280518,0.02207163
3037.87161255,0.02203255
3039.80041992,0.02189874
3041.72922729,0.02182799
3043.65803467,0.02187112
3045.58684204,0.02176937
3047.51564941,0.02174681
3049.44445679,0.02162883
3051.37326416,0.02162259
3053.30207153,0.02160650
3055.23087891,0.02154249
3057.15968628,0.02153614
3059.08849365,0.02140872
3061.01730103,0.02153288
3062.94610840,0.02141403
3064.87491577,0.02122733
3066.80372314,0.02132685
3068.73253052,0.02125179
3070.66133789,0.02119139
3072.59014526,0.02118310
3074.51895264,0.02123991
3076.44776001,0.02118593
3078.37656738,0.02104031
3080.30537476,0.02101275
3082.23418213,0.02092470
3084.16298950,0.02091670
3086.09179687,0.02092111
3088.02060425,0.02081270
3089.94941162,0.02072160
3091.87821899,0.02077564
3093.80702637,0.02084294
3095.73583374,0.02063419
3097.66464111,0.02055526
3099.59344849,0.02060981
3101.52225586,0.02049578
3103.45106323,0.02050259
3105.37987061,0.02046319
3107.30867798,0.02036958
3109.23748535,0.02029757
3111.16629272,0.02023827
3113.09510010,0.02024596
3115.02390747,0.02015151
3116.95271484,0.02012435
3118.88152222,0.02000409
3120.81032959,0.01998951
3122.73913696,0.01994480
3124.66794434,0.01980850
3126.59675171,0.01998304
3128.52555908,0.01981034
3130.45436645,0.01986501
3132.38317383,0.01985481
3134.31198120,0.01954589
3136.24078857,0.01976444
3138.16959595,0.01958684
3140.09840332,0.01952627
3142.02721069,0.01958308
3143.95601807,0.01941664
3145.88482544,0.01952275
3147.81363281,0.01935776
3149.74244019,0.01926699
3151.67124756,0.01915527
3153.60005493,0.01908533
3155.52886230,0.01920928
3157.45766968,0.01909796
3159.38647705,0.01905937
3161.31528442,0.01896350
3163.24409180,0.01885331
3165.17289917,0.01883801
3167.10170654,0.01878286
3169.03051392,0.01881274
3170.95932129,0.01884386
3172.88812866,0.01870874
3174.81693604,0.01854025
3176.74574341,0.01849594
3178.67455078,0.01854041
3180.60335815,0.01856807
3182.53216553,0.01840636
3184.46097290,0.01837110
3186.38978027,0.01840026
3188.31858765,0.01823738
3190.24739502,0.01817300
3192.17620239,0.01817834
3194.10500977,0.01811239
3196.03381714,0.01797868
3197.96262451,0.01801353
3199.89143188,0.01804001
3201.82023926,0.01788175
3203.74904663,0.01794586
3205.67785400,0.01802455
3207.60666138,0.01783715
3209.53546875,0.01777287
3211.46427612,0.01779009
3213.39308350,0.01764630
3215.32189087,0.01764864
3217.25069824,0.01769314
3219.17950562,0.01766087
3221.10831299,0.01757440
3223.03712036,0.01754752
3224.96592773,0.01762001
3226.89473511,0.01748604
3228.82354248,0.01744645
3230.75234985,0.01740727
3232.68115723,0.01738461
3234.60996460,0.01737250
3236.53877197,0.01730889
3238.46757935,0.01738644
3240.39638672,0.01721969
3242.32519409,0.01723263
3244.25400146,0.01717989
3246.18280884,0.01707165
3248.11161621,0.01716813
3250.04042358,0.01703962
3251.96923096,0.01717890
3253.89803833,0.01710819
3255.82684570,0.01699433
3257.75565308,0.01707748
3259.68446045,0.01696029
3261.61326782,0.01703918
3263.54207520,0.01700133
3265.47088257,0.01693822
3267.39968994,0.01693339
3269.32849731,0.01685645
3271.25730469,0.01680445
3273.18611206,0.01680112
3275.11491943,0.01685705
3277.04372681,0.01679054
3278.97253418,0.01679583
3280.90134155,0.01682620
3282.83014893,0.01675675
3284.75895630,0.01675448
3286.68776367,0.01676458
3288.61657104,0.01662699
3290.54537842,0.01665318
3292.47418579,0.01667519
3294.40299316,0.01657669
3296.33180054,0.01665135
3298.26060791,0.01648129
3300.18941528,0.01651934
3302.11822266,0.01655582
3304.04703003,0.01639548
3305.97583740,0.01653455
3307.90464478,0.01643344
3309.83345215,0.01635700
3311.76225952,0.01638052
3313.69106689,0.01638552
3315.61987427,0.01636317
3317.54868164,0.01632529
3319.47748901,0.01637179
3321.40629639,0.01627061
3323.33510376,0.01623565
3325.26391113,0.01618467
3327.19271851,0.01621718
3329.12152588,0.01621318
3331.05033325,0.01614697
3332.97914062,0.01611272
3334.90794800,0.01606812
3336.83675537,0.01612559
3338.76556274,0.01601586
3340.69437012,0.01608479
3342.62317749,0.01598777
3344.55198486,0.01589965
3346.48079224,0.01604199
3348.40959961,0.01588719
3350.33840698,0.01592541
3352.26721436,0.01591295
3354.19602173,0.01579873
3356.12482910,0.01580724
3358.05363647,0.01583554
3359.98244385,0.01568520
3361.91125122,0.01568545
3363.84005859,0.01579944
3365.76886597,0.01554430
3367.69767334,0.01562744
3369.62648071,0.01555889
3371.55528809,0.01551101
3373.48409546,0.01564112
3375.41290283,0.01550516
3377.34171020,0.01554989
3379.27051758,0.01546148
3381.19932495,0.01548915
3383.12813232,0.01537705
3385.05693970,0.01535058
3386.98574707,0.01545379
3388.91455444,0.01524253
3390.84336182,0.01520356
3392.77216919,0.01516087
3394.70097656,0.01525955
3396.62978394,0.01520794
3398.55859131,0.01519177
3400.48739868,0.01517006
3402.41620605,0.01497538
3404.34501343,0.01500623
3406.27382080,0.01498038
3408.20262817,0.01514328
3410.13143555,0.01502162
3412.06024292,0.01491857
3413.98905029,0.01489205
3415.91785767,0.01479965
3417.84666504,0.01503220
3419.77547241,0.01480925
3421.70427979,0.01472007
3423.63308716,0.01479187
3425.56189453,0.01469108
3427.49070190,0.01471086
3429.41950928,0.01467974
3431.34831665,0.01462878
3433.27712402,0.01462283
3435.20593140,0.01464779
3437.13473877,0.01453205
3439.06354614,0.01459531
3440.99235352,0.01445166
3442.92116089,0.01439314
3444.84996826,0.01452416
3446.77877563,0.01423992
3448.70758301,0.01432144
3450.63639038,0.01445003
3452.56519775,0.01444549
3454.49400513,0.01443019
3456.42281250,0.01425330
3458.35161987,0.01423644
3460.28042725,0.01428191
3462.20923462,0.01423904
3464.13804199,0.01421131
3466.06684937,0.01426817
3467.99565674,0.01415059
3469.92446411,0.01412444
3471.85327148,0.01406831
3473.78207886,0.01399171
3475.71088623,0.01401008
3477.63969360,0.01406568
3479.56850098,0.01407514
3481.49730835,0.01378529
3483.42611572,0.01402771
3485.35492310,0.01402297
3487.28373047,0.01382931
3489.21253784,0.01400214
3491.14134521,0.01388749
3493.07015259,0.01402231
3494.99895996,0.01390408
3496.92776733,0.01385969
3498.85657471,0.01400962
3500.78538208,0.01388094
3502.71418945,0.01356645
3504.64299683,0.01350065
3506.57180420,0.01394846
3508.50061157,0.01366293
3510.42941895,0.01361963
3512.35822632,0.01384611
3514.28703369,0.01377353
3516.21584106,0.01390827
3518.14464844,0.01372369
3520.07345581,0.01381039
3522.00226318,0.01368113
3523.93107056,0.01342462
3525.85987793,0.01350771
3527.78868530,0.01346855
3529.71749268,0.01354658
3531.64630005,0.01371451
3533.57510742,0.01389397
3535.50391479,0.01367273
3537.43272217,0.01355833
3539.36152954,0.01375830
3541.29033691,0.01374624
3543.21914429,0.01359307
3545.14795166,0.01314689
3547.07675903,0.01305399
3549.00556641,0.01355890
3550.93437378,0.01351880
3552.86318115,0.01328370
3554.79198853,0.01361888
3556.72079590,0.01364661
3558.64960327,0.01354007
3560.57841064,0.01342067
3562.50721802,0.01337410
3564.43602539,0.01339876
3566.36483276,0.01236450
3568.29364014,0.01200018
3570.22244751,0.01316221
3572.15125488,0.01364767
3574.08006226,0.01338085
3576.00886963,0.01344329
3577.93767700,0.01345973
3579.86648437,0.01338658
3581.79529175,0.01340760
3583.72409912,0.01349655
3585.65290649,0.01310299
3587.58171387,0.01177399
3589.51052124,0.01220747
3591.43932861,0.01350579
3593.36813599,0.01311117
3595.29694336,0.01278825
3597.22575073,0.01304917
3599.15455811,0.01327458
3601.08336548,0.01299497
3603.01217285,0.01316484
3604.94098022,0.01358521
3606.86978760,0.01283953
3608.79859497,0.01194848
3610.72740234,0.01241776
3612.65620972,0.01262217
3614.58501709,0.01214260
3616.51382446,0.01321288
3618.44263184,0.01201009
3620.37143921,0.01158421
3622.30024658,0.01338696
3624.22905395,0.01294833
3626.15786133,0.01360711
3628.08666870,0.01116986
3630.01547607,0.01007328
3631.94428345,0.01320971
3633.87309082,0.01275609
3635.80189819,0.01305013
3637.73070557,0.01336727
3639.65951294,0.01310107
3641.58832031,0.01316958
3643.51712769,0.01297344
3645.44593506,0.01311626
3647.37474243,0.01153936
3649.30354980,0.01051723
3651.23235718,0.01066454
3653.16116455,0.01300210
3655.08997192,0.01280267
3657.01877930,0.01137211
3658.94758667,0.01345272
3660.87639404,0.01289463
3662.80520142,0.01315607
3664.73400879,0.01322940
3666.66281616,0.01293285
3668.59162354,0.01249831
3670.52043091,0.00989000
3672.44923828,0.01227753
3674.37804565,0.01151908
3676.30685303,0.00924042
3678.23566040,0.01219055
3680.16446777,0.01254631
3682.09327515,0.01257741
3684.02208252,0.01301892
3685.95088989,0.01275305
3687.87969727,0.01130519
3689.80850464,0.01020768
3691.73731201,0.01181609
3693.66611938,0.01231787
3695.59492676,0.01261713
3697.52373413,0.01259285
3699.45254150,0.01251587
3701.38134888,0.01206276
3703.31015625,0.01163211
3705.23896362,0.01295376
3707.16777100,0.01214627
3709.09657837,0.01177668
3711.02538574,0.01104226
3712.95419312,0.01034830
3714.88300049,0.01230069
3716.81180786,0.01211831
3718.74061523,0.01225253
3720.66942261,0.01195402
3722.59822998,0.01150856
3724.52703735,0.01193064
3726.45584473,0.01095559
3728.38465210,0.01202503
3730.31345947,0.01196984
3732.24226685,0.01084174
3734.17107422,0.01042636
3736.09988159,0.00987082
3738.02868896,0.01061536
3739.95749634,0.01168604
3741.88630371,0.01224878
3743.81511108,0.00911965
3745.74391846,0.00849579
3747.67272583,0.01150367
3749.60153320,0.00967638
3751.53034058,0.00875021
3753.45914795,0.01035996
3755.38795532,0.01130731
3757.31676270,0.01174452
3759.24557007,0.01067069
3761.17437744,0.01123586
3763.10318481,0.01209392
3765.03199219,0.01108151
3766.96079956,0.01136940
3768.88960693,0.01117021
3770.81841431,0.01058383
3772.74722168,0.01164626
3774.67602905,0.01168989
3776.60483643,0.01172666
3778.53364380,0.01124085
3780.46245117,0.01073923
3782.39125854,0.01159337
3784.32006592,0.01127869
3786.24887329,0.01130317
3788.17768066,0.01148863
3790.10648804,0.01142371
3792.03529541,0.01142287
3793.96410278,0.01159784
3795.89291016,0.01086477
3797.82171753,0.01058436
3799.75052490,0.01124066
3801.67933228,0.00868077
3803.60813965,0.01030372
3805.53694702,0.01137470
3807.46575439,0.00909216
3809.39456177,0.01132272
3811.32336914,0.01103857
3813.25217651,0.01147058
3815.18098389,0.01021022
3817.10979126,0.00880230
3819.03859863,0.01148545
3820.96740601,0.00882551
3822.89621338,0.00951949
3824.82502075,0.01139663
3826.75382812,0.01001022
3828.68263550,0.01105304
3830.61144287,0.01054481
3832.54025024,0.01014496
3834.46905762,0.01036797
3836.39786499,0.00971045
3838.32667236,0.00872438
3840.25547974,0.00947947
3842.18428711,0.01032680
3844.11309448,0.00983966
3846.04190186,0.01079797
3847.97070923,0.01071165
3849.89951660,0.01060945
3851.82832397,0.00932162
3853.75713135,0.00674348
3855.68593872,0.00815698
3857.61474609,0.01053767
3859.54355347,0.01038439
3861.47236084,0.01020774
3863.40116821,0.00988105
3865.32997559,0.00909674
3867.25878296,0.01034996
3869.18759033,0.00932618
3871.11639770,0.00853343
3873.04520508,0.01042032
3874.97401245,0.00938651
3876.90281982,0.01031815
3878.83162720,0.01058587
3880.76043457,0.00875971
3882.68924194,0.01031944
3884.61804932,0.00957977
3886.54685669,0.00860517
3888.47566406,0.01039800
3890.40447144,0.00978304
3892.33327881,0.00895608
3894.26208618,0.01002349
3896.19089355,0.01021679
3898.11970093,0.00967915
3900.04850830,0.00912174
3901.97731567,0.00887465
3903.90612305,0.00886607
3905.83493042,0.00902753
3907.76373779,0.00998697
3909.69254517,0.01002091
3911.62135254,0.00987710
3913.55015991,0.01011750
3915.47896728,0.00971350
3917.40777466,0.00951934
3919.33658203,0.00934792
3921.26538940,0.00963243
3923.19419678,0.00970455
3925.12300415,0.00946331
3927.05181152,0.00969329
3928.98061890,0.00972154
3930.90942627,0.00939976
3932.83823364,0.00909343
3934.76704102,0.00961473
3936.69584839,0.00976195
3938.62465576,0.00954059
3940.55346313,0.00971397
3942.48227051,0.00931767
3944.41107788,0.00925639
3946.33988525,0.00954383
3948.26869263,0.00938720
3950.19750000,0.00933381
3952.12630737,0.00943981
3954.05511475,0.00945350
3955.98392212,0.00951487
3957.91272949,0.00947339
3959.84153687,0.00935174
3961.77034424,0.00927847
3963.69915161,0.00927299
3965.62795898,0.00935987
3967.55676636,0.00927813
3969.48557373,0.00932371
3971.41438110,0.00928618
3973.34318848,0.00920618
3975.27199585,0.00923287
3977.20080322,0.00917798
3979.12961060,0.00928788
3981.05841797,0.00920459
3982.98722534,0.00919419
3984.91603271,0.00915498
3986.84484009,0.00909139
3988.77364746,0.00918025
3990.70245483,0.00904840
3992.63126221,0.00902968
3994.56006958,0.00903114
3996.48887695,0.00908987
3998.41768433,0.00903393
4000.34649170,0.00896793
4002.27529907,0.00901835
4004.20410645,0.00893315
4006.13291382,0.00898206
4008.06172119,0.00893593
4009.99052856,0.00886628
4011.91933594,0.00884894
4013.84814331,0.00887354
4015.77695068,0.00887074
4017.70575806,0.00887285
4019.63456543,0.00883035
4021.56337280,0.00865693
4023.49218018,0.00872616
4025.42098755,0.00865833
4027.34979492,0.00871287
4029.27860229,0.00881746
4031.20740967,0.00872804
4033.13621704,0.00871126
4035.06502441,0.00852866
4036.99383179,0.00857143
4038.92263916,0.00859530
4040.85144653,0.00846164
4042.78025391,0.00846884
4044.70906128,0.00850587
4046.63786865,0.00853534
4048.56667603,0.00854779
4050.49548340,0.00852060
4052.42429077,0.00848349
4054.35309814,0.00855218
4056.28190552,0.00843245
4058.21071289,0.00841167
4060.13952026,0.00838511
4062.06832764,0.00832092
4063.99713501,0.00843567
4065.92594238,0.00825142
4067.85474976,0.00826700
4069.78355713,0.00832221
4071.71236450,0.00826290
4073.64117187,0.00825018
4075.56997925,0.00813199
4077.49878662,0.00821802
4079.42759399,0.00823982
4081.35640137,0.00817823
4083.28520874,0.00812559
4085.21401611,0.00813420
4087.14282349,0.00813067
4089.07163086,0.00805744
4091.00043823,0.00808805
4092.92924561,0.00808789
4094.85805298,0.00804217
4096.78686035,0.00796057
4098.71566772,0.00795956
4100.64447510,0.00792786
4102.57328247,0.00798103
4104.50208984,0.00798947
4106.43089722,0.00785196
4108.35970459,0.00793770
4110.28851196,0.00790237
4112.21731934,0.00784052
4114.14612671,0.00783348
4116.07493408,0.00786611
4118.00374145,0.00791978
4119.93254883,0.00772908
4121.86135620,0.00766606
4123.79016357,0.00775935
4125.71897095,0.00776385
4127.64777832,0.00773701
4129.57658569,0.00769632
4131.50539307,0.00761487
4133.43420044,0.00767216
4135.36300781,0.00765033
4137.29181519,0.00757597
4139.22062256,0.00768821
4141.14942993,0.00762118
4143.07823730,0.00762685
4145.00704468,0.00764883
4146.93585205,0.00759392
4148.86465942,0.00760756
4150.79346680,0.00751807
4152.72227417,0.00748382
4154.65108154,0.00742978
4156.57988892,0.00741345
4158.50869629,0.00740261
4160.43750366,0.00738653
4162.36631103,0.00740045
4164.29511841,0.00737415
4166.22392578,0.00739892
4168.15273315,0.00732280
4170.08154053,0.00726653
4172.01034790,0.00729161
4173.93915527,0.00735466
4175.86796265,0.00738659
4177.79677002,0.00730967
4179.72557739,0.00725098
4181.65438477,0.00719844
4183.58319214,0.00716615
4185.51199951,0.00712607
4187.44080688,0.00708086
4189.36961426,0.00710034
4191.29842163,0.00712430
4193.22722900,0.00709330
4195.15603638,0.00708964
4197.08484375,0.00704108
4199.01365112,0.00707720
4200.94245850,0.00706402
4202.87126587,0.00692825
4204.80007324,0.00706094
4206.72888062,0.00699071
4208.65768799,0.00699267
4210.58649536,0.00701045
4212.51530273,0.00681590
4214.44411011,0.00700627
4216.37291748,0.00691333
4218.30172485,0.00682009
4220.23053223,0.00692235
4222.15933960,0.00685790
4224.08814697,0.00685685
4226.01695435,0.00679633
4227.94576172,0.00683621
4229.87456909,0.00676667
4231.80337646,0.00672485
4233.73218384,0.00674011
4235.66099121,0.00668684
4237.58979858,0.00674490
4239.51860596,0.00672875
4241.44741333,0.00670649
4243.37622070,0.00665771
4245.30502808,0.00671704
4247.23383545,0.00674350
4249.16264282,0.00671235
4251.09145020,0.00670742
4253.02025757,0.00656357
4254.94906494,0.00655695
4256.87787231,0.00653130
4258.80667969,0.00652127
4260.73548706,0.00661185
4262.66429443,0.00657273
4264.59310181,0.00651422
4266.52190918,0.00651049
4268.45071655,0.00649714
4270.37952393,0.00647633
4272.30833130,0.00646088
4274.23713867,0.00637773
4276.16594604,0.00634904
4278.09475342,0.00639364
4280.02356079,0.00643093
4281.95236816,0.00636437
4283.88117554,0.00630607
4285.80998291,0.00639553
4287.73879028,0.00638208
4289.66759766,0.00629377
4291.59640503,0.00628220
4293.52521240,0.00630749
4295.45401978,0.00625235
4297.38282715,0.00622476
4299.31163452,0.00619508
4301.24044189,0.00621431
4303.16924927,0.00626237
4305.09805664,0.00614340
4307.02686401,0.00614650
4308.95567139,0.00608402
4310.88447876,0.00611411
4312.81328613,0.00616536
4314.74209351,0.00603462
4316.67090088,0.00608241
4318.59970825,0.00604691
4320.52851562,0.00605437
4322.45732300,0.00602809
4324.38613037,0.00601691
4326.31493774,0.00601674
4328.24374512,0.00599797
4330.17255249,0.00611523
4332.10135986,0.00593704
4334.03016724,0.00591121
4335.95897461,0.00592054
4337.88778198,0.00588718
4339.81658936,0.00593931
4341.74539673,0.00581180
4343.67420410,0.00587546
4345.60301147,0.00586298
4347.53181885,0.00581563
4349.46062622,0.00578476
4351.38943359,0.00575193
4353.31824097,0.00581689
4355.24704834,0.00581014
4357.17585571,0.00582858
4359.10466309,0.00572151
4361.03347046,0.00570127
4362.96227783,0.00576727
4364.89108520,0.00572505
4366.81989258,0.00570093
4368.74869995,0.00567380
4370.67750732,0.00563877
4372.60631470,0.00567286
4374.53512207,0.00568583
4376.46392944,0.00563668
4378.39273682,0.00563664
4380.32154419,0.00557608
4382.25035156,0.00566254
4384.17915894,0.00557308
4386.10796631,0.00544739
4388.03677368,0.00555748
4389.96558105,0.00548469
4391.89438843,0.00561638
4393.82319580,0.00552905
4395.75200317,0.00537898
4397.68081055,0.00545046
4399.60961792,0.00542114
4401.53842529,0.00550777
4403.46723267,0.00540293
4405.39604004,0.00538917
4407.32484741,0.00540412
4409.25365478,0.00535661
4411.18246216,0.00535074
4413.11126953,0.00532110
4415.04007690,0.00536039
4416.96888428,0.00529668
4418.89769165,0.00532146
4420.82649902,0.00521970
4422.75530640,0.00527146
4424.68411377,0.00531708
4426.61292114,0.00522935
4428.54172852,0.00534851
4430.47053589,0.00516592
4432.39934326,0.00519862
4434.32815063,0.00532919
4436.25695801,0.00526796
4438.18576538,0.00516586
4440.11457275,0.00505372
4442.04338013,0.00518166
4443.97218750,0.00515885
4445.90099487,0.00517432
4447.82980225,0.00512933
4449.75860962,0.00505783
4451.68741699,0.00511780
4453.61622437,0.00501003
4455.54503174,0.00503664
4457.47383911,0.00505748
4459.40264648,0.00499261
4461.33145386,0.00501250
4463.26026123,0.00507374
4465.18906860,0.00501272
4467.11787598,0.00491299
4469.04668335,0.00497319
4470.97549072,0.00502384
4472.90429810,0.00496756
4474.83310547,0.00486378
4476.76191284,0.00493831
4478.69072021,0.00496097
4480.61952759,0.00489792
4482.54833496,0.00492892
4484.47714233,0.00484721
4486.40594971,0.00480278
4488.33475708,0.00481487
4490.26356445,0.00480853
4492.19237183,0.00483590
4494.12117920,0.00478473
4496.04998657,0.00467590
4497.97879395,0.00473702
4499.90760132,0.00476706
4501.83640869,0.00466609
4503.76521606,0.00471535
4505.69402344,0.00482199
4507.62283081,0.00487555
4509.55163818,0.00476376
4511.48044556,0.00469501
4513.40925293,0.00472331
4515.33806030,0.00464454
4517.26686768,0.00463128
4519.19567505,0.00463751
4521.12448242,0.00463666
4523.05328979,0.00463599
4524.98209717,0.00464471
4526.91090454,0.00461314
4528.83971191,0.00456612
4530.76851929,0.00458739
4532.69732666,0.00454491
4534.62613403,0.00451202
4536.55494141,0.00455804
4538.48374878,0.00457243
4540.41255615,0.00445474
4542.34136353,0.00448255
4544.27017090,0.00455424
4546.19897827,0.00443702
4548.12778564,0.00439849
4550.05659302,0.00442749
4551.98540039,0.00447299
4553.91420776,0.00440209
4555.84301514,0.00438100
4557.77182251,0.00442906
4559.70062988,0.00434325
4561.62943726,0.00437535
4563.55824463,0.00443226
4565.48705200,0.00438229
4567.41585937,0.00433768
4569.34466675,0.00432509
4571.27347412,0.00423811
4573.20228149,0.00425149
4575.13108887,0.00430832
4577.05989624,0.00426200
4578.98870361,0.00430233
4580.91751099,0.00426544
4582.84631836,0.00427990
4584.77512573,0.00431369
4586.70393311,0.00427683
4588.63274048,0.00422388
4590.56154785,0.00417667
4592.49035522,0.00423646
4594.41916260,0.00418456
4596.34796997,0.00421046
4598.27677734,0.00423324
4600.20558472,0.00415609
4602.13439209,0.00414988
4604.06319946,0.00416478
4605.99200684,0.00413438
4607.92081421,0.00406203
4609.84962158,0.00414980
4611.77842895,0.00409293
4613.70723633,0.00404254
4615.63604370,0.00406732
4617.56485107,0.00406602
4619.49365845,0.00415422
4621.42246582,0.00395206
4623.35127319,0.00390108
4625.28008057,0.00398319
4627.20888794,0.00396012
4629.13769531,0.00402125
4631.06650269,0.00395676
4632.99531006,0.00393506
4634.92411743,0.00398357
4636.85292480,0.00400540
4638.78173218,0.00394243
4640.71053955,0.00393304
4642.63934692,0.00394557
4644.56815430,0.00381343
4646.49696167,0.00384595
4648.42576904,0.00391290
4650.35457642,0.00384199
4652.28338379,0.00387007
4654.21219116,0.00388316
4656.14099853,0.00376835
4658.06980591,0.00381601
4659.99861328,0.00381064
4661.92742065,0.00374133
4663.85622803,0.00386329
4665.78503540,0.00382057
4667.71384277,0.00372893
4669.64265015,0.00376737
4671.57145752,0.00376288
4673.50026489,0.00368208
4675.42907227,0.00370883
4677.35787964,0.00375616
4679.28668701,0.00369930
4681.21549438,0.00371357
4683.14430176,0.00364549
4685.07310913,0.00367982
4687.00191650,0.00375886
4688.93072388,0.00367175
4690.85953125,0.00365380
4692.78833862,0.00367475
4694.71714600,0.00361620
4696.64595337,0.00356579
4698.57476074,0.00369277
4700.50356812,0.00365632
4702.43237549,0.00354480
4704.36118286,0.00356143
4706.28999023,0.00356814
4708.21879761,0.00362373
4710.14760498,0.00353619
4712.07641235,0.00349914
4714.00521973,0.00351997
4715.93402710,0.00352406
4717.86283447,0.00354071
4719.79164185,0.00346517
4721.72044922,0.00345945
4723.64925659,0.00347532
4725.57806396,0.00346101
4727.50687134,0.00342641
4729.43567871,0.00347798
4731.36448608,0.00343481
4733.29329346,0.00336250
4735.22210083,0.00341414
4737.15090820,0.00339711
4739.07971558,0.00344515
4741.00852295,0.00337470
4742.93733032,0.00337277
4744.86613770,0.00342878
4746.79494507,0.00337186
4748.72375244,0.00341238
4750.65255981,0.00337497
4752.58136719,0.00336570
4754.51017456,0.00333124
4756.43898193,0.00332409
4758.36778931,0.00328940
4760.29659668,0.00320658
4762.22540405,0.00329076
4764.15421143,0.00324597
4766.08301880,0.00323859
4768.01182617,0.00330944
4769.94063354,0.00332379
4771.86944092,0.00330203
4773.79824829,0.00321047
4775.72705566,0.00323926
4777.65586304,0.00325523
4779.58467041,0.00315077
4781.51347778,0.00313796
4783.44228516,0.00323238
4785.37109253,0.00320114
4787.29989990,0.00312877
4789.22870728,0.00320208
4791.15751465,0.00322083
4793.08632202,0.00312938
4795.01512939,0.00317762
4796.94393677,0.00319217
4798.87274414,0.00310192
4800.80155151,0.00318028
4802.73035889,0.00313730
4804.65916626,0.00309446
4806.58797363,0.00315996
4808.51678101,0.00310684
4810.44558838,0.00308969
4812.37439575,0.00308767
4814.30320312,0.00311188
4816.23201050,0.00304470
4818.16081787,0.00299828
4820.08962524,0.00301262
4822.01843262,0.00301507
4823.94723999,0.00305494
4825.87604736,0.00299960
4827.80485474,0.00302906
4829.73366211,0.00295955
4831.66246948,0.00294388
4833.59127686,0.00303821
4835.52008423,0.00298242
4837.44889160,0.00304632
4839.37769897,0.00302044
4841.30650635,0.00295361
4843.23531372,0.00294590
4845.16412109,0.00293840
4847.09292847,0.00294846
4849.02173584,0.00290885
4850.95054321,0.00294040
4852.87935059,0.00290300
4854.80815796,0.00283079
4856.73696533,0.00281274
4858.66577270,0.00286913
4860.59458008,0.00289238
4862.52338745,0.00285670
4864.45219482,0.00292585
4866.38100220,0.00290031
4868.30980957,0.00286489
4870.23861694,0.00286106
4872.16742432,0.00282150
4874.09623169,0.00282416
4876.02503906,0.00280825
4877.95384644,0.00280969
4879.88265381,0.00280907
4881.81146118,0.00281942
4883.74026855,0.00281112
4885.66907593,0.00275631
4887.59788330,0.00276632
4889.52669067,0.00275287
4891.45549805,0.00270418
4893.38430542,0.00274494
4895.31311279,0.00275770
4897.24192017,0.00274243
4899.17072754,0.00272992
4901.09953491,0.00270002
4903.02834228,0.00267790
4904.95714966,0.00261320
4906.88595703,0.00270681
4908.81476440,0.00275946
4910.74357178,0.00264647
4912.67237915,0.00265845
4914.60118652,0.00268457
4916.52999390,0.00269344
4918.45880127,0.00266620
4920.38760864,0.00264314
4922.31641602,0.00260054
4924.24522339,0.00255673
4926.17403076,0.00265259
4928.10283813,0.00267857
4930.03164551,0.00261728
4931.96045288,0.00260712
4933.88926025,0.00266670
4935.81806763,0.00261002
4937.74687500,0.00249373
4939.67568237,0.00254505
4941.60448975,0.00264283
4943.53329712,0.00261135
4945.46210449,0.00249369
4947.39091187,0.00249960
4949.31971924,0.00249522
4951.24852661,0.00252555
4953.17733398,0.00252699
4955.10614136,0.00243614
4957.03494873,0.00250461
4958.96375610,0.00249065
4960.89256348,0.00250614
4962.82137085,0.00250856
4964.75017822,0.00242697
4966.67898560,0.00248138
4968.60779297,0.00241312
4970.53660034,0.00243637
4972.46540771,0.00253113
4974.39421509,0.00240540
4976.32302246,0.00247784
4978.25182983,0.00257897
4980.18063721,0.00238565
4982.10944458,0.00236566
4984.03825195,0.00241063
4985.96705933,0.00237931
4987.89586670,0.00238662
4989.82467407,0.00236648
4991.75348145,0.00244586
4993.68228882,0.00234522
4995.61109619,0.00232415
4997.53990356,0.00243103
4999.46871094,0.00235049
5001.39751831,0.00237167
5003.32632568,0.00232157
5005.25513306,0.00229851
5007.18394043,0.00230450
5009.11274780,0.00229127
5011.04155518,0.00228583
5012.97036255,0.00216334
5014.89916992,0.00222868
5016.82797729,0.00229607
5018.75678467,0.00225383
5020.68559204,0.00221055
5022.61439941,0.00222445
5024.54320679,0.00225119
5026.47201416,0.00221912
5028.40082153,0.00220724
5030.32962891,0.00215440
5032.25843628,0.00222709
5034.18724365,0.00221944
5036.11605103,0.00219027
5038.04485840,0.00221915
5039.97366577,0.00214915
5041.90247314,0.00224005
5043.83128052,0.00224550
5045.76008789,0.00219578
5047.68889526,0.00220702
5049.61770264,0.00218250
5051.54651001,0.00216388
5053.47531738,0.00210204
5055.40412476,0.00211863
5057.33293213,0.00213904
5059.26173950,0.00212408
5061.19054687,0.00214241
5063.11935425,0.00216618
5065.04816162,0.00212612
5066.97696899,0.00213802
5068.90577637,0.00214888
5070.83458374,0.00201414
5072.76339111,0.00202449
5074.69219849,0.00209366
5076.62100586,0.00209454
5078.54981323,0.00208060
5080.47862061,0.00208291
5082.40742798,0.00209786
5084.33623535,0.00206487
5086.26504272,0.00208306
5088.19385010,0.00201971
5090.12265747,0.00198338
5092.05146484,0.00201235
5093.98027222,0.00198069
5095.90907959,0.00202970
5097.83788696,0.00199129
5099.76669434,0.00193999
5101.69550171,0.00200655
5103.62430908,0.00193513
5105.55311645,0.00190600
5107.48192383,0.00200671
5109.41073120,0.00196512
5111.33953857,0.00195706
5113.26834595,0.00197521
5115.19715332,0.00195249
5117.12596069,0.00198572
5119.05476807,0.00192351
5120.98357544,0.00194702
5122.91238281,0.00199895
5124.84119019,0.00190494
5126.76999756,0.00189946
5128.69880493,0.00193383
5130.62761230,0.00188264
5132.55641968,0.00189757
5134.48522705,0.00192437
5136.41403442,0.00184006
5138.34284180,0.00187657
5140.27164917,0.00193786
5142.20045654,0.00189590
5144.12926392,0.00183170
5146.05807129,0.00180015
5147.98687866,0.00185669
5149.91568603,0.00183170
5151.84449341,0.00183298
5153.77330078,0.00185219
5155.70210815,0.00182169
5157.63091553,0.00178325
5159.55972290,0.00175952
5161.48853027,0.00182570
5163.41733765,0.00176940
5165.34614502,0.00175661
5167.27495239,0.00180212
5169.20375977,0.00176488
5171.13256714,0.00178385
5173.06137451,0.00177545
5174.99018188,0.00179200
5176.91898926,0.00180469
5178.84779663,0.00172390
5180.77660400,0.00171378
5182.70541138,0.00180913
5184.63421875,0.00174672
5186.56302612,0.00171897
5188.49183350,0.00183772
5190.42064087,0.00178499
5192.34944824,0.00172972
5194.27825562,0.00169143
5196.20706299,0.00169769
5198.13587036,0.00174728
5200.06467773,0.00172142
5201.99348511,0.00174196
5203.92229248,0.00174625
5205.85109985,0.00170956
5207.77990723,0.00163535
5209.70871460,0.00162137
5211.63752197,0.00164876
5213.56632935,0.00169947
5215.49513672,0.00174360
5217.42394409,0.00168682
5219.35275146,0.00163072
5221.28155884,0.00160522
5223.21036621,0.00168754
5225.13917358,0.00162354
5227.06798096,0.00159185
5228.99678833,0.00167980
5230.92559570,0.00160459
5232.85440308,0.00169041
5234.78321045,0.00165297
5236.71201782,0.00157743
5238.64082520,0.00165736
5240.56963257,0.00162049
5242.49843994,0.00160263
5244.42724731,0.00153373
5246.35605469,0.00157605
5248.28486206,0.00154530
5250.21366943,0.00143531
5252.14247681,0.00156555
5254.07128418,0.00158296
5256.00009155,0.00158615
5257.92889893,0.00163687
5259.85770630,0.00159698
5261.78651367,0.00156469
5263.71532104,0.00151871
5265.64412842,0.00150920
5267.57293579,0.00151421
5269.50174316,0.00151069
5271.43055054,0.00149320
5273.35935791,0.00149130
5275.28816528,0.00152277
5277.21697266,0.00156112
5279.14578003,0.00157367
5281.07458740,0.00152880
5283.00339478,0.00156758
5284.93220215,0.00151020
5286.86100952,0.00145424
5288.78981689,0.00154624
5290.71862427,0.00148211
5292.64743164,0.00156288
5294.57623901,0.00157091
5296.50504639,0.00144428
5298.43385376,0.00153113
5300.36266113,0.00143274
5302.29146851,0.00146521
5304.22027588,0.00153489
5306.14908325,0.00140141
5308.07789062,0.00143954
5310.00669800,0.00145626
5311.93550537,0.00148435
5313.86431274,0.00148902
5315.79312012,0.00146690
5317.72192749,0.00145122
5319.65073486,0.00140852
5321.57954224,0.00145960
5323.50834961,0.00142600
5325.43715698,0.00141690
5327.36596436,0.00139266
5329.29477173,0.00132154
5331.22357910,0.00144163
5333.15238647,0.00146225
5335.08119385,0.00132009
5337.01000122,0.00137826
5338.93880859,0.00143118
5340.86761597,0.00138734
5342.79642334,0.00141943
5344.72523071,0.00130083
5346.65403809,0.00133453
5348.58284546,0.00143515
5350.51165283,0.00132716
5352.44046020,0.00135190
5354.36926758,0.00134332
5356.29807495,0.00131594
5358.22688232,0.00136449
5360.15568970,0.00140165
5362.08449707,0.00135186
5364.01330444,0.00131906
5365.94211182,0.00134771
5367.87091919,0.00127821
5369.79972656,0.00131974
5371.72853394,0.00131405
5373.65734131,0.00133024
5375.58614868,0.00133521
5377.51495605,0.00123027
5379.44376343,0.00132639
5381.37257080,0.00134134
5383.30137817,0.00129267
5385.23018555,0.00124884
5387.15899292,0.00124314
5389.08780029,0.00131239
5391.01660767,0.00131799
5392.94541504,0.00131255
5394.87422241,0.00124719
5396.80302978,0.00121267
5398.73183716,0.00118925
5400.66064453,0.00121313
5402.58945190,0.00116577
5404.51825928,0.00120550
5406.44706665,0.00136359
5408.37587402,0.00120850
5410.30468140,0.00117666
5412.23348877,0.00119043
5414.16229614,0.00114399
5416.09110352,0.00122964
5418.01991089,0.00116312
5419.94871826,0.00117842
5421.87752563,0.00133845
5423.80633301,0.00135969
5425.73514038,0.00123924
5427.66394775,0.00115418
5429.59275513,0.00106119
5431.52156250,0.00110340
5433.45036987,0.00121335
5435.37917725,0.00113889
5437.30798462,0.00122519
5439.23679199,0.00123019
5441.16559936,0.00114031
5443.09440674,0.00121343
5445.02321411,0.00118167
5446.95202148,0.00116738
5448.88082886,0.00117877
5450.80963623,0.00118331
5452.73844360,0.00123348
5454.66725098,0.00116182
5456.59605835,0.00108678
5458.52486572,0.00112133
5460.45367310,0.00110071
5462.38248047,0.00110643
5464.31128784,0.00115582
5466.24009521,0.00117729
5468.16890259,0.00116078
5470.09770996,0.00107190
5472.02651733,0.00116943
5473.95532471,0.00120316
5475.88413208,0.00104955
5477.81293945,0.00110057
5479.74174683,0.00115499
5481.67055420,0.00112591
5483.59936157,0.00115258
5485.52816895,0.00106217
5487.45697632,0.00098728
5489.38578369,0.00113657
5491.31459106,0.00110595
5493.24339844,0.00104710
5495.17220581,0.00115754
5497.10101318,0.00111425
5499.02982056,0.00109329
5500.95862793,0.00108384
5502.88743530,0.00108270
5504.81624268,0.00102819
5506.74505005,0.00100792
5508.67385742,0.00106693
5510.60266479,0.00099010
5512.53147217,0.00109319
5514.46027954,0.00110586
5516.38908691,0.00101147
5518.31789429,0.00100693
5520.24670166,0.00099226
5522.17550903,0.00102831
5524.10431641,0.00096931
5526.03312378,0.00101039
5527.96193115,0.00100748
5529.89073853,0.00102407
5531.81954590,0.00106372
5533.74835327,0.00097704
5535.67716064,0.00102699
5537.60596802,0.00096842
5539.53477539,0.00098941
5541.46358276,0.00104098
5543.39239014,0.00101010
5545.32119751,0.00103008
5547.25000488,0.00095670
5549.17881226,0.00099354
5551.10761963,0.00095839
5553.03642700,0.00092413
5554.96523437,0.00095204
5556.89404175,0.00095276
5558.82284912,0.00104865
5560.75165649,0.00098081
5562.68046387,0.00094422
5564.60927124,0.00095922
5566.53807861,0.00092358
5568.46688599,0.00104189
5570.39569336,0.00104325
5572.32450073,0.00096375
5574.25330811,0.00102521
5576.18211548,0.00098419
5578.11092285,0.00090208
5580.03973022,0.00092377
5581.96853760,0.00090903
5583.89734497,0.00093874
5585.82615234,0.00095455
5587.75495972,0.00089547
5589.68376709,0.00094359
5591.61257446,0.00095895
5593.54138184,0.00089439
5595.47018921,0.00092814
5597.39899658,0.00087836
5599.32780395,0.00085111
5601.25661133,0.00099613
5603.18541870,0.00091893
5605.11422607,0.00085820
5607.04303345,0.00096049
5608.97184082,0.00093110
5610.90064819,0.00091069
5612.82945557,0.00090141
5614.75826294,0.00089061
5616.68707031,0.00087277
5618.61587769,0.00090545
5620.54468506,0.00094449
5622.47349243,0.00087892
5624.40229980,0.00087969
5626.33110718,0.00086783
5628.25991455,0.00086460
5630.18872192,0.00089072
5632.11752930,0.00086700
5634.04633667,0.00085851
5635.97514404,0.00088097
5637.90395142,0.00088869
5639.83275879,0.00085192
5641.76156616,0.00087407
5643.69037353,0.00082346
5645.61918091,0.00077885
5647.54798828,0.00085159
5649.47679565,0.00081814
5651.40560303,0.00080289
5653.33441040,0.00084360
5655.26321777,0.00082958
5657.19202515,0.00083257
5659.12083252,0.00085952
5661.04963989,0.00087146
5662.97844727,0.00085893
5664.90725464,0.00083216
5666.83606201,0.00086380
5668.76486938,0.00083977
5670.69367676,0.00077128
5672.62248413,0.00082836
5674.55129150,0.00079050
5676.48009888,0.00077119
5678.40890625,0.00083452
5680.33771362,0.00080399
5682.26652100,0.00083408
5684.19532837,0.00085383
5686.12413574,0.00080690
5688.05294311,0.00077501
5689.98175049,0.00081113
5691.91055786,0.00082268
5693.83936523,0.00079463
5695.76817261,0.00081932
5697.69697998,0.00081663
5699.62578735,0.00078166
5701.55459473,0.00074734
5703.48340210,0.00079761
5705.41220947,0.00075319
5707.34101685,0.00072208
5709.26982422,0.00084763
5711.19863159,0.00079568
5713.12743896,0.00071933
5715.05624634,0.00073347
5716.98505371,0.00077638
5718.91386108,0.00077458
5720.84266846,0.00072008
5722.77147583,0.00073533
5724.70028320,0.00079333
5726.62909058,0.00078683
5728.55789795,0.00070278
5730.48670532,0.00078881
5732.41551270,0.00075281
5734.34432007,0.00069036
5736.27312744,0.00079986
5738.20193481,0.00073070
5740.13074219,0.00071407
5742.05954956,0.00069481
5743.98835693,0.00070395
5745.91716431,0.00071007
5747.84597168,0.00070627
5749.77477905,0.00079612
5751.70358643,0.00069303
5753.63239380,0.00071969
5755.56120117,0.00074066
5757.49000854,0.00070258
5759.41881592,0.00072389
5761.34762329,0.00062078
5763.27643066,0.00064122
5765.20523804,0.00069226
5767.13404541,0.00068876
5769.06285278,0.00059268
5770.99166016,0.00065318
5772.92046753,0.00075550
5774.84927490,0.00063638
5776.77808228,0.00067043
5778.70688965,0.00064730
5780.63569702,0.00064015
5782.56450439,0.00065744
5784.49331177,0.00062338
5786.42211914,0.00069480
5788.35092651,0.00066463
5790.27973389,0.00068304
5792.20854126,0.00070055
5794.13734863,0.00069433
5796.06615601,0.00064663
5797.99496338,0.00057243
5799.92377075,0.00063801
5801.85257812,0.00063767
5803.78138550,0.00064304
5805.71019287,0.00064784
5807.63900024,0.00063911
5809.56780762,0.00067291
5811.49661499,0.00063938
5813.42542236,0.00059102
5815.35422974,0.00061060
5817.28303711,0.00061427
5819.21184448,0.00059125
5821.14065186,0.00066533
5823.06945923,0.00059680
5824.99826660,0.00060465
5826.92707397,0.00066972
5828.85588135,0.00054620
5830.78468872,0.00064605
5832.71349609,0.00062362
5834.64230347,0.00052791
5836.57111084,0.00059772
5838.49991821,0.00059148
5840.42872559,0.00064364
5842.35753296,0.00060089
5844.28634033,0.00055733
5846.21514770,0.00059203
5848.14395508,0.00061274
5850.07276245,0.00062903
5852.00156982,0.00061509
5853.93037720,0.00060894
5855.85918457,0.00056507
5857.78799194,0.00062069
5859.71679932,0.00057986
5861.64560669,0.00051406
5863.57441406,0.00058582
5865.50322144,0.00055104
5867.43202881,0.00059507
5869.36083618,0.00059290
5871.28964355,0.00054805
5873.21845093,0.00060956
5875.14725830,0.00060882
5877.07606567,0.00061620
5879.00487305,0.00058128
5880.93368042,0.00051492
5882.86248779,0.00052325
5884.79129517,0.00062964
5886.72010254,0.00065363
5888.64890991,0.00052550
5890.57771728,0.00054625
5892.50652466,0.00057085
5894.43533203,0.00052835
5896.36413940,0.00061246
5898.29294678,0.00059719
5900.22175415,0.00053954
5902.15056152,0.00057351
5904.07936890,0.00051762
5906.00817627,0.00051206
5907.93698364,0.00051854
5909.86579102,0.00048470
5911.79459839,0.00055024
5913.72340576,0.00051726
5915.65221313,0.00050247
5917.58102051,0.00054441
5919.50982788,0.00051577
5921.43863525,0.00054836
5923.36744263,0.00052098
5925.29625000,0.00048583
5927.22505737,0.00051798
5929.15386475,0.00050701
5931.08267212,0.00054224
5933.01147949,0.00058866
5934.94028686,0.00053662
5936.86909424,0.00050554
5938.79790161,0.00049321
5940.72670898,0.00043858
5942.65551636,0.00050052
5944.58432373,0.00054730
5946.51313110,0.00050448
5948.44193848,0.00053125
5950.37074585,0.00049145
5952.29955322,0.00043261
5954.22836060,0.00049669
5956.15716797,0.00052486
5958.08597534,0.00048045
5960.01478271,0.00047426
5961.94359009,0.00048213
5963.87239746,0.00048010
5965.80120483,0.00047721
5967.73001221,0.00049675
5969.65881958,0.00048737
5971.58762695,0.00042130
5973.51643433,0.00045646
5975.44524170,0.00047431
5977.37404907,0.00046091
5979.30285645,0.00048469
5981.23166382,0.00042335
5983.16047119,0.00045905
5985.08927856,0.00048651
5987.01808594,0.00041758
5988.94689331,0.00048246
5990.87570068,0.00055610
5992.80450806,0.00051978
5994.73331543,0.00048897
5996.66212280,0.00049545
5998.59093018,0.00047970
6000.51973755,0.00045898
