399.26312622,0.00059407
401.19193359,0.00097172
403.12074097,0.00057975
405.04954834,0.00037600
406.97835571,0.00052331
408.90716309,0.00065448
410.83597046,0.00071779
412.76477783,0.00105850
414.69358521,0.00148563
416.62239258,0.00104975
418.55119995,0.00076351
420.48000732,0.00077208
422.40881470,0.00078405
424.33762207,0.00111468
426.26642944,0.00100695
428.19523682,0.00103190
430.12404419,0.00106872
432.05285156,0.00092638
433.98165894,0.00125941
435.91046631,0.00108524
437.83927368,0.00096187
439.76808105,0.00112074
441.69688843,0.00078784
443.62569580,0.00088682
445.55450317,0.00075082
447.48331055,0.00058915
449.41211792,0.00103416
451.34092529,0.00069658
453.26973267,0.00060389
455.19854004,0.00088421
457.12734741,0.00070313
459.05615479,0.00079859
460.98496216,0.00075315
462.91376953,0.00060677
464.84257690,0.00038505
466.77138428,0.00038906
468.70019165,0.00072086
470.62899902,0.00040468
472.55780640,0.00032100
474.48661377,0.00060685
476.41542114,0.00037576
478.34422852,0.00027053
480.27303589,0.00036229
482.20184326,0.00021620
484.13065063,0.00032024
486.05945801,0.00030373
487.98826538,0.00005219
489.91707275,0.00017725
491.84588013,-0.00005813
493.77468750,-0.00000816
495.70349487,0.00030049
497.63230225,0.00010909
499.56110962,0.00043714
501.48991699,0.00049909
503.41872437,0.00019596
505.34753174,0.00039279
507.27633911,0.00015372
509.20514648,0.00001676
511.13395386,0.00032687
513.06276123,0.00020606
514.99156860,0.00033142
516.92037598,0.00011716
518.84918335,0.00009267
520.77799072,0.00027725
522.70679810,0.00017552
524.63560547,-0.00005959
526.56441284,-0.00011130
528.49322021,0.00026176
530.42202759,0.00003478
532.35083496,0.00031464
534.27964233,0.00047794
536.20844971,-0.00018473
538.13725708,0.00004666
540.06606445,0.00004772
541.99487183,-0.00021182
543.92367920,0.00021638
545.85248657,0.00031299
547.78129395,0.00018081
549.71010132,0.00039823
551.63890869,0.00014810
553.56771606,-0.00000544
555.49652344,0.00008036
557.42533081,-0.00000079
559.35413818,0.00044103
561.28294556,0.00039906
563.21175293,0.00008390
565.14056030,0.00014161
567.06936768,0.00019642
568.99817505,0.00007361
570.92698242,-0.00009015
572.85578979,0.00003559
574.78459717,-0.00010404
576.71340454,0.00022860
578.64221191,0.00019575
580.57101929,-0.00010089
582.49982666,0.00018316
584.42863403,-0.00002543
586.35744141,0.00032698
588.28624878,0.00019705
590.21505615,-0.00008582
592.14386353,0.00046990
594.07267090,0.00024546
596.00147827,-0.00001322
597.93028564,0.00030559
599.85909302,0.00024834
601.78790039,-0.00014651
603.71670776,0.00030902
605.64551514,0.00022487
607.57432251,-0.00007763
609.50312988,0.00004577
611.43193726,-0.00008047
613.36074463,0.00019896
615.28955200,0.00022506
617.21835938,0.00002831
619.14716675,0.00014564
621.07597412,0.00036397
623.00478149,-0.00006073
624.93358887,-0.00014489
626.86239624,0.00006517
628.79120361,0.00006122
630.72001099,0.00049449
632.64881836,0.00057386
634.57762573,0.00056779
636.50643311,0.00079033
638.43524048,0.00082760
640.36404785,0.00099300
642.29285522,0.00092765
644.22166260,0.00098921
646.15046997,0.00105789
648.07927734,0.00104768
650.00808472,0.00124875
651.93689209,0.00104080
653.86569946,0.00123975
655.79450684,0.00132175
657.72331421,0.00125917
659.65212158,0.00199131
661.58092896,0.00157913
663.50973633,0.00122830
665.43854370,0.00202801
667.36735107,0.00194192
669.29615845,0.00187480
671.22496582,0.00223893
673.15377319,0.00231160
675.08258057,0.00222928
677.01138794,0.00210098
678.94019531,0.00227292
680.86900269,0.00215117
682.79781006,0.00195687
684.72661743,0.00226469
686.65542480,0.00253885
688.58423218,0.00230285
690.51303955,0.00181779
692.44184692,0.00209387
694.37065430,0.00241378
696.29946167,0.00284169
698.22826904,0.00355655
700.15707642,0.00344093
702.08588379,0.00333358
704.01469116,0.00298053
705.94349854,0.00275388
707.87230591,0.00254943
709.80111328,0.00168126
711.72992065,0.00137016
713.65872803,0.00084702
715.58753540,0.00042091
717.51634277,0.00009610
719.44515015,0.00008801
721.37395752,0.00052287
723.30276489,0.00028333
725.23157227,0.00054322
727.16037964,0.00018633
729.08918701,-0.00008174
731.01799438,0.00026912
732.94680176,-0.00009621
734.87560913,-0.00000373
736.80441650,-0.00001113
738.73322388,0.00002475
740.66203125,0.00021175
742.59083862,0.00011183
744.51964600,0.00020245
746.44845337,0.00025147
748.37726074,0.00001243
750.30606812,-0.00005510
752.23487549,0.00005095
754.16368286,0.00019213
756.09249023,0.00004922
758.02129761,0.00003959
759.95010498,0.00051229
761.87891235,0.00021860
763.80771973,0.00002826
765.73652710,0.00028368
767.66533447,0.00009773
769.59414185,0.00012669
771.52294922,0.00020134
773.45175659,0.00023946
775.38056396,0.00017636
777.30937134,0.00022482
779.23817871,0.00033781
781.16698608,0.00027954
783.09579346,0.00018937
785.02460083,-0.00014242
786.95340820,0.00022965
788.88221558,0.00052463
790.81102295,0.00035008
792.73983032,0.00045782
794.66863770,0.00008796
796.59744507,0.00036990
798.52625244,0.00065186
800.45505981,0.00052429
802.38386719,0.00048389
804.31267456,0.00016167
806.24148193,0.00032238
808.17028931,0.00036366
810.09909668,0.00055259
812.02790405,0.00037845
813.95671143,-0.00001876
815.88551880,0.00035723
817.81432617,0.00031866
819.74313354,0.00027455
821.67194092,0.00038309
823.60074829,0.00021720
825.52955566,0.00025277
827.45836304,0.00063172
829.38717041,0.00066050
831.31597778,0.00043434
833.24478516,0.00053642
835.17359253,0.00070639
837.10239990,0.00082380
839.03120728,0.00056325
840.96001465,0.00080156
842.88882202,0.00096869
844.81762939,0.00052327
846.74643677,0.00060125
848.67524414,0.00038375
850.60405151,0.00038835
852.53285889,0.00060751
854.46166626,0.00049260
856.39047363,0.00048849
858.31928101,0.00038523
860.24808838,0.00065788
862.17689575,0.00057698
864.10570313,0.00023081
866.03451050,0.00034924
867.96331787,0.00024735
869.89212524,0.00021404
871.82093262,0.00025378
873.74973999,-0.00002419
875.67854736,0.00010594
877.60735474,0.00042304
879.53616211,0.00002304
881.46496948,0.00017132
883.39377686,0.00053556
885.32258423,0.00010245
887.25139160,0.00031104
889.18019897,0.00039977
891.10900635,0.00040420
893.03781372,0.00092994
894.96662109,0.00057882
896.89542847,0.00027347
898.82423584,0.00030038
900.75304321,0.00032235
902.68185059,0.00049727
904.61065796,0.00038946
906.53946533,0.00050474
908.46827271,0.00049883
910.39708008,0.00038696
912.32588745,0.00061196
914.25469482,0.00054974
916.18350220,0.00047698
918.11230957,0.00063610
920.04111694,0.00066164
921.96992432,0.00065366
923.89873169,0.00050366
925.82753906,0.00041959
927.75634644,0.00078681
929.68515381,0.00098871
931.61396118,0.00098529
933.54276855,0.00107348
935.47157593,0.00107499
937.40038330,0.00115850
939.32919067,0.00111154
941.25799805,0.00102954
943.18680542,0.00130203
945.11561279,0.00138825
947.04442017,0.00129586
948.97322754,0.00136766
950.90203491,0.00122944
952.83084229,0.00101545
954.75964966,0.00114318
956.68845703,0.00109544
958.61726440,0.00100805
960.54607178,0.00136492
962.47487915,0.00124823
964.40368652,0.00107667
966.33249390,0.00131440
968.26130127,0.00133482
970.19010864,0.00140018
972.11891602,0.00134563
974.04772339,0.00144361
975.97653076,0.00149883
977.90533813,0.00141650
979.83414551,0.00182699
981.76295288,0.00216741
983.69176025,0.00230973
985.62056763,0.00226555
987.54937500,0.00254923
989.47818237,0.00302279
991.40698975,0.00320174
993.33579712,0.00359478
995.26460449,0.00387602
997.19341187,0.00405460
999.12221924,0.00421958
1001.05102661,0.00481828
1002.97983398,0.00528367
1004.90864136,0.00528114
1006.83744873,0.00581868
1008.76625610,0.00607621
1010.69506348,0.00632979
1012.62387085,0.00680689
1014.55267822,0.00715109
1016.48148560,0.00741144
1018.41029297,0.00765014
1020.33910034,0.00828025
1022.26790771,0.00852922
1024.19671509,0.00890171
1026.12552246,0.00924966
1028.05432983,0.00943487
1029.98313721,0.00992838
1031.91194458,0.00997447
1033.84075195,0.01024534
1035.76955933,0.01039497
1037.69836670,0.01055021
1039.62717407,0.01072591
1041.55598145,0.01033681
1043.48478882,0.01040033
1045.41359619,0.01023012
1047.34240356,0.01004866
1049.27121094,0.01024797
1051.20001831,0.00991585
1053.12882568,0.00965645
1055.05763306,0.00967334
1056.98644043,0.00941762
1058.91524780,0.00902113
1060.84405518,0.00879134
1062.77286255,0.00843424
1064.70166992,0.00806629
1066.63047729,0.00792984
1068.55928467,0.00767076
1070.48809204,0.00739852
1072.41689941,0.00703378
1074.34570679,0.00651194
1076.27451416,0.00641222
1078.20332153,0.00619227
1080.13212891,0.00563308
1082.06093628,0.00556505
1083.98974365,0.00534259
1085.91855103,0.00492469
1087.84735840,0.00472461
1089.77616577,0.00451549
1091.70497314,0.00439611
1093.63378052,0.00409849
1095.56258789,0.00399355
1097.49139526,0.00400302
1099.42020264,0.00390639
1101.34901001,0.00384659
1103.27781738,0.00378432
1105.20662476,0.00378377
1107.13543213,0.00346869
1109.06423950,0.00351175
1110.99304687,0.00361322
1112.92185425,0.00332450
1114.85066162,0.00337485
1116.77946899,0.00346207
1118.70827637,0.00350634
1120.63708374,0.00337491
1122.56589111,0.00337422
1124.49469849,0.00350543
1126.42350586,0.00358568
1128.35231323,0.00373893
1130.28112061,0.00350008
1132.20992798,0.00358038
1134.13873535,0.00393836
1136.06754272,0.00419282
1137.99635010,0.00434196
1139.92515747,0.00442114
1141.85396484,0.00486032
1143.78277222,0.00509718
1145.71157959,0.00547379
1147.64038696,0.00583663
1149.56919434,0.00571109
1151.49800171,0.00605896
1153.42680908,0.00668880
1155.35561646,0.00692314
1157.28442383,0.00701672
1159.21323120,0.00738032
1161.14203857,0.00770708
1163.07084595,0.00783854
1164.99965332,0.00822668
1166.92846069,0.00872740
1168.85726807,0.00887356
1170.78607544,0.00917452
1172.71488281,0.00967732
1174.64369019,0.00976986
1176.57249756,0.01012936
1178.50130493,0.01066332
1180.43011230,0.01093936
1182.35891968,0.01127915
1184.28772705,0.01182892
1186.21653442,0.01255599
1188.14534180,0.01304868
1190.07414917,0.01364654
1192.00295654,0.01429856
1193.93176392,0.01485975
1195.86057129,0.01557319
1197.78937866,0.01623363
1199.71818604,0.01698901
1201.64699341,0.01777690
1203.57580078,0.01857483
1205.50460815,0.01916489
1207.43341553,0.01972901
1209.36222290,0.02037238
1211.29103027,0.02089470
1213.21983765,0.02168396
1215.14864502,0.02225311
1217.07745239,0.02280321
1219.00625977,0.02325762
1220.93506714,0.02326718
1222.86387451,0.02365559
1224.79268188,0.02393918
1226.72148926,0.02397756
1228.65029663,0.02415101
1230.57910400,0.02424694
1232.50791138,0.02433822
1234.43671875,0.02432272
1236.36552612,0.02429810
1238.29433350,0.02430907
1240.22314087,0.02430058
1242.15194824,0.02417371
1244.08075562,0.02374652
1246.00956299,0.02359859
1247.93837036,0.02370609
1249.86717773,0.02337430
1251.79598511,0.02308377
1253.72479248,0.02301201
1255.65359985,0.02262702
1257.58240723,0.02223849
1259.51121460,0.02212383
1261.44002197,0.02178105
1263.36882935,0.02127974
1265.29763672,0.02109893
1267.22644409,0.02086034
1269.15525146,0.02065842
1271.08405884,0.02043737
1273.01286621,0.01994192
1274.94167358,0.01967190
1276.87048096,0.01920557
1278.79928833,0.01869341
1280.72809570,0.01841053
1282.65690308,0.01805566
1284.58571045,0.01779731
1286.51451782,0.01734136
1288.44332520,0.01713425
1290.37213257,0.01715361
1292.30093994,0.01679102
1294.22974731,0.01657969
1296.15855469,0.01656222
1298.08736206,0.01642802
1300.01616943,0.01647517
1301.94497681,0.01670350
1303.87378418,0.01670631
1305.80259155,0.01684500
1307.73139893,0.01715006
1309.66020630,0.01732184
1311.58901367,0.01760324
1313.51782104,0.01795063
1315.44662842,0.01842788
1317.37543579,0.01883906
1319.30424316,0.01919288
1321.23305054,0.01975625
1323.16185791,0.02057048
1325.09066528,0.02127081
1327.01947266,0.02144424
1328.94828003,0.02195033
1330.87708740,0.02271616
1332.80589478,0.02325520
1334.73470215,0.02366531
1336.66350952,0.02367256
1338.59231689,0.02351909
1340.52112427,0.02382346
1342.44993164,0.02479969
1344.37873901,0.02504572
1346.30754639,0.02470618
1348.23635376,0.02487785
1350.16516113,0.02486208
1352.09396851,0.02462179
1354.02277588,0.02427570
1355.95158325,0.02411392
1357.88039062,0.02405866
1359.80919800,0.02363596
1361.73800537,0.02226722
1363.66681274,0.02201605
1365.59562012,0.02354345
1367.52442749,0.02280656
1369.45323486,0.02264966
1371.38204224,0.02307513
1373.31084961,0.02144285
1375.23965698,0.02178749
1377.16846436,0.02239756
1379.09727173,0.02235996
1381.02607910,0.02246228
1382.95488647,0.02237188
1384.88369385,0.02243418
1386.81250122,0.02110328
1388.74130859,0.02143874
1390.67011597,0.02358841
1392.59892334,0.02285461
1394.52773071,0.02106142
1396.45653809,0.02222670
1398.38534546,0.02223908
1400.31415283,0.02206616
1402.24296021,0.02407321
1404.17176758,0.02254316
1406.10057495,0.02267792
1408.02938232,0.02374446
1409.95818970,0.02285819
1411.88699707,0.02346049
1413.81580444,0.02255921
1415.74461182,0.02289369
1417.67341919,0.02017889
1419.60222656,0.01786013
1421.53103394,0.02134991
1423.45984131,0.02064507
1425.38864868,0.01992379
1427.31745605,0.02044550
1429.24626343,0.01847410
1431.17507080,0.01786168
1433.10387817,0.01868590
1435.03268555,0.01663900
1436.96149292,0.01377656
1438.89030029,0.01627341
1440.81910767,0.01658397
1442.74791504,0.01545946
1444.67672241,0.01648885
1446.60552979,0.01477100
1448.53433716,0.01494881
1450.46314453,0.01564250
1452.39195190,0.01592637
1454.32075928,0.01639414
1456.24956665,0.01318277
1458.17837402,0.01378796
1460.10718140,0.01882724
1462.03598877,0.02011931
1463.96479614,0.01980357
1465.89360352,0.02053976
1467.82241089,0.02383259
1469.75121826,0.02541195
1471.68002563,0.02178044
1473.60883301,0.02310600
1475.53764038,0.02660856
1477.46644775,0.02880944
1479.39525513,0.03193375
1481.32406250,0.03202243
1483.25286987,0.03421208
1485.18167725,0.03525708
1487.11048462,0.03417902
1489.03929199,0.03359853
1490.96809937,0.03390902
1492.89690674,0.04043684
1494.82571411,0.03876988
1496.75452148,0.03414102
1498.68332886,0.03943715
1500.61213623,0.04064499
1502.54094360,0.04407949
1504.46975098,0.04082485
1506.39855835,0.02783380
1508.32736572,0.03556322
1510.25617310,0.04252706
1512.18498047,0.04121926
1514.11378784,0.04513769
1516.04259521,0.03967185
1517.97140259,0.04170996
1519.90020996,0.04008828
1521.82901733,0.03399774
1523.75782471,0.04293282
1525.68663208,0.04194166
1527.61543945,0.04197752
1529.54424683,0.04711939
1531.47305420,0.04470494
1533.40186157,0.04018819
1535.33066895,0.04344949
1537.25947632,0.04674526
1539.18828369,0.03135490
1541.11709106,0.03357056
1543.04589844,0.04109575
1544.97470581,0.03919677
1546.90351318,0.04804189
1548.83232056,0.04399580
1550.76112793,0.04565774
1552.68993530,0.04541314
1554.61874268,0.04059203
1556.54755005,0.04369069
1558.47635742,0.02859289
1560.40516479,0.03202123
1562.33397217,0.04806897
1564.26277954,0.04494566
1566.19158691,0.04672416
1568.12039429,0.04561750
1570.04920166,0.03997172
1571.97800903,0.04761113
1573.90681641,0.04777888
1575.83562378,0.03641144
1577.76443115,0.04239271
1579.69323853,0.04917435
1581.62204590,0.04647334
1583.55085327,0.04744150
1585.47966064,0.04684108
1587.40846802,0.04712219
1589.33727539,0.04661693
1591.26608276,0.04661704
1593.19489014,0.04656231
1595.12369751,0.04597896
1597.05250488,0.04686852
1598.98131226,0.04653884
1600.91011963,0.04677882
1602.83892700,0.04579201
1604.76773437,0.04659716
1606.69654175,0.04581599
1608.62534912,0.04573896
1610.55415649,0.04572958
1612.48296387,0.04615665
1614.41177124,0.04674308
1616.34057861,0.03677884
1618.26938599,0.04071323
1620.19819336,0.04851064
1622.12700073,0.04178330
1624.05580811,0.04223856
1625.98461548,0.04496220
1627.91342285,0.04452536
1629.84223022,0.04434617
1631.77103760,0.04777758
1633.69984497,0.04319004
1635.62865234,0.03430106
1637.55745972,0.04143016
1639.48626709,0.04640851
1641.41507446,0.04505933
1643.34388184,0.04650946
1645.27268921,0.04087222
1647.20149658,0.03503176
1649.13030396,0.04535758
1651.05911133,0.04226492
1652.98791870,0.02502365
1654.91672607,0.03668211
1656.84553345,0.04744550
1658.77434082,0.04535630
1660.70314819,0.04667364
1662.63195557,0.04148185
1664.56076294,0.04443604
1666.48957031,0.04812519
1668.41837769,0.04070272
1670.34718506,0.03966439
1672.27599243,0.04596990
1674.20479980,0.04154377
1676.13360718,0.03994609
1678.06241455,0.04695978
1679.99122192,0.04472537
1681.92002930,0.04417593
1683.84883667,0.03443112
1685.77764404,0.03466009
1687.70645142,0.04949989
1689.63525879,0.04171576
1691.56406616,0.04732470
1693.49287354,0.04747292
1695.42168091,0.03301667
1697.35048828,0.04277937
1699.27929565,0.03583252
1701.20810303,0.03204587
1703.13691040,0.04635490
1705.06571777,0.04165339
1706.99452515,0.04233493
1708.92333252,0.04657106
1710.85213989,0.04451714
1712.78094727,0.04526684
1714.70975464,0.04129566
1716.63856201,0.03644779
1718.56736938,0.03576665
1720.49617676,0.04390363
1722.42498413,0.04590445
1724.35379150,0.04200047
1726.28259888,0.04657348
1728.21140625,0.04244617
1730.14021362,0.04272697
1732.06902100,0.04137196
1733.99782837,0.02990006
1735.92663574,0.03933126
1737.85544312,0.04377820
1739.78425049,0.03806368
1741.71305786,0.04232540
1743.64186523,0.04267012
1745.57067261,0.04267740
1747.49947998,0.04296394
1749.42828735,0.04060256
1751.35709473,0.03859774
1753.28590210,0.04385945
1755.21470947,0.04597961
1757.14351685,0.04119831
1759.07232422,0.04622657
1761.00113159,0.04258389
1762.92993896,0.04120199
1764.85874634,0.04819224
1766.78755371,0.04232960
1768.71636108,0.04290985
1770.64516846,0.04234067
1772.57397583,0.03749838
1774.50278320,0.04269666
1776.43159058,0.04551273
1778.36039795,0.04475594
1780.28920532,0.04401434
1782.21801270,0.04463905
1784.14682007,0.04439114
1786.07562744,0.04355543
1788.00443481,0.04602079
1789.93324219,0.04430232
1791.86204956,0.03952355
1793.79085693,0.04159400
1795.71966431,0.04527708
1797.64847168,0.04442263
1799.57727905,0.04353068
1801.50608643,0.04275992
1803.43489380,0.04443020
1805.36370117,0.04561722
1807.29250854,0.04484078
1809.22131592,0.04497012
1811.15012329,0.04358006
1813.07893066,0.04519967
1815.00773804,0.04535445
1816.93654541,0.04483942
1818.86535278,0.04536330
1820.79416016,0.04507158
1822.72296753,0.04571309
1824.65177490,0.04215378
1826.58058228,0.04412246
1828.50938965,0.04389198
1830.43819702,0.04064304
1832.36700439,0.04533572
1834.29581177,0.04491978
1836.22461914,0.04472471
1838.15342651,0.04446816
1840.08223389,0.04490687
1842.01104126,0.04469234
1843.93984863,0.03867744
1845.86865601,0.04218666
1847.79746338,0.04459574
1849.72627075,0.04354822
1851.65507812,0.04530438
1853.58388550,0.04403182
1855.51269287,0.04477340
1857.44150024,0.04421853
1859.37030762,0.04381497
1861.29911499,0.04443801
1863.22792236,0.04366254
1865.15672974,0.04424933
1867.08553711,0.04231889
1869.01434448,0.04009028
1870.94315186,0.04234067
1872.87195923,0.04412829
1874.80076660,0.04322779
1876.72957397,0.04369535
1878.65838135,0.04340115
1880.58718872,0.04314726
1882.51599609,0.04357175
1884.44480347,0.04263626
1886.37361084,0.04355229
1888.30241821,0.04236044
1890.23122559,0.04130229
1892.16003296,0.04311083
1894.08884033,0.04227601
1896.01764771,0.04217597
1897.94645508,0.04292534
1899.87526245,0.04263914
1901.80406982,0.04250047
1903.73287720,0.04224768
1905.66168457,0.04258439
1907.59049194,0.04193601
1909.51929932,0.04169787
1911.44810669,0.04200427
1913.37691406,0.04215859
1915.30572144,0.04265553
1917.23452881,0.04012956
1919.16333618,0.04029573
1921.09214355,0.04233422
1923.02095093,0.04056470
1924.94975830,0.04143064
1926.87856567,0.04200211
1928.80737305,0.04154288
1930.73618042,0.04202243
1932.66498779,0.04128111
1934.59379517,0.04184503
1936.52260254,0.04134486
1938.45140991,0.04165815
1940.38021729,0.04163878
1942.30902466,0.03990275
1944.23783203,0.04087864
1946.16663940,0.04130952
1948.09544678,0.04129504
1950.02425415,0.04136345
1951.95306152,0.04114691
1953.88186890,0.04126828
1955.81067627,0.04095870
1957.73948364,0.04118671
1959.66829102,0.04111077
1961.59709839,0.04110469
1963.52590576,0.04104549
1965.45471313,0.04060140
1967.38352051,0.04040448
1969.31232788,0.04075130
1971.24113525,0.04094108
1973.16994263,0.04068556
1975.09875000,0.04097436
1977.02755737,0.04062918
1978.95636475,0.04071849
1980.88517212,0.04069133
1982.81397949,0.04028298
1984.74278687,0.04062156
1986.67159424,0.04027266
1988.60040161,0.04029102
1990.52920898,0.03980318
1992.45801636,0.03929678
1994.38682373,0.03992586
1996.31563110,0.04007024
1998.24443848,0.03996581
2000.17324585,0.03977996
2002.10205322,0.03968754
2004.03086060,0.03958345
2005.95966797,0.03962732
2007.88847534,0.03959313
2009.81728271,0.03927837
2011.74609009,0.03922420
2013.67489746,0.03927480
2015.60370483,0.03893413
2017.53251221,0.03848983
2019.46131958,0.03889923
2021.39012695,0.03878531
2023.31893433,0.03853149
2025.24774170,0.03874243
2027.17654907,0.03844902
2029.10535645,0.03851985
2031.03416382,0.03840848
2032.96297119,0.03820349
2034.89177856,0.03827194
2036.82058594,0.03816889
2038.74939331,0.03805009
2040.67820068,0.03785659
2042.60700806,0.03776019
2044.53581543,0.03773334
2046.46462280,0.03769987
2048.39343018,0.03747455
2050.32223755,0.03739844
2052.25104492,0.03733073
2054.17985229,0.03717618
2056.10865967,0.03727125
2058.03746704,0.03713574
2059.96627441,0.03704145
2061.89508179,0.03698799
2063.82388916,0.03672674
2065.75269653,0.03660855
2067.68150391,0.03668362
2069.61031128,0.03669210
2071.53911865,0.03667740
2073.46792603,0.03653949
2075.39673340,0.03627533
2077.32554077,0.03631540
2079.25434814,0.03628509
2081.18315552,0.03611401
2083.11196289,0.03602264
2085.04077026,0.03612209
2086.96957764,0.03600702
2088.89838501,0.03570153
2090.82719238,0.03588868
2092.75599976,0.03580384
2094.68480713,0.03558572
2096.61361450,0.03556221
2098.54242187,0.03548541
2100.47122925,0.03549621
2102.40003662,0.03540607
2104.32884399,0.03528937
2106.25765137,0.03523821
2108.18645874,0.03530017
2110.11526611,0.03514467
2112.04407349,0.03505644
2113.97288086,0.03507484
2115.90168823,0.03493368
2117.83049561,0.03499060
2119.75930298,0.03486654
2121.68811035,0.03472026
2123.61691772,0.03472010
2125.54572510,0.03463640
2127.47453247,0.03452078
2129.40333984,0.03458980
2131.33214722,0.03457437
2133.26095459,0.03437610
2135.18976196,0.03440557
2137.11856934,0.03412282
2139.04737671,0.03416514
2140.97618408,0.03434968
2142.90499146,0.03399657
2144.83379883,0.03407259
2146.76260620,0.03406163
2148.69141357,0.03389058
2150.62022095,0.03389886
2152.54902832,0.03382801
2154.47783569,0.03386950
2156.40664307,0.03383254
2158.33545044,0.03384189
2160.26425781,0.03389483
2162.19306519,0.03367312
2164.12187256,0.03356698
2166.05067993,0.03361218
2167.97948730,0.03344131
2169.90829468,0.03333077
2171.83710205,0.03338722
2173.76590942,0.03343405
2175.69471680,0.03327564
2177.62352417,0.03319241
2179.55233154,0.03324685
2181.48113892,0.03306570
2183.40994629,0.03310540
2185.33875366,0.03309013
2187.26756104,0.03298041
2189.19636841,0.03299041
2191.12517578,0.03286383
2193.05398315,0.03288569
2194.98279053,0.03276335
2196.91159790,0.03267850
2198.84040527,0.03280480
2200.76921265,0.03275134
2202.69802002,0.03256749
2204.62682739,0.03255964
2206.55563477,0.03263872
2208.48444214,0.03245416
2210.41324951,0.03242436
2212.34205688,0.03240328
2214.27086426,0.03230359
2216.19967163,0.03232412
2218.12847900,0.03225683
2220.05728638,0.03217048
2221.98609375,0.03205664
2223.91490112,0.03207668
2225.84370850,0.03209568
2227.77251587,0.03201868
2229.70132324,0.03192968
2231.63013062,0.03187088
2233.55893799,0.03183704
2235.48774536,0.03174312
2237.41655273,0.03168189
2239.34536011,0.03161414
2241.27416748,0.03169075
2243.20297485,0.03160813
2245.13178223,0.03144364
2247.06058960,0.03142134
2248.98939697,0.03133389
2250.91820435,0.03135249
2252.84701172,0.03124998
2254.77581909,0.03116688
2256.70462646,0.03111442
2258.63343384,0.03110217
2260.56224121,0.03113020
2262.49104858,0.03096598
2264.41985596,0.03099356
2266.34866333,0.03094258
2268.27747070,0.03077904
2270.20627808,0.03069751
2272.13508545,0.03071029
2274.06389282,0.03076526
2275.99270020,0.03059590
2277.92150757,0.03054996
2279.85031494,0.03055371
2281.77912231,0.03056056
2283.70792969,0.03058251
2285.63673706,0.03038170
2287.56554443,0.03027436
2289.49435181,0.03029203
2291.42315918,0.03022667
2293.35196655,0.03015508
2295.28077393,0.03009913
2297.20958130,0.02988813
2299.13838867,0.02981549
2301.06719604,0.02986648
2302.99600342,0.02951813
2304.92481079,0.02935403
2306.85361816,0.02940447
2308.78242554,0.02909840
2310.71123291,0.02885852
2312.64004028,0.02855539
2314.56884766,0.02824415
2316.49765503,0.02802422
2318.42646240,0.02760078
2320.35526978,0.02734671
2322.28407715,0.02691689
2324.21288452,0.02654087
2326.14169189,0.02647058
2328.07049927,0.02612470
2329.99930664,0.02577273
2331.92811401,0.02554843
2333.85692139,0.02553913
2335.78572876,0.02541975
2337.71453613,0.02533889
2339.64334351,0.02538843
2341.57215088,0.02527859
2343.50095825,0.02568660
2345.42976562,0.02620045
2347.35857300,0.02715144
2349.28738037,0.02794635
2351.21618774,0.02693374
2353.14499512,0.02570953
2355.07380249,0.02496073
2357.00260986,0.02410470
2358.93141724,0.02362387
2360.86022461,0.02342447
2362.78903198,0.02334209
2364.71783936,0.02346142
2366.64664673,0.02374587
2368.57545410,0.02425083
2370.50426147,0.02480567
2372.43306885,0.02539674
2374.36187622,0.02608073
2376.29068359,0.02669103
2378.21949097,0.02727707
2380.14829834,0.02758229
2382.07710571,0.02787130
2384.00591309,0.02804983
2385.93472046,0.02792009
2387.86352783,0.02805496
2389.79233521,0.02802776
2391.72114258,0.02800646
2393.64994995,0.02802864
2395.57875732,0.02793407
2397.50756470,0.02789782
2399.43637207,0.02777822
2401.36517944,0.02780012
2403.29398682,0.02762302
2405.22279419,0.02766844
2407.15160156,0.02769624
2409.08040894,0.02750736
2411.00921631,0.02763194
2412.93802368,0.02745068
2414.86683105,0.02740555
2416.79563843,0.02740689
2418.72444580,0.02733784
2420.65325317,0.02737240
2422.58206055,0.02723822
2424.51086792,0.02730907
2426.43967529,0.02729237
2428.36848267,0.02722796
2430.29729004,0.02711086
2432.22609741,0.02702993
2434.15490479,0.02714099
2436.08371216,0.02702785
2438.01251953,0.02693767
2439.94132690,0.02692678
2441.87013428,0.02690804
2443.79894165,0.02686797
2445.72774902,0.02677450
2447.65655640,0.02675339
2449.58536377,0.02669400
2451.51417114,0.02658536
2453.44297852,0.02665617
2455.37178589,0.02657232
2457.30059326,0.02643050
2459.22940063,0.02663054
2461.15820801,0.02651981
2463.08701538,0.02632432
2465.01582275,0.02627604
2466.94463013,0.02621044
2468.87343750,0.02628824
2470.80224487,0.02629045
2472.73105225,0.02628418
2474.65985962,0.02613703
2476.58866699,0.02611827
2478.51747437,0.02619716
2480.44628174,0.02612140
2482.37508911,0.02609612
2484.30389648,0.02599089
2486.23270386,0.02592830
2488.16151123,0.02584996
2490.09031860,0.02583376
2492.01912598,0.02577402
2493.94793335,0.02568743
2495.87674072,0.02569321
2497.80554810,0.02559292
2499.73435547,0.02558730
2501.66316284,0.02554855
2503.59197021,0.02557147
2505.52077759,0.02561460
2507.44958496,0.02557956
2509.37839233,0.02550311
2511.30719971,0.02539718
2513.23600708,0.02534856
2515.16481445,0.02524636
2517.09362183,0.02531353
2519.02242920,0.02526741
2520.95123657,0.02521608
2522.88004395,0.02515597
2524.80885132,0.02501987
2526.73765869,0.02503028
2528.66646606,0.02491849
2530.59527344,0.02508404
2532.52408081,0.02499524
2534.45288818,0.02483460
2536.38169556,0.02495661
2538.31050293,0.02481310
2540.23931030,0.02489047
2542.16811768,0.02481096
2544.09692505,0.02472916
2546.02573242,0.02474589
2547.95453979,0.02458452
2549.88334717,0.02462217
2551.81215454,0.02458616
2553.74096191,0.02452363
2555.66976929,0.02448298
2557.59857666,0.02454742
2559.52738403,0.02446405
2561.45619141,0.02428018
2563.38499878,0.02436427
2565.31380615,0.02423564
2567.24261353,0.02420605
2569.17142090,0.02425142
2571.10022827,0.02409949
2573.02903564,0.02414182
2574.95784302,0.02411812
2576.88665039,0.02399845
2578.81545776,0.02404710
2580.74426514,0.02406985
2582.67307251,0.02402635
2584.60187988,0.02390546
2586.53068726,0.02375630
2588.45949463,0.02383659
2590.38830200,0.02382908
2592.31710937,0.02369285
2594.24591675,0.02366585
2596.17472412,0.02358891
2598.10353149,0.02362518
2600.03233887,0.02364960
2601.96114624,0.02358955
2603.88995361,0.02362727
2605.81876099,0.02355387
2607.74756836,0.02347925
2609.67637573,0.02344597
2611.60518311,0.02332870
2613.53399048,0.02331889
2615.46279785,0.02330601
2617.39160522,0.02324876
2619.32041260,0.02328554
2621.24921997,0.02321013
2623.17802734,0.02311071
2625.10683472,0.02310200
2627.03564209,0.02300619
2628.96444946,0.02297699
2630.89325684,0.02299285
2632.82206421,0.02293124
2634.75087158,0.02298511
2636.67967895,0.02290206
2638.60848633,0.02279361
2640.53729370,0.02286426
2642.46610107,0.02270903
2644.39490845,0.02269878
2646.32371582,0.02272668
2648.25252319,0.02264245
2650.18133057,0.02274057
2652.11013794,0.02262444
2654.03894531,0.02256118
2655.96775269,0.02249937
2657.89656006,0.02237137
2659.82536743,0.02239395
2661.75417480,0.02237583
2663.68298218,0.02239852
2665.61178955,0.02232472
2667.54059692,0.02231892
2669.46940430,0.02224918
2671.39821167,0.02221208
2673.32701904,0.02229306
2675.25582642,0.02212004
2677.18463379,0.02211149
2679.11344116,0.02209538
2681.04224854,0.02203906
2682.97105591,0.02200894
2684.89986328,0.02190753
2686.82867065,0.02192713
2688.75747803,0.02186898
2690.68628540,0.02183146
2692.61509277,0.02177574
2694.54390015,0.02173897
2696.47270752,0.02170202
2698.40151489,0.02164596
2700.33032227,0.02166077
2702.25912964,0.02164559
2704.18793701,0.02168548
2706.11674438,0.02153561
2708.04555176,0.02145816
2709.97435913,0.02152057
2711.90316650,0.02141719
2713.83197388,0.02135088
2715.76078125,0.02127605
2717.68958862,0.02126170
2719.61839600,0.02127289
2721.54720337,0.02120595
2723.47601074,0.02120367
2725.40481812,0.02120822
2727.33362549,0.02110365
2729.26243286,0.02105132
2731.19124023,0.02106715
2733.12004761,0.02103982
2735.04885498,0.02099141
2736.97766235,0.02095754
2738.90646973,0.02098109
2740.83527710,0.02082560
2742.76408447,0.02083370
2744.69289185,0.02090742
2746.62169922,0.02068371
2748.55050659,0.02073538
2750.47931396,0.02073610
2752.40812134,0.02063147
2754.33692871,0.02064158
2756.26573608,0.02049924
2758.19454346,0.02045047
2760.12335083,0.02041030
2762.05215820,0.02037068
2763.98096558,0.02043504
2765.90977295,0.02032379
2767.83858032,0.02018201
2769.76738770,0.02025650
2771.69619507,0.02026461
2773.62500244,0.02015757
2775.55380981,0.02010123
2777.48261719,0.02013609
2779.41142456,0.02010983
2781.34023193,0.01998764
2783.26903931,0.02002527
2785.19784668,0.01991051
2787.12665405,0.01981190
2789.05546143,0.01985402
2790.98426880,0.01985106
2792.91307617,0.01984295
2794.84188354,0.01964717
2796.77069092,0.01970745
2798.69949829,0.01970221
2800.62830566,0.01958657
2802.55711304,0.01961665
2804.48592041,0.01949332
2806.41472778,0.01959327
2808.34353516,0.01949153
2810.27234253,0.01937542
2812.20114990,0.01946443
2814.12995728,0.01928694
2816.05876465,0.01926023
2817.98757202,0.01931088
2819.91637939,0.01924325
2821.84518677,0.01917026
2823.77399414,0.01912349
2825.70280151,0.01912162
2827.63160889,0.01919702
2829.56041626,0.01911077
2831.48922363,0.01893699
2833.41803101,0.01898308
2835.34683838,0.01891651
2837.27564575,0.01879166
2839.20445312,0.01875270
2841.13326050,0.01878550
2843.06206787,0.01864416
2844.99087524,0.01847811
2846.91968262,0.01857376
2848.84848999,0.01837716
2850.77729736,0.01822185
2852.70610474,0.01836173
2854.63491211,0.01840175
2856.56371948,0.01828259
2858.49252686,0.01823679
2860.42133423,0.01829084
2862.35014160,0.01818412
2864.27894897,0.01817390
2866.20775635,0.01815598
2868.13656372,0.01812060
2870.06537109,0.01812361
2871.99417847,0.01804540
2873.92298584,0.01801181
2875.85179321,0.01792793
2877.78060059,0.01792508
2879.70940796,0.01787157
2881.63821533,0.01782968
2883.56702270,0.01784115
2885.49583008,0.01774804
2887.42463745,0.01774578
2889.35344482,0.01770084
2891.28225220,0.01767799
2893.21105957,0.01762589
2895.13986694,0.01754131
2897.06867432,0.01754485
2898.99748169,0.01748585
2900.92628906,0.01746074
2902.85509644,0.01743958
2904.78390381,0.01744230
2906.71271118,0.01740338
2908.64151855,0.01729455
2910.57032593,0.01734555
2912.49913330,0.01730035
2914.42794067,0.01713731
2916.35674805,0.01711687
2918.28555542,0.01700391
2920.21436279,0.01698351
2922.14317017,0.01709497
2924.07197754,0.01697290
2926.00078491,0.01698187
2927.92959229,0.01702997
2929.85839966,0.01689243
2931.78720703,0.01685058
2933.71601440,0.01687727
2935.64482178,0.01692718
2937.57362915,0.01686215
2939.50243652,0.01683376
2941.43124390,0.01695395
2943.36005127,0.01685304
2945.28885864,0.01667895
2947.21766602,0.01669837
2949.14647339,0.01673643
2951.07528076,0.01672037
2953.00408813,0.01664848
2954.93289551,0.01658915
2956.86170288,0.01656674
2958.79051025,0.01645730
2960.71931763,0.01641528
2962.64812500,0.01644450
2964.57693237,0.01639668
2966.50573975,0.01630180
2968.43454712,0.01634864
2970.36335449,0.01637963
2972.29216187,0.01626303
2974.22096924,0.01640677
2976.14977661,0.01641885
2978.07858398,0.01631015
2980.00739136,0.01634727
2981.93619873,0.01631534
2983.86500610,0.01633050
2985.79381348,0.01616365
2987.72262085,0.01619417
2989.65142822,0.01629875
2991.58023560,0.01618472
2993.50904297,0.01619602
2995.43785034,0.01613204
2997.36665771,0.01610646
2999.29546509,0.01601456
3001.22427246,0.01600542
3003.15307983,0.01600434
3005.08188721,0.01588849
3007.01069458,0.01595161
3008.93950195,0.01590577
3010.86830933,0.01590367
3012.79711670,0.01578645
3014.72592407,0.01571496
3016.65473145,0.01581669
3018.58353882,0.01568803
3020.51234619,0.01566606
3022.44115356,0.01560116
3024.36996094,0.01547369
3026.29876831,0.01553433
3028.22757568,0.01552494
3030.15638306,0.01542930
3032.08519043,0.01548338
3034.01399780,0.01540883
3035.94280518,0.01527481
3037.87161255,0.01535651
3039.80041992,0.01527792
3041.72922729,0.01531480
3043.65803467,0.01532393
3045.58684204,0.01512443
3047.51564941,0.01507231
3049.44445679,0.01510008
3051.37326416,0.01514975
3053.30207153,0.01503418
3055.23087891,0.01499016
3057.15968628,0.01494179
3059.08849365,0.01490176
3061.01730103,0.01496590
3062.94610840,0.01484483
3064.87491577,0.01473668
3066.80372314,0.01467797
3068.73253052,0.01486521
3070.66133789,0.01485185
3072.59014526,0.01463616
3074.51895264,0.01472785
3076.44776001,0.01463708
3078.37656738,0.01458802
3080.30537476,0.01458305
3082.23418213,0.01451756
3084.16298950,0.01456228
3086.09179687,0.01447518
3088.02060425,0.01440652
3089.94941162,0.01439445
3091.87821899,0.01435306
3093.80702637,0.01433841
3095.73583374,0.01432558
3097.66464111,0.01425284
3099.59344849,0.01421127
3101.52225586,0.01418272
3103.45106323,0.01417629
3105.37987061,0.01424761
3107.30867798,0.01419044
3109.23748535,0.01405617
3111.16629272,0.01397689
3113.09510010,0.01399487
3115.02390747,0.01393263
3116.95271484,0.01378069
3118.88152222,0.01378706
3120.81032959,0.01381194
3122.73913696,0.01379447
3124.66794434,0.01382527
3126.59675171,0.01377964
3128.52555908,0.01367503
3130.45436645,0.01372731
3132.38317383,0.01362169
3134.31198120,0.01349149
3136.24078857,0.01357953
3138.16959595,0.01349709
3140.09840332,0.01348688
3142.02721069,0.01345280
3143.95601807,0.01338825
3145.88482544,0.01339536
3147.81363281,0.01328644
3149.74244019,0.01335289
3151.67124756,0.01332756
3153.60005493,0.01325587
3155.52886230,0.01321790
3157.45766968,0.01306657
3159.38647705,0.01312383
3161.31528442,0.01307984
3163.24409180,0.01298168
3165.17289917,0.01300233
3167.10170654,0.01279916
3169.03051392,0.01279944
3170.95932129,0.01293829
3172.88812866,0.01279452
3174.81693604,0.01280804
3176.74574341,0.01278909
3178.67455078,0.01271772
3180.60335815,0.01276910
3182.53216553,0.01268994
3184.46097290,0.01265997
3186.38978027,0.01248355
3188.31858765,0.01241748
3190.24739502,0.01248376
3192.17620239,0.01243931
3194.10500977,0.01253965
3196.03381714,0.01234193
3197.96262451,0.01222692
3199.89143188,0.01237456
3201.82023926,0.01230614
3203.74904663,0.01223608
3205.67785400,0.01221904
3207.60666138,0.01223642
3209.53546875,0.01218916
3211.46427612,0.01211716
3213.39308350,0.01202066
3215.32189087,0.01196197
3217.25069824,0.01204803
3219.17950562,0.01204341
3221.10831299,0.01197055
3223.03712036,0.01193981
3224.96592773,0.01192718
3226.89473511,0.01191781
3228.82354248,0.01195758
3230.75234985,0.01190221
3232.68115723,0.01185457
3234.60996460,0.01185732
3236.53877197,0.01179948
3238.46757935,0.01181839
3240.39638672,0.01175280
3242.32519409,0.01175150
3244.25400146,0.01172247
3246.18280884,0.01172593
3248.11161621,0.01177718
3250.04042358,0.01155270
3251.96923096,0.01159465
3253.89803833,0.01163530
3255.82684570,0.01156130
3257.75565308,0.01165606
3259.68446045,0.01162929
3261.61326782,0.01160639
3263.54207520,0.01156302
3265.47088257,0.01155218
3267.39968994,0.01149836
3269.32849731,0.01143979
3271.25730469,0.01146313
3273.18611206,0.01143335
3275.11491943,0.01145759
3277.04372681,0.01141210
3278.97253418,0.01140852
3280.90134155,0.01139528
3282.83014893,0.01129216
3284.75895630,0.01128642
3286.68776367,0.01134208
3288.61657104,0.01137916
3290.54537842,0.01123071
3292.47418579,0.01117938
3294.40299316,0.01127093
3296.33180054,0.01118632
3298.26060791,0.01118302
3300.18941528,0.01123695
3302.11822266,0.01117163
3304.04703003,0.01124065
3305.97583740,0.01125131
3307.90464478,0.01110444
3309.83345215,0.01113136
3311.76225952,0.01108486
3313.69106689,0.01100088
3315.61987427,0.01113027
3317.54868164,0.01111597
3319.47748901,0.01098848
3321.40629639,0.01101682
3323.33510376,0.01104314
3325.26391113,0.01101341
3327.19271851,0.01099887
3329.12152588,0.01094914
3331.05033325,0.01089097
3332.97914062,0.01092961
3334.90794800,0.01101989
3336.83675537,0.01091911
3338.76556274,0.01092463
3340.69437012,0.01096209
3342.62317749,0.01077709
3344.55198486,0.01088338
3346.48079224,0.01081090
3348.40959961,0.01065640
3350.33840698,0.01076369
3352.26721436,0.01066724
3354.19602173,0.01070679
3356.12482910,0.01069801
3358.05363647,0.01065406
3359.98244385,0.01070906
3361.91125122,0.01058128
3363.84005859,0.01050348
3365.76886597,0.01057992
3367.69767334,0.01061320
3369.62648071,0.01047902
3371.55528809,0.01054837
3373.48409546,0.01054465
3375.41290283,0.01041123
3377.34171020,0.01043472
3379.27051758,0.01035889
3381.19932495,0.01032489
3383.12813232,0.01031982
3385.05693970,0.01040944
3386.98574707,0.01035307
3388.91455444,0.01029205
3390.84336182,0.01033600
3392.77216919,0.01018258
3394.70097656,0.01025851
3396.62978394,0.01028240
3398.55859131,0.01021967
3400.48739868,0.01013978
3402.41620605,0.01010683
3404.34501343,0.01019446
3406.27382080,0.01009945
3408.20262817,0.01011923
3410.13143555,0.01002837
3412.06024292,0.01001187
3413.98905029,0.01008870
3415.91785767,0.01001284
3417.84666504,0.01001693
3419.77547241,0.00989507
3421.70427979,0.00986865
3423.63308716,0.00992022
3425.56189453,0.00989926
3427.49070190,0.00983732
3429.41950928,0.00983338
3431.34831665,0.00977430
3433.27712402,0.00972530
3435.20593140,0.00989600
3437.13473877,0.00978428
3439.06354614,0.00979626
3440.99235352,0.00979539
3442.92116089,0.00958226
3444.84996826,0.00966480
3446.77877563,0.00958352
3448.70758301,0.00956124
3450.63639038,0.00966319
3452.56519775,0.00964061
3454.49400513,0.00966780
3456.42281250,0.00956822
3458.35161987,0.00952856
3460.28042725,0.00961231
3462.20923462,0.00951179
3464.13804199,0.00945360
3466.06684937,0.00949899
3467.99565674,0.00947938
3469.92446411,0.00952514
3471.85327148,0.00948304
3473.78207886,0.00946565
3475.71088623,0.00942960
3477.63969360,0.00939149
3479.56850098,0.00947101
3481.49730835,0.00926604
3483.42611572,0.00922300
3485.35492310,0.00937736
3487.28373047,0.00929908
3489.21253784,0.00926910
3491.14134521,0.00940469
3493.07015259,0.00938915
3494.99895996,0.00928670
3496.92776733,0.00931166
3498.85657471,0.00929422
3500.78538208,0.00936809
3502.71418945,0.00911845
3504.64299683,0.00912361
3506.57180420,0.00949886
3508.50061157,0.00918438
3510.42941895,0.00912199
3512.35822632,0.00925028
3514.28703369,0.00924381
3516.21584106,0.00927016
3518.14464844,0.00917852
3520.07345581,0.00927553
3522.00226318,0.00911741
3523.93107056,0.00903559
3525.85987793,0.00908433
3527.78868530,0.00896693
3529.71749268,0.00904466
3531.64630005,0.00919846
3533.57510742,0.00923722
3535.50391479,0.00903993
3537.43272217,0.00897040
3539.36152954,0.00914580
3541.29033691,0.00914600
3543.21914429,0.00901824
3545.14795166,0.00883694
3547.07675903,0.00867777
3549.00556641,0.00900265
3550.93437378,0.00908061
3552.86318115,0.00877392
3554.79198853,0.00897789
3556.72079590,0.00900413
3558.64960327,0.00893419
3560.57841064,0.00884559
3562.50721802,0.00886127
3564.43602539,0.00894295
3566.36483276,0.00813424
3568.29364014,0.00797792
3570.22244751,0.00879904
3572.15125488,0.00903374
3574.08006226,0.00896150
3576.00886963,0.00905682
3577.93767700,0.00891878
3579.86648437,0.00878043
3581.79529175,0.00884786
3583.72409912,0.00887841
3585.65290649,0.00866452
3587.58171387,0.00783496
3589.51052124,0.00806094
3591.43932861,0.00891030
3593.36813599,0.00863359
3595.29694336,0.00841091
3597.22575073,0.00856855
3599.15455811,0.00879375
3601.08336548,0.00871032
3603.01217285,0.00881006
3604.94098022,0.00899111
3606.86978760,0.00846544
3608.79859497,0.00790480
3610.72740234,0.00809291
3612.65620972,0.00834391
3614.58501709,0.00818329
3616.51382446,0.00877308
3618.44263184,0.00796913
3620.37143921,0.00761086
3622.30024658,0.00879732
3624.22905395,0.00868170
3626.15786133,0.00906645
3628.08666870,0.00734757
3630.01547607,0.00668289
3631.94428345,0.00879937
3633.87309082,0.00845366
3635.80189819,0.00857314
3637.73070557,0.00873121
3639.65951294,0.00861273
3641.58832031,0.00869488
3643.51712769,0.00859325
3645.44593506,0.00871910
3647.37474243,0.00758909
3649.30354980,0.00690031
3651.23235718,0.00706648
3653.16116455,0.00860273
3655.08997192,0.00840494
3657.01877930,0.00742813
3658.94758667,0.00885379
3660.87639404,0.00855672
3662.80520142,0.00861485
3664.73400879,0.00854845
3666.66281616,0.00852383
3668.59162354,0.00821879
3670.52043091,0.00641410
3672.44923828,0.00810135
3674.37804565,0.00754519
3676.30685303,0.00607423
3678.23566040,0.00809125
3680.16446777,0.00820287
3682.09327515,0.00823576
3684.02208252,0.00862393
3685.95088989,0.00839593
3687.87969727,0.00740329
3689.80850464,0.00669439
3691.73731201,0.00771787
3693.66611938,0.00809754
3695.59492676,0.00835985
3697.52373413,0.00834308
3699.45254150,0.00827325
3701.38134888,0.00794138
3703.31015625,0.00768434
3705.23896362,0.00859489
3707.16777100,0.00807448
3709.09657837,0.00780188
3711.02538574,0.00717856
3712.95419312,0.00661035
3714.88300049,0.00804225
3716.81180786,0.00799327
3718.74061523,0.00798098
3720.66942261,0.00787089
3722.59822998,0.00761300
3724.52703735,0.00784356
3726.45584473,0.00723639
3728.38465210,0.00791284
3730.31345947,0.00775371
3732.24226685,0.00700069
3734.17107422,0.00681895
3736.09988159,0.00640649
3738.02868896,0.00695525
3739.95749634,0.00769120
3741.88630371,0.00799015
3743.81511108,0.00597177
3745.74391846,0.00557309
3747.67272583,0.00761423
3749.60153320,0.00629844
3751.53034058,0.00564553
3753.45914795,0.00685471
3755.38795532,0.00736012
3757.31676270,0.00768453
3759.24557007,0.00712080
3761.17437744,0.00739563
3763.10318481,0.00788005
3765.03199219,0.00724483
3766.96079956,0.00744894
3768.88960693,0.00730474
3770.81841431,0.00700694
3772.74722168,0.00769527
3774.67602905,0.00760919
3776.60483643,0.00765891
3778.53364380,0.00735228
3780.46245117,0.00696996
3782.39125854,0.00759664
3784.32006592,0.00740495
3786.24887329,0.00736153
3788.17768066,0.00759508
3790.10648804,0.00751373
3792.03529541,0.00738546
3793.96410278,0.00754453
3795.89291016,0.00700752
3797.82171753,0.00683271
3799.75052490,0.00730707
3801.67933228,0.00561624
3803.60813965,0.00678676
3805.53694702,0.00743543
3807.46575439,0.00583667
3809.39456177,0.00736462
3811.32336914,0.00717999
3813.25217651,0.00742352
3815.18098389,0.00663129
3817.10979126,0.00569937
3819.03859863,0.00739607
3820.96740601,0.00568735
3822.89621338,0.00614482
3824.82502075,0.00739252
3826.75382812,0.00659950
3828.68263550,0.00719449
3830.61144287,0.00677499
3832.54025024,0.00657005
3834.46905762,0.00673629
3836.39786499,0.00638421
3838.32667236,0.00573305
3840.25547974,0.00616186
3842.18428711,0.00676645
3844.11309448,0.00643929
3846.04190186,0.00698542
3847.97070923,0.00688648
3849.89951660,0.00687868
3851.82832397,0.00613119
3853.75713135,0.00439667
3855.68593872,0.00531332
3857.61474609,0.00689857
3859.54355347,0.00668936
3861.47236084,0.00660928
3863.40116821,0.00648460
3865.32997559,0.00592073
3867.25878296,0.00668467
3869.18759033,0.00602486
3871.11639770,0.00552176
3873.04520508,0.00664872
3874.97401245,0.00601095
3876.90281982,0.00671632
3878.83162720,0.00683224
3880.76043457,0.00567089
3882.68924194,0.00667517
3884.61804932,0.00618287
3886.54685669,0.00563508
3888.47566406,0.00674588
3890.40447144,0.00631043
3892.33327881,0.00580142
3894.26208618,0.00644009
3896.19089355,0.00661740
3898.11970093,0.00624995
3900.04850830,0.00588348
3901.97731567,0.00585358
3903.90612305,0.00564451
3905.83493042,0.00574921
3907.76373779,0.00649803
3909.69254517,0.00639698
3911.62135254,0.00641570
3913.55015991,0.00652315
3915.47896728,0.00622670
3917.40777466,0.00616513
3919.33658203,0.00598855
3921.26538940,0.00624904
3923.19419678,0.00632836
3925.12300415,0.00615285
3927.05181152,0.00619354
3928.98061890,0.00631397
3930.90942627,0.00621981
3932.83823364,0.00590725
3934.76704102,0.00633806
3936.69584839,0.00635620
3938.62465576,0.00613836
3940.55346313,0.00628874
3942.48227051,0.00598690
3944.41107788,0.00603202
3946.33988525,0.00621093
3948.26869263,0.00601162
3950.19750000,0.00596935
3952.12630737,0.00614016
3954.05511475,0.00612774
3955.98392212,0.00607098
3957.91272949,0.00605157
3959.84153687,0.00603919
3961.77034424,0.00608915
3963.69915161,0.00600143
3965.62795898,0.00606679
3967.55676636,0.00603988
3969.48557373,0.00588736
3971.41438110,0.00592469
3973.34318848,0.00603930
3975.27199585,0.00600073
3977.20080322,0.00584396
3979.12961060,0.00595113
3981.05841797,0.00590836
3982.98722534,0.00580219
3984.91603271,0.00586015
3986.84484009,0.00587003
3988.77364746,0.00583432
3990.70245483,0.00577226
3992.63126221,0.00584771
3994.56006958,0.00591052
3996.48887695,0.00590883
3998.41768433,0.00580881
4000.34649170,0.00578185
4002.27529907,0.00579699
4004.20410645,0.00574304
4006.13291382,0.00571683
4008.06172119,0.00564790
4009.99052856,0.00574580
4011.91933594,0.00576108
4013.84814331,0.00569633
4015.77695068,0.00566875
4017.70575806,0.00567071
4019.63456543,0.00569226
4021.56337280,0.00560965
4023.49218018,0.00562147
4025.42098755,0.00560449
4027.34979492,0.00564471
4029.27860229,0.00557830
4031.20740967,0.00550559
4033.13621704,0.00557431
4035.06502441,0.00551528
4036.99383179,0.00555167
4038.92263916,0.00552669
4040.85144653,0.00553229
4042.78025391,0.00553019
4044.70906128,0.00546934
4046.63786865,0.00554058
4048.56667603,0.00551504
4050.49548340,0.00541798
4052.42429077,0.00537255
4054.35309814,0.00537412
4056.28190552,0.00539096
4058.21071289,0.00545671
4060.13952026,0.00539547
4062.06832764,0.00538057
4063.99713501,0.00533761
4065.92594238,0.00531746
4067.85474976,0.00545673
4069.78355713,0.00530581
4071.71236450,0.00536244
4073.64117187,0.00532839
4075.56997925,0.00522164
4077.49878662,0.00533763
4079.42759399,0.00518171
4081.35640137,0.00521360
4083.28520874,0.00525303
4085.21401611,0.00522211
4087.14282349,0.00518441
4089.07163086,0.00516571
4091.00043823,0.00520151
4092.92924561,0.00512451
4094.85805298,0.00517707
4096.78686035,0.00515704
4098.71566772,0.00516021
4100.64447510,0.00508607
4102.57328247,0.00506412
4104.50208984,0.00508515
4106.43089722,0.00497815
4108.35970459,0.00502958
4110.28851196,0.00490643
4112.21731934,0.00496839
4114.14612671,0.00507627
4116.07493408,0.00499598
4118.00374145,0.00503675
4119.93254883,0.00496938
4121.86135620,0.00491055
4123.79016357,0.00494627
4125.71897095,0.00497546
4127.64777832,0.00489009
4129.57658569,0.00493494
4131.50539307,0.00495620
4133.43420044,0.00491891
4135.36300781,0.00498486
4137.29181519,0.00490202
4139.22062256,0.00490377
4141.14942993,0.00488521
4143.07823730,0.00488106
4145.00704468,0.00486551
4146.93585205,0.00480368
4148.86465942,0.00476613
4150.79346680,0.00464173
4152.72227417,0.00470700
4154.65108154,0.00476095
4156.57988892,0.00478005
4158.50869629,0.00479760
4160.43750366,0.00477168
4162.36631103,0.00472028
4164.29511841,0.00465875
4166.22392578,0.00469886
4168.15273315,0.00468615
4170.08154053,0.00471664
4172.01034790,0.00465910
4173.93915527,0.00464644
4175.86796265,0.00461279
4177.79677002,0.00449596
4179.72557739,0.00458213
4181.65438477,0.00456783
4183.58319214,0.00454552
4185.51199951,0.00453067
4187.44080688,0.00461911
4189.36961426,0.00461362
4191.29842163,0.00443127
4193.22722900,0.00453644
4195.15603638,0.00457940
4197.08484375,0.00451790
4199.01365112,0.00444721
4200.94245850,0.00448481
4202.87126587,0.00451412
4204.80007324,0.00438985
4206.72888062,0.00447350
4208.65768799,0.00446094
4210.58649536,0.00443441
4212.51530273,0.00448973
4214.44411011,0.00433419
4216.37291748,0.00431517
4218.30172485,0.00440608
4220.23053223,0.00433255
4222.15933960,0.00430465
4224.08814697,0.00431240
4226.01695435,0.00430113
4227.94576172,0.00432453
4229.87456909,0.00429663
4231.80337646,0.00429479
4233.73218384,0.00426608
4235.66099121,0.00426827
4237.58979858,0.00431232
4239.51860596,0.00429071
4241.44741333,0.00427716
4243.37622070,0.00425603
4245.30502808,0.00423094
4247.23383545,0.00421351
4249.16264282,0.00424358
4251.09145020,0.00417366
4253.02025757,0.00420261
4254.94906494,0.00424027
4256.87787231,0.00409091
4258.80667969,0.00418497
4260.73548706,0.00418098
4262.66429443,0.00407687
4264.59310181,0.00408884
4266.52190918,0.00411805
4268.45071655,0.00414515
4270.37952393,0.00403960
4272.30833130,0.00410562
4274.23713867,0.00417754
4276.16594604,0.00408618
4278.09475342,0.00403716
4280.02356079,0.00402277
4281.95236816,0.00399866
4283.88117554,0.00400522
4285.80998291,0.00402366
4287.73879028,0.00404685
4289.66759766,0.00407714
4291.59640503,0.00390830
4293.52521240,0.00393335
4295.45401978,0.00405830
4297.38282715,0.00399557
4299.31163452,0.00394309
4301.24044189,0.00392195
4303.16924927,0.00396952
4305.09805664,0.00384455
4307.02686401,0.00395688
4308.95567139,0.00402864
4310.88447876,0.00381509
4312.81328613,0.00385559
4314.74209351,0.00386624
4316.67090088,0.00389053
4318.59970825,0.00380295
4320.52851562,0.00375694
4322.45732300,0.00379259
4324.38613037,0.00374503
4326.31493774,0.00383156
4328.24374512,0.00382198
4330.17255249,0.00376952
4332.10135986,0.00368854
4334.03016724,0.00374735
4335.95897461,0.00377892
4337.88778198,0.00373972
4339.81658936,0.00376307
4341.74539673,0.00367159
4343.67420410,0.00371708
4345.60301147,0.00366196
4347.53181885,0.00362620
4349.46062622,0.00364893
4351.38943359,0.00364013
4353.31824097,0.00366504
4355.24704834,0.00363141
4357.17585571,0.00366990
4359.10466309,0.00359438
4361.03347046,0.00361594
4362.96227783,0.00357086
4364.89108520,0.00360520
4366.81989258,0.00372208
4368.74869995,0.00355282
4370.67750732,0.00360086
4372.60631470,0.00359083
4374.53512207,0.00354305
4376.46392944,0.00355369
4378.39273682,0.00357033
4380.32154419,0.00360225
4382.25035156,0.00355942
4384.17915894,0.00358341
4386.10796631,0.00340356
4388.03677368,0.00346280
4389.96558105,0.00349413
4391.89438843,0.00338154
4393.82319580,0.00348443
4395.75200317,0.00341598
4397.68081055,0.00349572
4399.60961792,0.00343960
4401.53842529,0.00337168
4403.46723267,0.00347831
4405.39604004,0.00340730
4407.32484741,0.00346164
4409.25365478,0.00342008
4411.18246216,0.00337097
4413.11126953,0.00339174
4415.04007690,0.00339145
4416.96888428,0.00341951
4418.89769165,0.00329282
4420.82649902,0.00330681
4422.75530640,0.00333928
4424.68411377,0.00329951
4426.61292114,0.00339924
4428.54172852,0.00333629
4430.47053589,0.00326461
4432.39934326,0.00326983
4434.32815063,0.00322161
4436.25695801,0.00325401
4438.18576538,0.00323864
4440.11457275,0.00326025
4442.04338013,0.00322519
4443.97218750,0.00318920
4445.90099487,0.00328001
4447.82980225,0.00320516
4449.75860962,0.00323453
4451.68741699,0.00325145
4453.61622437,0.00313582
4455.54503174,0.00313028
4457.47383911,0.00315749
4459.40264648,0.00321329
4461.33145386,0.00315995
4463.26026123,0.00312592
4465.18906860,0.00313714
4467.11787598,0.00307811
4469.04668335,0.00309733
4470.97549072,0.00313752
4472.90429810,0.00306477
4474.83310547,0.00310465
4476.76191284,0.00317465
4478.69072021,0.00301259
4480.61952759,0.00308984
4482.54833496,0.00310002
4484.47714233,0.00295694
4486.40594971,0.00302736
4488.33475708,0.00297541
4490.26356445,0.00302806
4492.19237183,0.00300448
4494.12117920,0.00294442
4496.04998657,0.00302101
4497.97879395,0.00295972
4499.90760132,0.00299649
4501.83640869,0.00297718
4503.76521606,0.00293513
4505.69402344,0.00298781
4507.62283081,0.00297773
4509.55163818,0.00295518
4511.48044556,0.00296363
4513.40925293,0.00291460
4515.33806030,0.00285879
4517.26686768,0.00294547
4519.19567505,0.00289967
4521.12448242,0.00287882
4523.05328979,0.00295771
4524.98209717,0.00292401
4526.91090454,0.00290741
4528.83971191,0.00284535
4530.76851929,0.00284244
4532.69732666,0.00287591
4534.62613403,0.00287309
4536.55494141,0.00286597
4538.48374878,0.00280602
4540.41255615,0.00276822
4542.34136353,0.00273803
4544.27017090,0.00277872
4546.19897827,0.00282801
4548.12778564,0.00279438
4550.05659302,0.00277992
4551.98540039,0.00278626
4553.91420776,0.00276178
4555.84301514,0.00274818
4557.77182251,0.00277656
4559.70062988,0.00275565
4561.62943726,0.00272094
4563.55824463,0.00271756
4565.48705200,0.00271389
4567.41585937,0.00275710
4569.34466675,0.00278387
4571.27347412,0.00276922
4573.20228149,0.00273665
4575.13108887,0.00266672
4577.05989624,0.00268192
4578.98870361,0.00268832
4580.91751099,0.00266557
4582.84631836,0.00270397
4584.77512573,0.00268260
4586.70393311,0.00270097
4588.63274048,0.00266015
4590.56154785,0.00261226
4592.49035522,0.00263156
4594.41916260,0.00254378
4596.34796997,0.00255551
4598.27677734,0.00259125
4600.20558472,0.00259163
4602.13439209,0.00258359
4604.06319946,0.00256549
4605.99200684,0.00257524
4607.92081421,0.00250460
4609.84962158,0.00249420
4611.77842895,0.00249958
4613.70723633,0.00250208
4615.63604370,0.00252719
4617.56485107,0.00258624
4619.49365845,0.00264271
4621.42246582,0.00253722
4623.35127319,0.00248624
4625.28008057,0.00252409
4627.20888794,0.00252211
4629.13769531,0.00246381
4631.06650269,0.00246175
4632.99531006,0.00246857
4634.92411743,0.00242748
4636.85292480,0.00246867
4638.78173218,0.00245038
4640.71053955,0.00245575
4642.63934692,0.00242654
4644.56815430,0.00236617
4646.49696167,0.00242452
4648.42576904,0.00240335
4650.35457642,0.00236746
4652.28338379,0.00237944
4654.21219116,0.00238278
4656.14099853,0.00239057
4658.06980591,0.00240022
4659.99861328,0.00234431
4661.92742065,0.00233197
4663.85622803,0.00236965
4665.78503540,0.00236211
4667.71384277,0.00242020
4669.64265015,0.00239051
4671.57145752,0.00234548
4673.50026489,0.00236442
4675.42907227,0.00234538
4677.35787964,0.00234046
4679.28668701,0.00239169
4681.21549438,0.00238340
4683.14430176,0.00226574
4685.07310913,0.00227639
4687.00191650,0.00223032
4688.93072388,0.00221966
4690.85953125,0.00226803
4692.78833862,0.00223011
4694.71714600,0.00228741
4696.64595337,0.00215827
4698.57476074,0.00217379
4700.50356812,0.00232102
4702.43237549,0.00213311
4704.36118286,0.00209702
4706.28999023,0.00228521
4708.21879761,0.00224467
4710.14760498,0.00215595
4712.07641235,0.00226586
4714.00521973,0.00224637
4715.93402710,0.00222722
4717.86283447,0.00219167
4719.79164185,0.00208337
4721.72044922,0.00219840
4723.64925659,0.00218145
4725.57806396,0.00211796
4727.50687134,0.00216116
4729.43567871,0.00211976
4731.36448608,0.00213651
4733.29329346,0.00218603
4735.22210083,0.00212701
4737.15090820,0.00207470
4739.07971558,0.00212274
4741.00852295,0.00215040
4742.93733032,0.00213889
4744.86613770,0.00208355
4746.79494507,0.00211732
4748.72375244,0.00209547
4750.65255981,0.00198340
4752.58136719,0.00205209
4754.51017456,0.00206734
4756.43898193,0.00205389
4758.36778931,0.00208398
4760.29659668,0.00210600
4762.22540405,0.00204638
4764.15421143,0.00196358
4766.08301880,0.00202964
4768.01182617,0.00204888
4769.94063354,0.00206085
4771.86944092,0.00201569
4773.79824829,0.00195371
4775.72705566,0.00197027
4777.65586304,0.00201543
4779.58467041,0.00204288
4781.51347778,0.00197845
4783.44228516,0.00200397
4785.37109253,0.00193514
4787.29989990,0.00197112
4789.22870728,0.00210235
4791.15751465,0.00192366
4793.08632202,0.00191613
4795.01512939,0.00196924
4796.94393677,0.00189603
4798.87274414,0.00197502
4800.80155151,0.00194384
4802.73035889,0.00191866
4804.65916626,0.00197898
4806.58797363,0.00189430
4808.51678101,0.00191552
4810.44558838,0.00186921
4812.37439575,0.00185845
4814.30320312,0.00199955
4816.23201050,0.00188228
4818.16081787,0.00187889
4820.08962524,0.00186541
4822.01843262,0.00187917
4823.94723999,0.00197764
4825.87604736,0.00181109
4827.80485474,0.00185168
4829.73366211,0.00189546
4831.66246948,0.00184005
4833.59127686,0.00182418
4835.52008423,0.00178046
4837.44889160,0.00177073
4839.37769897,0.00181020
4841.30650635,0.00189024
4843.23531372,0.00176063
4845.16412109,0.00178217
4847.09292847,0.00177812
4849.02173584,0.00173890
4850.95054321,0.00180180
4852.87935059,0.00169922
4854.80815796,0.00181487
4856.73696533,0.00179280
4858.66577270,0.00183191
4860.59458008,0.00184213
4862.52338745,0.00161582
4864.45219482,0.00174438
4866.38100220,0.00173314
4868.30980957,0.00173217
4870.23861694,0.00178911
4872.16742432,0.00169607
4874.09623169,0.00177319
4876.02503906,0.00178662
4877.95384644,0.00165891
4879.88265381,0.00165228
4881.81146118,0.00172914
4883.74026855,0.00166803
4885.66907593,0.00169731
4887.59788330,0.00170500
4889.52669067,0.00171675
4891.45549805,0.00172052
4893.38430542,0.00158297
4895.31311279,0.00171985
4897.24192017,0.00174367
4899.17072754,0.00169102
4901.09953491,0.00172321
4903.02834228,0.00166021
4904.95714966,0.00167918
4906.88595703,0.00166266
4908.81476440,0.00167605
4910.74357178,0.00164140
4912.67237915,0.00159690
4914.60118652,0.00157519
4916.52999390,0.00161752
4918.45880127,0.00167470
4920.38760864,0.00157586
4922.31641602,0.00163822
4924.24522339,0.00162503
4926.17403076,0.00155028
4928.10283813,0.00153707
4930.03164551,0.00149418
4931.96045288,0.00158140
4933.88926025,0.00160014
4935.81806763,0.00160373
4937.74687500,0.00159323
4939.67568237,0.00156356
4941.60448975,0.00154650
4943.53329712,0.00154325
4945.46210449,0.00157228
4947.39091187,0.00150907
4949.31971924,0.00154907
4951.24852661,0.00158114
4953.17733398,0.00155622
4955.10614136,0.00152832
4957.03494873,0.00149348
4958.96375610,0.00153230
4960.89256348,0.00148241
4962.82137085,0.00152930
4964.75017822,0.00154707
4966.67898560,0.00144633
4968.60779297,0.00144907
4970.53660034,0.00147461
4972.46540771,0.00153712
4974.39421509,0.00150038
4976.32302246,0.00146988
4978.25182983,0.00148679
4980.18063721,0.00145906
4982.10944458,0.00148976
4984.03825195,0.00149762
4985.96705933,0.00149945
4987.89586670,0.00147050
4989.82467407,0.00154545
4991.75348145,0.00155301
4993.68228882,0.00141376
4995.61109619,0.00147673
4997.53990356,0.00144317
4999.46871094,0.00137835
5001.39751831,0.00141732
5003.32632568,0.00141854
5005.25513306,0.00144849
5007.18394043,0.00140642
5009.11274780,0.00139330
5011.04155518,0.00135503
5012.97036255,0.00136636
5014.89916992,0.00144612
5016.82797729,0.00136843
5018.75678467,0.00136368
5020.68559204,0.00140476
5022.61439941,0.00135284
5024.54320679,0.00132890
5026.47201416,0.00134068
5028.40082153,0.00134150
5030.32962891,0.00133059
5032.25843628,0.00130656
5034.18724365,0.00132555
5036.11605103,0.00132516
5038.04485840,0.00127769
5039.97366577,0.00130723
5041.90247314,0.00128655
5043.83128052,0.00132608
5045.76008789,0.00134883
5047.68889526,0.00129773
5049.61770264,0.00137686
5051.54651001,0.00132805
5053.47531738,0.00130907
5055.40412476,0.00136144
5057.33293213,0.00131562
5059.26173950,0.00128498
5061.19054687,0.00125777
5063.11935425,0.00123226
5065.04816162,0.00123562
5066.97696899,0.00129833
5068.90577637,0.00123664
5070.83458374,0.00123169
5072.76339111,0.00127981
5074.69219849,0.00126089
5076.62100586,0.00132206
5078.54981323,0.00124663
5080.47862061,0.00124901
5082.40742798,0.00130181
5084.33623535,0.00125465
5086.26504272,0.00118486
5088.19385010,0.00118299
5090.12265747,0.00131574
5092.05146484,0.00126803
5093.98027222,0.00125435
5095.90907959,0.00121576
5097.83788696,0.00113916
5099.76669434,0.00121199
5101.69550171,0.00120266
5103.62430908,0.00124175
5105.55311645,0.00119474
5107.48192383,0.00115397
5109.41073120,0.00123623
5111.33953857,0.00121017
5113.26834595,0.00118833
5115.19715332,0.00123147
5117.12596069,0.00122169
5119.05476807,0.00117735
5120.98357544,0.00122863
5122.91238281,0.00121246
5124.84119019,0.00117945
5126.76999756,0.00115697
5128.69880493,0.00110544
5130.62761230,0.00115889
5132.55641968,0.00115182
5134.48522705,0.00112852
5136.41403442,0.00111658
5138.34284180,0.00111140
5140.27164917,0.00117073
5142.20045654,0.00117709
5144.12926392,0.00108226
5146.05807129,0.00108054
5147.98687866,0.00119791
5149.91568603,0.00112182
5151.84449341,0.00109430
5153.77330078,0.00116771
5155.70210815,0.00106581
5157.63091553,0.00105800
5159.55972290,0.00113976
5161.48853027,0.00107680
5163.41733765,0.00110419
5165.34614502,0.00115390
5167.27495239,0.00107317
5169.20375977,0.00112004
5171.13256714,0.00106245
5173.06137451,0.00104528
5174.99018188,0.00110305
5176.91898926,0.00102323
5178.84779663,0.00109881
5180.77660400,0.00108989
5182.70541138,0.00108248
5184.63421875,0.00101834
5186.56302612,0.00099777
5188.49183350,0.00113770
5190.42064087,0.00098836
5192.34944824,0.00100492
5194.27825562,0.00104091
5196.20706299,0.00099898
5198.13587036,0.00106570
5200.06467773,0.00097455
5201.99348511,0.00097104
5203.92229248,0.00099921
5205.85109985,0.00098625
5207.77990723,0.00096951
5209.70871460,0.00101797
5211.63752197,0.00101192
5213.56632935,0.00093966
5215.49513672,0.00102330
5217.42394409,0.00102478
5219.35275146,0.00102848
5221.28155884,0.00101832
5223.21036621,0.00095143
5225.13917358,0.00091277
5227.06798096,0.00091931
5228.99678833,0.00103575
5230.92559570,0.00103657
5232.85440308,0.00099994
5234.78321045,0.00097422
5236.71201782,0.00093879
5238.64082520,0.00095837
5240.56963257,0.00097577
5242.49843994,0.00099158
5244.42724731,0.00097981
5246.35605469,0.00096428
5248.28486206,0.00091921
5250.21366943,0.00093586
5252.14247681,0.00097179
5254.07128418,0.00093174
5256.00009155,0.00090701
5257.92889893,0.00087649
5259.85770630,0.00093268
5261.78651367,0.00101151
5263.71532104,0.00093408
5265.64412842,0.00087812
5267.57293579,0.00094085
5269.50174316,0.00092193
5271.43055054,0.00088379
5273.35935791,0.00091519
5275.28816528,0.00090805
5277.21697266,0.00094142
5279.14578003,0.00096616
5281.07458740,0.00087863
5283.00339478,0.00084473
5284.93220215,0.00091085
5286.86100952,0.00091305
5288.78981689,0.00090091
5290.71862427,0.00089358
5292.64743164,0.00087085
5294.57623901,0.00091138
5296.50504639,0.00089568
5298.43385376,0.00090535
5300.36266113,0.00094994
5302.29146851,0.00089836
5304.22027588,0.00089453
5306.14908325,0.00095840
5308.07789062,0.00093595
5310.00669800,0.00086274
5311.93550537,0.00088720
5313.86431274,0.00090269
5315.79312012,0.00083165
5317.72192749,0.00076885
5319.65073486,0.00082887
5321.57954224,0.00086264
5323.50834961,0.00083979
5325.43715698,0.00091853
5327.36596436,0.00082979
5329.29477173,0.00074568
5331.22357910,0.00082242
5333.15238647,0.00088837
5335.08119385,0.00090303
5337.01000122,0.00081297
5338.93880859,0.00079192
5340.86761597,0.00079428
5342.79642334,0.00084561
5344.72523071,0.00084813
5346.65403809,0.00078640
5348.58284546,0.00083768
5350.51165283,0.00085164
5352.44046020,0.00083264
5354.36926758,0.00073122
5356.29807495,0.00073998
5358.22688232,0.00074624
5360.15568970,0.00070953
5362.08449707,0.00082190
5364.01330444,0.00077920
5365.94211182,0.00083466
5367.87091919,0.00085920
5369.79972656,0.00074457
5371.72853394,0.00079990
5373.65734131,0.00078603
5375.58614868,0.00074642
5377.51495605,0.00077006
5379.44376343,0.00075530
5381.37257080,0.00072874
5383.30137817,0.00076960
5385.23018555,0.00072641
5387.15899292,0.00072042
5389.08780029,0.00085320
5391.01660767,0.00078687
5392.94541504,0.00072077
5394.87422241,0.00070106
5396.80302978,0.00069575
5398.73183716,0.00075661
5400.66064453,0.00072985
5402.58945190,0.00075011
5404.51825928,0.00074340
5406.44706665,0.00073532
5408.37587402,0.00075318
5410.30468140,0.00069040
5412.23348877,0.00067492
5414.16229614,0.00063498
5416.09110352,0.00066723
5418.01991089,0.00079497
5419.94871826,0.00075071
5421.87752563,0.00071134
5423.80633301,0.00071561
5425.73514038,0.00069394
5427.66394775,0.00074835
5429.59275513,0.00064826
5431.52156250,0.00063524
5433.45036987,0.00078392
5435.37917725,0.00068331
5437.30798462,0.00065271
5439.23679199,0.00072399
5441.16559936,0.00065712
5443.09440674,0.00065641
5445.02321411,0.00069280
5446.95202148,0.00069489
5448.88082886,0.00074451
5450.80963623,0.00071925
5452.73844360,0.00063133
5454.66725098,0.00066959
5456.59605835,0.00071671
5458.52486572,0.00069614
5460.45367310,0.00063707
5462.38248047,0.00062446
5464.31128784,0.00069183
5466.24009521,0.00069490
5468.16890259,0.00070140
5470.09770996,0.00071423
5472.02651733,0.00071172
5473.95532471,0.00067016
5475.88413208,0.00059756
5477.81293945,0.00067788
5479.74174683,0.00077348
5481.67055420,0.00072949
5483.59936157,0.00067507
5485.52816895,0.00067286
5487.45697632,0.00068180
5489.38578369,0.00066851
5491.31459106,0.00058091
5493.24339844,0.00061949
5495.17220581,0.00075225
5497.10101318,0.00064577
5499.02982056,0.00058933
5500.95862793,0.00061699
5502.88743530,0.00059792
5504.81624268,0.00065820
5506.74505005,0.00065158
5508.67385742,0.00067289
5510.60266479,0.00067354
5512.53147217,0.00060910
5514.46027954,0.00059406
5516.38908691,0.00058797
5518.31789429,0.00066718
5520.24670166,0.00064861
5522.17550903,0.00057757
5524.10431641,0.00064902
5526.03312378,0.00066413
5527.96193115,0.00062651
5529.89073853,0.00062516
5531.81954590,0.00061343
5533.74835327,0.00058597
5535.67716064,0.00059755
5537.60596802,0.00060567
5539.53477539,0.00057283
5541.46358276,0.00060345
5543.39239014,0.00063026
5545.32119751,0.00063441
5547.25000488,0.00060460
5549.17881226,0.00053742
5551.10761963,0.00056735
5553.03642700,0.00055816
5554.96523437,0.00054163
5556.89404175,0.00057829
5558.82284912,0.00061590
5560.75165649,0.00067094
5562.68046387,0.00060349
5564.60927124,0.00060161
5566.53807861,0.00061717
5568.46688599,0.00054474
5570.39569336,0.00059618
5572.32450073,0.00058827
5574.25330811,0.00058776
5576.18211548,0.00060265
5578.11092285,0.00054751
5580.03973022,0.00057736
5581.96853760,0.00054493
5583.89734497,0.00057856
5585.82615234,0.00062438
5587.75495972,0.00053405
5589.68376709,0.00060506
5591.61257446,0.00058468
5593.54138184,0.00048289
5595.47018921,0.00056307
5597.39899658,0.00051222
5599.32780395,0.00051000
5601.25661133,0.00056502
5603.18541870,0.00048342
5605.11422607,0.00056860
5607.04303345,0.00060003
5608.97184082,0.00050882
5610.90064819,0.00051544
5612.82945557,0.00053286
5614.75826294,0.00057045
5616.68707031,0.00054939
5618.61587769,0.00054202
5620.54468506,0.00057762
5622.47349243,0.00054761
5624.40229980,0.00051010
5626.33110718,0.00046119
5628.25991455,0.00049586
5630.18872192,0.00053568
5632.11752930,0.00052240
5634.04633667,0.00056587
5635.97514404,0.00053353
5637.90395142,0.00052625
5639.83275879,0.00054545
5641.76156616,0.00048302
5643.69037353,0.00049136
5645.61918091,0.00050985
5647.54798828,0.00054670
5649.47679565,0.00050740
5651.40560303,0.00043939
5653.33441040,0.00050734
5655.26321777,0.00046487
5657.19202515,0.00048612
5659.12083252,0.00051239
5661.04963989,0.00044225
5662.97844727,0.00052248
5664.90725464,0.00049583
5666.83606201,0.00045037
5668.76486938,0.00050341
5670.69367676,0.00049711
5672.62248413,0.00045270
5674.55129150,0.00046040
5676.48009888,0.00050932
5678.40890625,0.00045994
5680.33771362,0.00045754
5682.26652100,0.00045652
5684.19532837,0.00044603
5686.12413574,0.00047465
5688.05294311,0.00043813
5689.98175049,0.00044169
5691.91055786,0.00047440
5693.83936523,0.00048977
5695.76817261,0.00044134
5697.69697998,0.00048442
5699.62578735,0.00052501
5701.55459473,0.00045540
5703.48340210,0.00047108
5705.41220947,0.00041650
5707.34101685,0.00042706
5709.26982422,0.00045611
5711.19863159,0.00041311
5713.12743896,0.00045309
5715.05624634,0.00044658
5716.98505371,0.00046456
5718.91386108,0.00045592
5720.84266846,0.00041312
5722.77147583,0.00044134
5724.70028320,0.00044818
5726.62909058,0.00041805
5728.55789795,0.00048034
5730.48670532,0.00053183
5732.41551270,0.00044969
5734.34432007,0.00045786
5736.27312744,0.00041835
5738.20193481,0.00039854
5740.13074219,0.00048004
5742.05954956,0.00043988
5743.98835693,0.00043318
5745.91716431,0.00040088
5747.84597168,0.00040416
5749.77477905,0.00044390
5751.70358643,0.00040874
5753.63239380,0.00043048
5755.56120117,0.00042979
5757.49000854,0.00043163
5759.41881592,0.00039643
5761.34762329,0.00039251
5763.27643066,0.00044675
5765.20523804,0.00041928
5767.13404541,0.00046868
5769.06285278,0.00046583
5770.99166016,0.00037776
5772.92046753,0.00039927
5774.84927490,0.00042187
5776.77808228,0.00039966
5778.70688965,0.00041466
5780.63569702,0.00043020
5782.56450439,0.00036988
5784.49331177,0.00038011
5786.42211914,0.00038083
5788.35092651,0.00031694
5790.27973389,0.00039685
5792.20854126,0.00042299
5794.13734863,0.00042017
5796.06615601,0.00039564
5797.99496338,0.00028459
5799.92377075,0.00036173
5801.85257812,0.00041650
5803.78138550,0.00039272
5805.71019287,0.00038161
5807.63900024,0.00035763
5809.56780762,0.00042429
5811.49661499,0.00038313
5813.42542236,0.00032897
5815.35422974,0.00036378
5817.28303711,0.00036599
5819.21184448,0.00038662
5821.14065186,0.00040675
5823.06945923,0.00040303
5824.99826660,0.00040387
5826.92707397,0.00042961
5828.85588135,0.00038934
5830.78468872,0.00038509
5832.71349609,0.00043209
5834.64230347,0.00039386
5836.57111084,0.00039050
5838.49991821,0.00038549
5840.42872559,0.00033904
5842.35753296,0.00034008
5844.28634033,0.00036465
5846.21514770,0.00034101
5848.14395508,0.00038462
5850.07276245,0.00038233
5852.00156982,0.00025675
5853.93037720,0.00031807
5855.85918457,0.00033770
5857.78799194,0.00029865
5859.71679932,0.00034994
5861.64560669,0.00031958
5863.57441406,0.00035873
5865.50322144,0.00036766
5867.43202881,0.00030288
5869.36083618,0.00033131
5871.28964355,0.00033119
5873.21845093,0.00032619
5875.14725830,0.00037746
5877.07606567,0.00035651
5879.00487305,0.00033060
5880.93368042,0.00033804
5882.86248779,0.00032164
5884.79129517,0.00031212
5886.72010254,0.00026544
5888.64890991,0.00031219
5890.57771728,0.00035498
5892.50652466,0.00032364
5894.43533203,0.00034386
5896.36413940,0.00031721
5898.29294678,0.00034230
5900.22175415,0.00035068
5902.15056152,0.00030584
5904.07936890,0.00027887
5906.00817627,0.00030476
5907.93698364,0.00035776
5909.86579102,0.00026208
5911.79459839,0.00027596
5913.72340576,0.00035592
5915.65221313,0.00031792
5917.58102051,0.00031507
5919.50982788,0.00033363
5921.43863525,0.00030680
5923.36744263,0.00025824
5925.29625000,0.00030193
5927.22505737,0.00035198
5929.15386475,0.00035195
5931.08267212,0.00027096
5933.01147949,0.00027030
5934.94028686,0.00038540
5936.86909424,0.00030050
5938.79790161,0.00027134
5940.72670898,0.00032107
5942.65551636,0.00028143
5944.58432373,0.00032431
5946.51313110,0.00034714
5948.44193848,0.00025247
5950.37074585,0.00021794
5952.29955322,0.00028471
5954.22836060,0.00032177
5956.15716797,0.00030398
5958.08597534,0.00020231
5960.01478271,0.00024036
5961.94359009,0.00034045
5963.87239746,0.00029591
5965.80120483,0.00028934
5967.73001221,0.00027243
5969.65881958,0.00030072
5971.58762695,0.00031234
5973.51643433,0.00028342
5975.44524170,0.00027008
5977.37404907,0.00025757
5979.30285645,0.00032226
5981.23166382,0.00029333
5983.16047119,0.00028153
5985.08927856,0.00031523
5987.01808594,0.00030669
5988.94689331,0.00028908
5990.87570068,0.00028863
5992.80450806,0.00032139
5994.73331543,0.00020934
5996.66212280,0.00020110
5998.59093018,0.00029011
6000.51973755,0.00028576
