399.26312622,0.00245558
401.19193359,0.00310069
403.12074097,0.00324820
405.04954834,0.00368735
406.97835571,0.00429251
408.90716309,0.00372594
410.83597046,0.00388897
412.76477783,0.00393245
414.69358521,0.00426605
416.62239258,0.00447451
418.55119995,0.00397070
420.48000732,0.00432126
422.40881470,0.00401241
424.33762207,0.00349261
426.26642944,0.00413957
428.19523682,0.00461943
430.12404419,0.00436788
432.05285156,0.00436391
433.98165894,0.00463716
435.91046631,0.00438163
437.83927368,0.00423466
439.76808105,0.00406446
441.69688843,0.00391568
443.62569580,0.00417493
445.55450317,0.00375193
447.48331055,0.00334594
449.41211792,0.00362838
451.34092529,0.00359508
453.26973267,0.00322911
455.19854004,0.00296799
457.12734741,0.00270770
459.05615479,0.00272786
460.98496216,0.00277034
462.91376953,0.00233539
464.84257690,0.00214332
466.77138428,0.00183797
468.70019165,0.00172956
470.62899902,0.00199329
472.55780640,0.00155716
474.48661377,0.00132315
476.41542114,0.00164112
478.34422852,0.00183348
480.27303589,0.00108134
482.20184326,0.00074027
484.13065063,0.00107983
486.05945801,0.00035160
487.98826538,0.00055421
489.91707275,0.00091893
491.84588013,0.00068479
493.77468750,0.00073933
495.70349487,0.00083530
497.63230225,0.00088656
499.56110962,0.00053567
501.48991699,0.00080287
503.41872437,0.00081603
505.34753174,0.00067852
507.27633911,0.00089090
509.20514648,0.00096571
511.13395386,0.00076636
513.06276123,0.00086902
514.99156860,0.00073203
516.92037598,0.00042541
518.84918335,0.00089365
520.77799072,0.00047402
522.70679810,0.00019935
524.63560547,0.00070529
526.56441284,0.00064560
528.49322021,0.00059828
530.42202759,0.00062891
532.35083496,0.00052918
534.27964233,0.00038622
536.20844971,0.00038840
538.13725708,0.00037665
540.06606445,0.00060883
541.99487183,0.00079136
543.92367920,0.00062899
545.85248657,0.00063088
547.78129395,0.00050058
549.71010132,0.00051036
551.63890869,0.00076897
553.56771606,0.00091880
555.49652344,0.00085960
557.42533081,0.00080293
559.35413818,0.00088363
561.28294556,0.00090151
563.21175293,0.00078219
565.14056030,0.00057048
567.06936768,0.00076759
568.99817505,0.00080292
570.92698242,0.00029160
572.85578979,0.00052724
574.78459717,0.00074135
576.71340454,0.00030624
578.64221191,0.00074889
580.57101929,0.00069204
582.49982666,0.00016809
584.42863403,0.00064072
586.35744141,0.00076864
588.28624878,0.00082112
590.21505615,0.00077585
592.14386353,0.00068391
594.07267090,0.00059178
596.00147827,0.00039402
597.93028564,0.00108771
599.85909302,0.00106634
601.78790039,0.00032329
603.71670776,0.00023197
605.64551514,0.00057213
607.57432251,0.00052606
609.50312988,0.00001517
611.43193726,-0.00000941
613.36074463,-0.00034033
615.28955200,-0.00017302
617.21835938,0.00000158
619.14716675,-0.00035148
621.07597412,-0.00024973
623.00478149,0.00045329
624.93358887,0.00019401
626.86239624,-0.00003014
628.79120361,-0.00010587
630.72001099,0.00068278
632.64881836,0.00237952
634.57762573,0.00272929
636.50643311,0.00275186
638.43524048,0.00290175
640.36404785,0.00352140
642.29285522,0.00376695
644.22166260,0.00402210
646.15046997,0.00516584
648.07927734,0.00488392
650.00808472,0.00489031
651.93689209,0.00559727
653.86569946,0.00557811
655.79450684,0.00592664
657.72331421,0.00621858
659.65212158,0.00630426
661.58092896,0.00663281
663.50973633,0.00720593
665.43854370,0.00707497
667.36735107,0.00613242
669.29615845,0.00686227
671.22496582,0.00839594
673.15377319,0.00834678
675.08258057,0.00841032
677.01138794,0.00908168
678.94019531,0.00904280
680.86900269,0.00898729
682.79781006,0.00933460
684.72661743,0.00877723
686.65542480,0.00841049
688.58423218,0.00910941
690.51303955,0.00882896
692.44184692,0.00956928
694.37065430,0.01095225
696.29946167,0.01139747
698.22826904,0.01327187
700.15707642,0.01441785
702.08588379,0.01412725
704.01469116,0.01327549
705.94349854,0.01165012
707.87230591,0.00988478
709.80111328,0.00768776
711.72992065,0.00562431
713.65872803,0.00331438
715.58753540,0.00191338
717.51634277,0.00124308
719.44515015,0.00019483
721.37395752,0.00040546
723.30276489,0.00077384
725.23157227,0.00044156
727.16037964,0.00018114
729.08918701,0.00019915
731.01799438,0.00024283
732.94680176,0.00024856
734.87560913,0.00010923
736.80441650,-0.00007983
738.73322388,0.00025854
740.66203125,0.00002666
742.59083862,-0.00014059
744.51964600,0.00044538
746.44845337,0.00040284
748.37726074,0.00005661
750.30606812,0.00031771
752.23487549,0.00010554
754.16368286,0.00024591
756.09249023,0.00068954
758.02129761,0.00041817
759.95010498,0.00030310
761.87891235,0.00054591
763.80771973,0.00041965
765.73652710,0.00061529
767.66533447,0.00087184
769.59414185,0.00058485
771.52294922,0.00048513
773.45175659,0.00071289
775.38056396,0.00088264
777.30937134,0.00037640
779.23817871,0.00041208
781.16698608,0.00086708
783.09579346,0.00078307
785.02460083,0.00091557
786.95340820,0.00094851
788.88221558,0.00088289
790.81102295,0.00093208
792.73983032,0.00089778
794.66863770,0.00094119
796.59744507,0.00108595
798.52625244,0.00152098
800.45505981,0.00182988
802.38386719,0.00163359
804.31267456,0.00130688
806.24148193,0.00098615
808.17028931,0.00085931
810.09909668,0.00106131
812.02790405,0.00099270
813.95671143,0.00075065
815.88551880,0.00074537
817.81432617,0.00041072
819.74313354,0.00046846
821.67194092,0.00080062
823.60074829,0.00058405
825.52955566,0.00114976
827.45836304,0.00142741
829.38717041,0.00111794
831.31597778,0.00183891
833.24478516,0.00267592
835.17359253,0.00302564
837.10239990,0.00265539
839.03120728,0.00273520
840.96001465,0.00309983
842.88882202,0.00241092
844.81762939,0.00224406
846.74643677,0.00230932
848.67524414,0.00219088
850.60405151,0.00193425
852.53285889,0.00163792
854.46166626,0.00180275
856.39047363,0.00124454
858.31928101,0.00107966
860.24808838,0.00123093
862.17689575,0.00080133
864.10570313,0.00086192
866.03451050,0.00091293
867.96331787,0.00086066
869.89212524,0.00059986
871.82093262,0.00054816
873.74973999,0.00076854
875.67854736,0.00050756
877.60735474,0.00055988
879.53616211,0.00053600
881.46496948,0.00035171
883.39377686,0.00053649
885.32258423,0.00063995
887.25139160,0.00067829
889.18019897,0.00055143
891.10900635,0.00044725
893.03781372,0.00050781
894.96662109,0.00065817
896.89542847,0.00063815
898.82423584,0.00052215
900.75304321,0.00081467
902.68185059,0.00076292
904.61065796,0.00079928
906.53946533,0.00085974
908.46827271,0.00072214
910.39708008,0.00110040
912.32588745,0.00106595
914.25469482,0.00130582
916.18350220,0.00136413
918.11230957,0.00103366
920.04111694,0.00173923
921.96992432,0.00202653
923.89873169,0.00207371
925.82753906,0.00241891
927.75634644,0.00271659
929.68515381,0.00302245
931.61396118,0.00310002
933.54276855,0.00341925
935.47157593,0.00366926
937.40038330,0.00389757
939.32919067,0.00409020
941.25799805,0.00413301
943.18680542,0.00443762
945.11561279,0.00454116
947.04442017,0.00424039
948.97322754,0.00431313
950.90203491,0.00447411
952.83084229,0.00410373
954.75964966,0.00424111
956.68845703,0.00424582
958.61726440,0.00396152
960.54607178,0.00405293
962.47487915,0.00408602
964.40368652,0.00440766
966.33249390,0.00445574
968.26130127,0.00466954
970.19010864,0.00480517
972.11891602,0.00479909
974.04772339,0.00542647
975.97653076,0.00574495
977.90533813,0.00627367
979.83414551,0.00680980
981.76295288,0.00766786
983.69176025,0.00856452
985.62056763,0.00894967
987.54937500,0.01044721
989.47818237,0.01165494
991.40698975,0.01246294
993.33579712,0.01390893
995.26460449,0.01527414
997.19341187,0.01660885
999.12221924,0.01775335
1001.05102661,0.01909038
1002.97983398,0.02055567
1004.90864136,0.02191034
1006.83744873,0.02332098
1008.76625610,0.02478518
1010.69506348,0.02638848
1012.62387085,0.02770586
1014.55267822,0.02923694
1016.48148560,0.03076481
1018.41029297,0.03194704
1020.33910034,0.03371780
1022.26790771,0.03513090
1024.19671509,0.03641459
1026.12552246,0.03803511
1028.05432983,0.03897860
1029.98313721,0.04011340
1031.91194458,0.04127781
1033.84075195,0.04220775
1035.76955933,0.04284330
1037.69836670,0.04311610
1039.62717407,0.04347189
1041.55598145,0.04306189
1043.48478882,0.04286418
1045.41359619,0.04269468
1047.34240356,0.04194930
1049.27121094,0.04138692
1051.20001831,0.04045980
1053.12882568,0.03978270
1055.05763306,0.03913812
1056.98644043,0.03812524
1058.91524780,0.03716219
1060.84405518,0.03613452
1062.77286255,0.03494647
1064.70166992,0.03389703
1066.63047729,0.03291093
1068.55928467,0.03124187
1070.48809204,0.02989121
1072.41689941,0.02849260
1074.34570679,0.02685611
1076.27451416,0.02588792
1078.20332153,0.02469285
1080.13212891,0.02344186
1082.06093628,0.02234026
1083.98974365,0.02134338
1085.91855103,0.02043648
1087.84735840,0.01951846
1089.77616577,0.01854095
1091.70497314,0.01780703
1093.63378052,0.01714775
1095.56258789,0.01612564
1097.49139526,0.01582277
1099.42020264,0.01534806
1101.34901001,0.01488211
1103.27781738,0.01483339
1105.20662476,0.01421071
1107.13543213,0.01396615
1109.06423950,0.01376713
1110.99304687,0.01355731
1112.92185425,0.01336952
1114.85066162,0.01326018
1116.77946899,0.01320834
1118.70827637,0.01297871
1120.63708374,0.01348475
1122.56589111,0.01361624
1124.49469849,0.01350785
1126.42350586,0.01378912
1128.35231323,0.01396872
1130.28112061,0.01439722
1132.20992798,0.01481981
1134.13873535,0.01522816
1136.06754272,0.01579188
1137.99635010,0.01669163
1139.92515747,0.01771795
1141.85396484,0.01893565
1143.78277222,0.02011261
1145.71157959,0.02110887
1147.64038696,0.02262453
1149.56919434,0.02389756
1151.49800171,0.02503992
1153.42680908,0.02641982
1155.35561646,0.02765313
1157.28442383,0.02884770
1159.21323120,0.02985995
1161.14203857,0.03096167
1163.07084595,0.03211142
1164.99965332,0.03318100
1166.92846069,0.03439361
1168.85726807,0.03574606
1170.78607544,0.03710663
1172.71488281,0.03858080
1174.64369019,0.04014054
1176.57249756,0.04141643
1178.50130493,0.04296334
1180.43011230,0.04479090
1182.35891968,0.04656801
1184.28772705,0.04870227
1186.21653442,0.05091973
1188.14534180,0.05322845
1190.07414917,0.05559012
1192.00295654,0.05822120
1193.93176392,0.06123990
1195.86057129,0.06373253
1197.78937866,0.06653728
1199.71818604,0.06972688
1201.64699341,0.07261683
1203.57580078,0.07569750
1205.50460815,0.07859804
1207.43341553,0.08160079
1209.36222290,0.08435602
1211.29103027,0.08676012
1213.21983765,0.08930901
1215.14864502,0.09146024
1217.07745239,0.09342444
1219.00625977,0.09494912
1220.93506714,0.09642462
1222.86387451,0.09780183
1224.79268188,0.09853449
1226.72148926,0.09938409
1228.65029663,0.10003076
1230.57910400,0.10042253
1232.50791138,0.10058253
1234.43671875,0.10040753
1236.36552612,0.10050724
1238.29433350,0.10053305
1240.22314087,0.10003015
1242.15194824,0.09964035
1244.08075562,0.09936011
1246.00956299,0.09880856
1247.93837036,0.09832422
1249.86717773,0.09757461
1251.79598511,0.09679583
1253.72479248,0.09582418
1255.65359985,0.09454332
1257.58240723,0.09349824
1259.51121460,0.09172474
1261.44002197,0.09008884
1263.36882935,0.08926767
1265.29763672,0.08807141
1267.22644409,0.08678485
1269.15525146,0.08573413
1271.08405884,0.08436321
1273.01286621,0.08267187
1274.94167358,0.08145002
1276.87048096,0.08016159
1278.79928833,0.07818276
1280.72809570,0.07658064
1282.65690308,0.07545178
1284.58571045,0.07392544
1286.51451782,0.07214848
1288.44332520,0.07091371
1290.37213257,0.07033575
1292.30093994,0.06958510
1294.22974731,0.06885710
1296.15855469,0.06851001
1298.08736206,0.06816918
1300.01616943,0.06850958
1301.94497681,0.06888633
1303.87378418,0.06925517
1305.80259155,0.07012168
1307.73139893,0.07089979
1309.66020630,0.07229820
1311.58901367,0.07317620
1313.51782104,0.07437509
1315.44662842,0.07678813
1317.37543579,0.07822305
1319.30424316,0.08006926
1321.23305054,0.08296700
1323.16185791,0.08549446
1325.09066528,0.08768012
1327.01947266,0.09021251
1328.94828003,0.09260295
1330.87708740,0.09487158
1332.80589478,0.09728689
1334.73470215,0.09886255
1336.66350952,0.09981956
1338.59231689,0.09888429
1340.52112427,0.10022545
1342.44993164,0.10459873
1344.37873901,0.10483600
1346.30754639,0.10484408
1348.23635376,0.10495891
1350.16516113,0.10388937
1352.09396851,0.10422722
1354.02277588,0.10263282
1355.95158325,0.10176061
1357.88039062,0.10127807
1359.80919800,0.09929651
1361.73800537,0.09507921
1363.66681274,0.09339976
1365.59562012,0.09826186
1367.52442749,0.09615771
1369.45323486,0.09486467
1371.38204224,0.09675325
1373.31084961,0.09124397
1375.23965698,0.09180956
1377.16846436,0.09438194
1379.09727173,0.09396745
1381.02607910,0.09423880
1382.95488647,0.09404457
1384.88369385,0.09402689
1386.81250122,0.08934160
1388.74130859,0.09047615
1390.67011597,0.09859420
1392.59892334,0.09587711
1394.52773071,0.08918265
1396.45653809,0.09396555
1398.38534546,0.09391250
1400.31415283,0.09306283
1402.24296021,0.10102749
1404.17176758,0.09532119
1406.10057495,0.09568219
1408.02938232,0.09988053
1409.95818970,0.09599774
1411.88699707,0.09814984
1413.81580444,0.09463716
1415.74461182,0.09623460
1417.67341919,0.08659521
1419.60222656,0.07684100
1421.53103394,0.08932555
1423.45984131,0.08663286
1425.38864868,0.08402716
1427.31745605,0.08539389
1429.24626343,0.07843484
1431.17507080,0.07619265
1433.10387817,0.07743879
1435.03268555,0.07034498
1436.96149292,0.05903860
1438.89030029,0.06779359
1440.81910767,0.06963661
1442.74791504,0.06417066
1444.67672241,0.06773821
1446.60552979,0.06169836
1448.53433716,0.06274724
1450.46314453,0.06502929
1452.39195190,0.06620140
1454.32075928,0.06860073
1456.24956665,0.05584243
1458.17837402,0.05850502
1460.10718140,0.07870170
1462.03598877,0.08401297
1463.96479614,0.08302226
1465.89360352,0.08650766
1467.82241089,0.09925830
1469.75121826,0.10647751
1471.68002563,0.09416711
1473.60883301,0.09916587
1475.53764038,0.11366968
1477.46644775,0.12260670
1479.39525513,0.13525787
1481.32406250,0.13719264
1483.25286987,0.14588267
1485.18167725,0.15069276
1487.11048462,0.14774409
1489.03929199,0.14698836
1490.96809937,0.14788058
1492.89690674,0.17306624
1494.82571411,0.16931123
1496.75452148,0.15140097
1498.68332886,0.17183968
1500.61213623,0.17749578
1502.54094360,0.19085394
1504.46975098,0.18013544
1506.39855835,0.12916315
1508.32736572,0.15878803
1510.25617310,0.18797031
1512.18498047,0.18191029
1514.11378784,0.19777229
1516.04259521,0.17755257
1517.97140259,0.18526977
1519.90020996,0.17907447
1521.82901733,0.15388975
1523.75782471,0.18997672
1525.68663208,0.18648329
1527.61543945,0.18562639
1529.54424683,0.20647934
1531.47305420,0.19795765
1533.40186157,0.18088344
1535.33066895,0.19229484
1537.25947632,0.20667058
1539.18828369,0.14583409
1541.11709106,0.15230435
1543.04589844,0.18439955
1544.97470581,0.17607719
1546.90351318,0.21016762
1548.83232056,0.19551882
1550.76112793,0.20160607
1552.68993530,0.20077713
1554.61874268,0.18119477
1556.54755005,0.19486807
1558.47635742,0.13520533
1560.40516479,0.14623572
1562.33397217,0.21141696
1564.26277954,0.19939780
1566.19158691,0.20556849
1568.12039429,0.20337754
1570.04920166,0.17913607
1571.97800903,0.20768768
1573.90681641,0.21064393
1575.83562378,0.16531363
1577.76443115,0.18782136
1579.69323853,0.21363518
1581.62204590,0.20377782
1583.55085327,0.20917420
1585.47966064,0.20572673
1587.40846802,0.20730567
1589.33727539,0.20561868
1591.26608276,0.20542222
1593.19489014,0.20582521
1595.12369751,0.20320475
1597.05250488,0.20623231
1598.98131226,0.20476443
1600.91011963,0.20606214
1602.83892700,0.20197430
1604.76773437,0.20553511
1606.69654175,0.20268551
1608.62534912,0.20186615
1610.55415649,0.20177329
1612.48296387,0.20303431
1614.41177124,0.20610617
1616.34057861,0.16714150
1618.26938599,0.18156126
1620.19819336,0.21270698
1622.12700073,0.18759447
1624.05580811,0.18865171
1625.98461548,0.19828540
1627.91342285,0.19729927
1629.84223022,0.19609368
1631.77103760,0.20981383
1633.69984497,0.19301088
1635.62865234,0.15761486
1637.55745972,0.18489155
1639.48626709,0.20437700
1641.41507446,0.19916594
1643.34388184,0.20482647
1645.27268921,0.18375355
1647.20149658,0.16021389
1649.13030396,0.20108847
1651.05911133,0.19053802
1652.98791870,0.11952563
1654.91672607,0.16506436
1656.84553345,0.20937501
1658.77434082,0.19974577
1660.70314819,0.20578820
1662.63195557,0.18610658
1664.56076294,0.19665363
1666.48957031,0.21191573
1668.41837769,0.18375470
1670.34718506,0.17827624
1672.27599243,0.20320398
1674.20479980,0.18694316
1676.13360718,0.17873441
1678.06241455,0.20724505
1679.99122192,0.19932796
1681.92002930,0.19685806
1683.84883667,0.15881708
1685.77764404,0.15692592
1687.70645142,0.21778329
1689.63525879,0.18786508
1691.56406616,0.20743538
1693.49287354,0.21146089
1695.42168091,0.15211916
1697.35048828,0.18967885
1699.27929565,0.16580254
1701.20810303,0.14839363
1703.13691040,0.20506686
1705.06571777,0.18730956
1706.99452515,0.18875067
1708.92333252,0.20598972
1710.85213989,0.19761777
1712.78094727,0.20121458
1714.70975464,0.18591562
1716.63856201,0.16591315
1718.56736938,0.16318703
1720.49617676,0.19497375
1722.42498413,0.20293848
1724.35379150,0.18756813
1726.28259888,0.20466627
1728.21140625,0.18850422
1730.14021362,0.18986446
1732.06902100,0.18496373
1733.99782837,0.13901688
1735.92663574,0.17475820
1737.85544312,0.19409217
1739.78425049,0.17158265
1741.71305786,0.18743362
1743.64186523,0.19012919
1745.57067261,0.19048370
1747.49947998,0.19204596
1749.42828735,0.18333828
1751.35709473,0.17492506
1753.28590210,0.19469365
1755.21470947,0.20413664
1757.14351685,0.18534833
1759.07232422,0.20460823
1761.00113159,0.19171280
1762.92993896,0.18481362
1764.85874634,0.21258062
1766.78755371,0.19050422
1768.71636108,0.19235781
1770.64516846,0.19089720
1772.57397583,0.17080602
1774.50278320,0.19152579
1776.43159058,0.20275986
1778.36039795,0.19971183
1780.28920532,0.19706781
1782.21801270,0.19899863
1784.14682007,0.19856621
1786.07562744,0.19413865
1788.00443481,0.20493096
1789.93324219,0.19946775
1791.86204956,0.17928162
1793.79085693,0.18762892
1795.71966431,0.20186080
1797.64847168,0.19894770
1799.57727905,0.19579212
1801.50608643,0.19205680
1803.43489380,0.19881108
1805.36370117,0.20336956
1807.29250854,0.20041624
1809.22131592,0.20123759
1811.15012329,0.19546932
1813.07893066,0.20179187
1815.00773804,0.20285119
1816.93654541,0.20044470
1818.86535278,0.20212913
1820.79416016,0.20105165
1822.72296753,0.20412168
1824.65177490,0.19027382
1826.58058228,0.19728374
1828.50938965,0.19759139
1830.43819702,0.18473405
1832.36700439,0.20183897
1834.29581177,0.20064506
1836.22461914,0.20029145
1838.15342651,0.19947803
1840.08223389,0.20084155
1842.01104126,0.20109706
1843.93984863,0.17727873
1845.86865601,0.18948326
1847.79746338,0.20042747
1849.72627075,0.19594464
1851.65507812,0.20218402
1853.58388550,0.19780394
1855.51269287,0.19987521
1857.44150024,0.19851965
1859.37030762,0.19705814
1861.29911499,0.19861361
1863.22792236,0.19622162
1865.15672974,0.19853286
1867.08553711,0.19150448
1869.01434448,0.18309253
1870.94315186,0.19072214
1872.87195923,0.19828102
1874.80076660,0.19509485
1876.72957397,0.19612941
1878.65838135,0.19541392
1880.58718872,0.19424859
1882.51599609,0.19585666
1884.44480347,0.19254658
1886.37361084,0.19558936
1888.30241821,0.19081080
1890.23122559,0.18674405
1892.16003296,0.19421843
1894.08884033,0.19135939
1896.01764771,0.19052845
1897.94645508,0.19273967
1899.87526245,0.19170728
1901.80406982,0.19229028
1903.73287720,0.19088966
1905.66168457,0.19165164
1907.59049194,0.18981248
1909.51929932,0.18845201
1911.44810669,0.18956645
1913.37691406,0.18978322
1915.30572144,0.19135281
1917.23452881,0.18271841
1919.16333618,0.18291038
1921.09214355,0.19017559
1923.02095093,0.18385211
1924.94975830,0.18784708
1926.87856567,0.19002229
1928.80737305,0.18719012
1930.73618042,0.18964231
1932.66498779,0.18684658
1934.59379517,0.18865409
1936.52260254,0.18737820
1938.45140991,0.18779513
1940.38021729,0.18791178
1942.30902466,0.18156582
1944.23783203,0.18509175
1946.16663940,0.18695396
1948.09544678,0.18642733
1950.02425415,0.18724102
1951.95306152,0.18647784
1953.88186890,0.18671438
1955.81067627,0.18593240
1957.73948364,0.18650213
1959.66829102,0.18600708
1961.59709839,0.18567866
1963.52590576,0.18621318
1965.45471313,0.18501723
1967.38352051,0.18310896
1969.31232788,0.18455166
1971.24113525,0.18597749
1973.16994263,0.18449016
1975.09875000,0.18527564
1977.02755737,0.18436515
1978.95636475,0.18447416
1980.88517212,0.18437928
1982.81397949,0.18332547
1984.74278687,0.18421194
1986.67159424,0.18244815
1988.60040161,0.18280314
1990.52920898,0.18114166
1992.45801636,0.17901812
1994.38682373,0.18175301
1996.31563110,0.18197080
1998.24443848,0.18108755
2000.17324585,0.18105942
2002.10205322,0.18075186
2004.03086060,0.18033342
2005.95966797,0.17985487
2007.88847534,0.17940977
2009.81728271,0.17926258
2011.74609009,0.17883599
2013.67489746,0.17863217
2015.60370483,0.17762411
2017.53251221,0.17600493
2019.46131958,0.17705551
2021.39012695,0.17684682
2023.31893433,0.17624588
2025.24774170,0.17620757
2027.17654907,0.17542967
2029.10535645,0.17552969
2031.03416382,0.17487085
2032.96297119,0.17482783
2034.89177856,0.17422198
2036.82058594,0.17371112
2038.74939331,0.17354378
2040.67820068,0.17231731
2042.60700806,0.17231795
2044.53581543,0.17219114
2046.46462280,0.17191216
2048.39343018,0.17148431
2050.32223755,0.17106584
2052.25104492,0.17092559
2054.17985229,0.17045182
2056.10865967,0.17014357
2058.03746704,0.16969037
2059.96627441,0.16942555
2061.89508179,0.16922805
2063.82388916,0.16844758
2065.75269653,0.16763404
2067.68150391,0.16816632
2069.61031128,0.16799273
2071.53911865,0.16730121
2073.46792603,0.16726448
2075.39673340,0.16665354
2077.32554077,0.16658822
2079.25434814,0.16604277
2081.18315552,0.16569775
2083.11196289,0.16554821
2085.04077026,0.16506118
2086.96957764,0.16504055
2088.89838501,0.16429490
2090.82719238,0.16391614
2092.75599976,0.16386777
2094.68480713,0.16360900
2096.61361450,0.16313677
2098.54242187,0.16293216
2100.47122925,0.16288096
2102.40003662,0.16249713
2104.32884399,0.16228688
2106.25765137,0.16180062
2108.18645874,0.16161075
2110.11526611,0.16127661
2112.04407349,0.16101223
2113.97288086,0.16077331
2115.90168823,0.16038784
2117.83049561,0.16020651
2119.75930298,0.15993667
2121.68811035,0.15988971
2123.61691772,0.15931012
2125.54572510,0.15922892
2127.47453247,0.15907925
2129.40333984,0.15878500
2131.33214722,0.15880436
2133.26095459,0.15821582
2135.18976196,0.15799759
2137.11856934,0.15771452
2139.04737671,0.15766573
2140.97618408,0.15738764
2142.90499146,0.15720849
2144.83379883,0.15713656
2146.76260620,0.15664479
2148.69141357,0.15660018
2150.62022095,0.15629458
2152.54902832,0.15630776
2154.47783569,0.15585899
2156.40664307,0.15567502
2158.33545044,0.15567429
2160.26425781,0.15524289
2162.19306519,0.15540552
2164.12187256,0.15485243
2166.05067993,0.15473200
2167.97948730,0.15458584
2169.90829468,0.15426189
2171.83710205,0.15424652
2173.76590942,0.15393108
2175.69471680,0.15377328
2177.62352417,0.15341514
2179.55233154,0.15337166
2181.48113892,0.15310350
2183.40994629,0.15303108
2185.33875366,0.15285590
2187.26756104,0.15244776
2189.19636841,0.15246013
2191.12517578,0.15211478
2193.05398315,0.15194908
2194.98279053,0.15173110
2196.91159790,0.15163046
2198.84040527,0.15136054
2200.76921265,0.15116665
2202.69802002,0.15096465
2204.62682739,0.15057063
2206.55563477,0.15067507
2208.48444214,0.15035245
2210.41324951,0.15026812
2212.34205688,0.15008157
2214.27086426,0.14981475
2216.19967163,0.14963198
2218.12847900,0.14928073
2220.05728638,0.14921761
2221.98609375,0.14891165
2223.91490112,0.14878580
2225.84370850,0.14849168
2227.77251587,0.14834651
2229.70132324,0.14818040
2231.63013062,0.14794558
2233.55893799,0.14771695
2235.48774536,0.14725122
2237.41655273,0.14717740
2239.34536011,0.14676297
2241.27416748,0.14668427
2243.20297485,0.14642806
2245.13178223,0.14610010
2247.06058960,0.14604560
2248.98939697,0.14561154
2250.91820435,0.14552203
2252.84701172,0.14518103
2254.77581909,0.14494118
2256.70462646,0.14470792
2258.63343384,0.14461011
2260.56224121,0.14435013
2262.49104858,0.14398848
2264.41985596,0.14397115
2266.34866333,0.14354236
2268.27747070,0.14352798
2270.20627808,0.14316186
2272.13508545,0.14298223
2274.06389282,0.14297664
2275.99270020,0.14266497
2277.92150757,0.14268447
2279.85031494,0.14233913
2281.77912231,0.14224063
2283.70792969,0.14199534
2285.63673706,0.14179251
2287.56554443,0.14144319
2289.49435181,0.14097887
2291.42315918,0.14076075
2293.35196655,0.14029098
2295.28077393,0.13994913
2297.20958130,0.13931285
2299.13838867,0.13893288
2301.06719604,0.13833626
2302.99600342,0.13760941
2304.92481079,0.13700789
2306.85361816,0.13603555
2308.78242554,0.13504824
2310.71123291,0.13381162
2312.64004028,0.13242996
2314.56884766,0.13089892
2316.49765503,0.12968862
2318.42646240,0.12773244
2320.35526978,0.12580600
2322.28407715,0.12415147
2324.21288452,0.12220834
2326.14169189,0.12116455
2328.07049927,0.11940801
2329.99930664,0.11785392
2331.92811401,0.11683191
2333.85692139,0.11638345
2335.78572876,0.11603048
2337.71453613,0.11553302
2339.64334351,0.11577388
2341.57215088,0.11581650
2343.50095825,0.11766599
2345.42976562,0.11985818
2347.35857300,0.12509923
2349.28738037,0.12972361
2351.21618774,0.12469795
2353.14499512,0.11816502
2355.07380249,0.11361036
2357.00260986,0.10981886
2358.93141724,0.10766332
2360.86022461,0.10629383
2362.78903198,0.10632823
2364.71783936,0.10685050
2366.64664673,0.10848086
2368.57545410,0.11066853
2370.50426147,0.11361836
2372.43306885,0.11710258
2374.36187622,0.12039177
2376.29068359,0.12371800
2378.21949097,0.12645480
2380.14829834,0.12890074
2382.07710571,0.13031435
2384.00591309,0.13123204
2385.93472046,0.13160160
2387.86352783,0.13167876
2389.79233521,0.13174945
2391.72114258,0.13140999
2393.64994995,0.13136566
2395.57875732,0.13117465
2397.50756470,0.13105801
2399.43637207,0.13072488
2401.36517944,0.13061035
2403.29398682,0.13046217
2405.22279419,0.13016319
2407.15160156,0.13013607
2409.08040894,0.12980664
2411.00921631,0.12979385
2412.93802368,0.12947652
2414.86683105,0.12938614
2416.79563843,0.12914956
2418.72444580,0.12881655
2420.65325317,0.12886906
2422.58206055,0.12844178
2424.51086792,0.12847140
2426.43967529,0.12820852
2428.36848267,0.12802920
2430.29729004,0.12793383
2432.22609741,0.12762129
2434.15490479,0.12757185
2436.08371216,0.12725951
2438.01251953,0.12721194
2439.94132690,0.12697017
2441.87013428,0.12678079
2443.79894165,0.12659571
2445.72774902,0.12639418
2447.65655640,0.12631415
2449.58536377,0.12607232
2451.51417114,0.12594676
2453.44297852,0.12560451
2455.37178589,0.12548319
2457.30059326,0.12532896
2459.22940063,0.12520719
2461.15820801,0.12500593
2463.08701538,0.12479614
2465.01582275,0.12477054
2466.94463013,0.12444164
2468.87343750,0.12438083
2470.80224487,0.12418113
2472.73105225,0.12405691
2474.65985962,0.12386002
2476.58866699,0.12360145
2478.51747437,0.12352078
2480.44628174,0.12322497
2482.37508911,0.12308993
2484.30389648,0.12287812
2486.23270386,0.12279417
2488.16151123,0.12252544
2490.09031860,0.12245693
2492.01912598,0.12230915
2493.94793335,0.12190440
2495.87674072,0.12193654
2497.80554810,0.12165022
2499.73435547,0.12159529
2501.66316284,0.12142810
2503.59197021,0.12120816
2505.52077759,0.12101072
2507.44958496,0.12078214
2509.37839233,0.12083848
2511.30719971,0.12045315
2513.23600708,0.12034190
2515.16481445,0.12018161
2517.09362183,0.12007743
2519.02242920,0.11993382
2520.95123657,0.11957553
2522.88004395,0.11955646
2524.80885132,0.11935635
2526.73765869,0.11922728
2528.66646606,0.11901921
2530.59527344,0.11900698
2532.52408081,0.11873505
2534.45288818,0.11848797
2536.38169556,0.11853000
2538.31050293,0.11811382
2540.23931030,0.11806078
2542.16811768,0.11784072
2544.09692505,0.11765056
2546.02573242,0.11759042
2547.95453979,0.11743452
2549.88334717,0.11726366
2551.81215454,0.11692982
2553.74096191,0.11697027
2555.66976929,0.11667575
2557.59857666,0.11640310
2559.52738403,0.11636609
2561.45619141,0.11619208
2563.38499878,0.11598384
2565.31380615,0.11585374
2567.24261353,0.11583504
2569.17142090,0.11553310
2571.10022827,0.11540388
2573.02903564,0.11520000
2574.95784302,0.11503885
2576.88665039,0.11496276
2578.81545776,0.11471021
2580.74426514,0.11454972
2582.67307251,0.11431403
2584.60187988,0.11416340
2586.53068726,0.11395586
2588.45949463,0.11384921
2590.38830200,0.11366741
2592.31710937,0.11356926
2594.24591675,0.11350445
2596.17472412,0.11308771
2598.10353149,0.11303964
2600.03233887,0.11304502
2601.96114624,0.11277534
2603.88995361,0.11246094
2605.81876099,0.11240765
2607.74756836,0.11223854
2609.67637573,0.11199648
2611.60518311,0.11198480
2613.53399048,0.11168597
2615.46279785,0.11160474
2617.39160522,0.11146849
2619.32041260,0.11116722
2621.24921997,0.11103988
2623.17802734,0.11088149
2625.10683472,0.11069474
2627.03564209,0.11054447
2628.96444946,0.11047021
2630.89325684,0.11020417
2632.82206421,0.11008280
2634.75087158,0.10991403
2636.67967895,0.10971956
2638.60848633,0.10958767
2640.53729370,0.10933740
2642.46610107,0.10926681
2644.39490845,0.10909325
2646.32371582,0.10892934
2648.25252319,0.10872269
2650.18133057,0.10858795
2652.11013794,0.10849364
2654.03894531,0.10834365
2655.96775269,0.10812740
2657.89656006,0.10782058
2659.82536743,0.10780521
2661.75417480,0.10755841
2663.68298218,0.10745882
2665.61178955,0.10743994
2667.54059692,0.10718385
2669.46940430,0.10699940
2671.39821167,0.10678018
2673.32701904,0.10671087
2675.25582642,0.10640576
2677.18463379,0.10622993
2679.11344116,0.10611854
2681.04224854,0.10594622
2682.97105591,0.10591620
2684.89986328,0.10567535
2686.82867065,0.10546596
2688.75747803,0.10531360
2690.68628540,0.10520402
2692.61509277,0.10492960
2694.54390015,0.10483582
2696.47270752,0.10472230
2698.40151489,0.10455112
2700.33032227,0.10446735
2702.25912964,0.10404053
2704.18793701,0.10401624
2706.11674438,0.10385396
2708.04555176,0.10363474
2709.97435913,0.10363384
2711.90316650,0.10343411
2713.83197388,0.10325824
2715.76078125,0.10292914
2717.68958862,0.10285340
2719.61839600,0.10268390
2721.54720337,0.10251115
2723.47601074,0.10237210
2725.40481812,0.10207967
2727.33362549,0.10196427
2729.26243286,0.10183570
2731.19124023,0.10179254
2733.12004761,0.10154665
2735.04885498,0.10140331
2736.97766235,0.10118800
2738.90646973,0.10095997
2740.83527710,0.10093726
2742.76408447,0.10055974
2744.69289185,0.10045631
2746.62169922,0.10040361
2748.55050659,0.10015109
2750.47931396,0.10006538
2752.40812134,0.09993990
2754.33692871,0.09966215
2756.26573608,0.09951325
2758.19454346,0.09934634
2760.12335083,0.09913026
2762.05215820,0.09900667
2763.98096558,0.09874161
2765.90977295,0.09880273
2767.83858032,0.09849686
2769.76738770,0.09821840
2771.69619507,0.09826721
2773.62500244,0.09788501
2775.55380981,0.09787180
2777.48261719,0.09759250
2779.41142456,0.09735700
2781.34023193,0.09728091
2783.26903931,0.09701582
2785.19784668,0.09699851
2787.12665405,0.09670079
2789.05546143,0.09661311
2790.98426880,0.09647676
2792.91307617,0.09620658
2794.84188354,0.09604234
2796.77069092,0.09580570
2798.69949829,0.09565565
2800.62830566,0.09549533
2802.55711304,0.09535100
2804.48592041,0.09504388
2806.41472778,0.09489757
2808.34353516,0.09477494
2810.27234253,0.09461137
2812.20114990,0.09435888
2814.12995728,0.09408221
2816.05876465,0.09404172
2817.98757202,0.09382773
2819.91637939,0.09372262
2821.84518677,0.09338471
2823.77399414,0.09311217
2825.70280151,0.09310786
2827.63160889,0.09289266
2829.56041626,0.09272964
2831.48922363,0.09249860
2833.41803101,0.09229945
2835.34683838,0.09203294
2837.27564575,0.09185255
2839.20445312,0.09159086
2841.13326050,0.09129620
2843.06206787,0.09097889
2844.99087524,0.09046887
2846.91968262,0.09015916
2848.84848999,0.08956276
2850.77729736,0.08924361
2852.70610474,0.08913860
2854.63491211,0.08903489
2856.56371948,0.08904743
2858.49252686,0.08874953
2860.42133423,0.08873796
2862.35014160,0.08854803
2864.27894897,0.08842529
2866.20775635,0.08845062
2868.13656372,0.08814758
2870.06537109,0.08800468
2871.99417847,0.08786254
2873.92298584,0.08773941
2875.85179321,0.08763995
2877.78060059,0.08754927
2879.70940796,0.08731459
2881.63821533,0.08715704
2883.56702270,0.08713023
2885.49583008,0.08693067
2887.42463745,0.08673874
2889.35344482,0.08656429
2891.28225220,0.08644083
2893.21105957,0.08610962
2895.13986694,0.08597334
2897.06867432,0.08585192
2898.99748169,0.08545402
2900.92628906,0.08529551
2902.85509644,0.08510047
2904.78390381,0.08489293
2906.71271118,0.08457977
2908.64151855,0.08430783
2910.57032593,0.08409823
2912.49913330,0.08368398
2914.42794067,0.08317056
2916.35674805,0.08274277
2918.28555542,0.08258662
2920.21436279,0.08235026
2922.14317017,0.08225192
2924.07197754,0.08216445
2926.00078491,0.08201465
2927.92959229,0.08189760
2929.85839966,0.08162092
2931.78720703,0.08169578
2933.71601440,0.08177878
2935.64482178,0.08172213
2937.57362915,0.08171147
2939.50243652,0.08163808
2941.43124390,0.08156867
2943.36005127,0.08143340
2945.28885864,0.08141095
2947.21766602,0.08137777
2949.14647339,0.08124457
2951.07528076,0.08110885
2953.00408813,0.08081816
2954.93289551,0.08050792
2956.86170288,0.08035635
2958.79051025,0.08005376
2960.71931763,0.07985348
2962.64812500,0.07976533
2964.57693237,0.07945117
2966.50573975,0.07943678
2968.43454712,0.07946565
2970.36335449,0.07950484
2972.29216187,0.07958268
2974.22096924,0.07941869
2976.14977661,0.07949595
2978.07858398,0.07954220
2980.00739136,0.07941428
2981.93619873,0.07940660
2983.86500610,0.07938884
2985.79381348,0.07929511
2987.72262085,0.07925822
2989.65142822,0.07920353
2991.58023560,0.07912052
2993.50904297,0.07891530
2995.43785034,0.07861140
2997.36665771,0.07863238
2999.29546509,0.07855061
3001.22427246,0.07839492
3003.15307983,0.07826461
3005.08188721,0.07803135
3007.01069458,0.07791049
3008.93950195,0.07776096
3010.86830933,0.07764979
3012.79711670,0.07730065
3014.72592407,0.07709910
3016.65473145,0.07705976
3018.58353882,0.07689327
3020.51234619,0.07687956
3022.44115356,0.07667030
3024.36996094,0.07644393
3026.29876831,0.07627505
3028.22757568,0.07614716
3030.15638306,0.07585813
3032.08519043,0.07557915
3034.01399780,0.07550359
3035.94280518,0.07536095
3037.87161255,0.07533765
3039.80041992,0.07511571
3041.72922729,0.07499556
3043.65803467,0.07482043
3045.58684204,0.07466485
3047.51564941,0.07459119
3049.44445679,0.07421580
3051.37326416,0.07420955
3053.30207153,0.07408062
3055.23087891,0.07388854
3057.15968628,0.07364494
3059.08849365,0.07349782
3061.01730103,0.07357327
3062.94610840,0.07318030
3064.87491577,0.07300492
3066.80372314,0.07279836
3068.73253052,0.07279508
3070.66133789,0.07288690
3072.59014526,0.07252118
3074.51895264,0.07235041
3076.44776001,0.07215811
3078.37656738,0.07200279
3080.30537476,0.07186168
3082.23418213,0.07185394
3084.16298950,0.07173980
3086.09179687,0.07143669
3088.02060425,0.07140547
3089.94941162,0.07128527
3091.87821899,0.07120173
3093.80702637,0.07102112
3095.73583374,0.07070623
3097.66464111,0.07056427
3099.59344849,0.07049374
3101.52225586,0.07031564
3103.45106323,0.07019438
3105.37987061,0.07012840
3107.30867798,0.06985080
3109.23748535,0.06960749
3111.16629272,0.06944745
3113.09510010,0.06939606
3115.02390747,0.06904311
3116.95271484,0.06872015
3118.88152222,0.06867343
3120.81032959,0.06840090
3122.73913696,0.06838977
3124.66794434,0.06831080
3126.59675171,0.06808205
3128.52555908,0.06795852
3130.45436645,0.06782819
3132.38317383,0.06753168
3134.31198120,0.06728090
3136.24078857,0.06738727
3138.16959595,0.06713137
3140.09840332,0.06687790
3142.02721069,0.06666258
3143.95601807,0.06642099
3145.88482544,0.06641453
3147.81363281,0.06623293
3149.74244019,0.06604140
3151.67124756,0.06575014
3153.60005493,0.06558754
3155.52886230,0.06542851
3157.45766968,0.06520026
3159.38647705,0.06507730
3161.31528442,0.06490458
3163.24409180,0.06477429
3165.17289917,0.06457523
3167.10170654,0.06445037
3169.03051392,0.06419030
3170.95932129,0.06394990
3172.88812866,0.06380302
3174.81693604,0.06365459
3176.74574341,0.06351122
3178.67455078,0.06323297
3180.60335815,0.06315798
3182.53216553,0.06300387
3184.46097290,0.06279777
3186.38978027,0.06258915
3188.31858765,0.06250206
3190.24739502,0.06241485
3192.17620239,0.06216260
3194.10500977,0.06203522
3196.03381714,0.06175937
3197.96262451,0.06170723
3199.89143188,0.06155669
3201.82023926,0.06136969
3203.74904663,0.06128206
3205.67785400,0.06110770
3207.60666138,0.06097775
3209.53546875,0.06068980
3211.46427612,0.06076624
3213.39308350,0.06042762
3215.32189087,0.06027512
3217.25069824,0.06042647
3219.17950562,0.06003104
3221.10831299,0.06005519
3223.03712036,0.05994253
3224.96592773,0.05987869
3226.89473511,0.05971969
3228.82354248,0.05950242
3230.75234985,0.05954272
3232.68115723,0.05932647
3234.60996460,0.05935559
3236.53877197,0.05920610
3238.46757935,0.05907456
3240.39638672,0.05904996
3242.32519409,0.05894413
3244.25400146,0.05870382
3246.18280884,0.05849340
3248.11161621,0.05871203
3250.04042358,0.05867787
3251.96923096,0.05853820
3253.89803833,0.05828668
3255.82684570,0.05814895
3257.75565308,0.05810671
3259.68446045,0.05802076
3261.61326782,0.05806949
3263.54207520,0.05795538
3265.47088257,0.05800027
3267.39968994,0.05794716
3269.32849731,0.05783123
3271.25730469,0.05754564
3273.18611206,0.05742227
3275.11491943,0.05740835
3277.04372681,0.05724295
3278.97253418,0.05739988
3280.90134155,0.05717701
3282.83014893,0.05714989
3284.75895630,0.05707344
3286.68776367,0.05693665
3288.61657104,0.05699370
3290.54537842,0.05669966
3292.47418579,0.05671093
3294.40299316,0.05664206
3296.33180054,0.05667541
3298.26060791,0.05653130
3300.18941528,0.05644858
3302.11822266,0.05649870
3304.04703003,0.05618469
3305.97583740,0.05619612
3307.90464478,0.05594223
3309.83345215,0.05593408
3311.76225952,0.05589101
3313.69106689,0.05575293
3315.61987427,0.05585419
3317.54868164,0.05557907
3319.47748901,0.05565048
3321.40629639,0.05562179
3323.33510376,0.05550317
3325.26391113,0.05537349
3327.19271851,0.05520140
3329.12152588,0.05518951
3331.05033325,0.05507727
3332.97914062,0.05504734
3334.90794800,0.05486692
3336.83675537,0.05479200
3338.76556274,0.05478183
3340.69437012,0.05469727
3342.62317749,0.05456100
3344.55198486,0.05447348
3346.48079224,0.05439474
3348.40959961,0.05423576
3350.33840698,0.05410390
3352.26721436,0.05395256
3354.19602173,0.05397583
3356.12482910,0.05373381
3358.05363647,0.05371247
3359.98244385,0.05360853
3361.91125122,0.05342004
3363.84005859,0.05353021
3365.76886597,0.05323433
3367.69767334,0.05317326
3369.62648071,0.05300767
3371.55528809,0.05311985
3373.48409546,0.05308748
3375.41290283,0.05283725
3377.34171020,0.05295560
3379.27051758,0.05255101
3381.19932495,0.05256588
3383.12813232,0.05243859
3385.05693970,0.05226266
3386.98574707,0.05223977
3388.91455444,0.05219132
3390.84336182,0.05205051
3392.77216919,0.05148838
3394.70097656,0.05179093
3396.62978394,0.05161622
3398.55859131,0.05132487
3400.48739868,0.05130462
3402.41620605,0.05110620
3404.34501343,0.05130301
3406.27382080,0.05111657
3408.20262817,0.05106127
3410.13143555,0.05087849
3412.06024292,0.05092554
3413.98905029,0.05073591
3415.91785767,0.05056339
3417.84666504,0.05082097
3419.77547241,0.05022249
3421.70427979,0.05004064
3423.63308716,0.05015669
3425.56189453,0.05024383
3427.49070190,0.05006947
3429.41950928,0.04997312
3431.34831665,0.04992603
3433.27712402,0.04954623
3435.20593140,0.04966856
3437.13473877,0.04939031
3439.06354614,0.04946225
3440.99235352,0.04919459
3442.92116089,0.04889986
3444.84996826,0.04918121
3446.77877563,0.04855233
3448.70758301,0.04873168
3450.63639038,0.04913907
3452.56519775,0.04895885
3454.49400513,0.04889347
3456.42281250,0.04875114
3458.35161987,0.04862899
3460.28042725,0.04856751
3462.20923462,0.04839850
3464.13804199,0.04833678
3466.06684937,0.04839649
3467.99565674,0.04804566
3469.92446411,0.04815799
3471.85327148,0.04812635
3473.78207886,0.04799123
3475.71088623,0.04798056
3477.63969360,0.04795107
3479.56850098,0.04797411
3481.49730835,0.04716279
3483.42611572,0.04749157
3485.35492310,0.04783541
3487.28373047,0.04743825
3489.21253784,0.04745382
3491.14134521,0.04749688
3493.07015259,0.04776931
3494.99895996,0.04732145
3496.92776733,0.04726017
3498.85657471,0.04749411
3500.78538208,0.04738696
3502.71418945,0.04661850
3504.64299683,0.04657022
3506.57180420,0.04762476
3508.50061157,0.04681044
3510.42941895,0.04665157
3512.35822632,0.04708581
3514.28703369,0.04717162
3516.21584106,0.04730204
3518.14464844,0.04688302
3520.07345581,0.04722650
3522.00226318,0.04664418
3523.93107056,0.04603693
3525.85987793,0.04630920
3527.78868530,0.04623482
3529.71749268,0.04624703
3531.64630005,0.04674129
3533.57510742,0.04714045
3535.50391479,0.04649565
3537.43272217,0.04633048
3539.36152954,0.04678691
3541.29033691,0.04678384
3543.21914429,0.04638413
3545.14795166,0.04539112
3547.07675903,0.04471845
3549.00556641,0.04616952
3550.93437378,0.04653237
3552.86318115,0.04531940
3554.79198853,0.04630447
3556.72079590,0.04649317
3558.64960327,0.04626415
3560.57841064,0.04594778
3562.50721802,0.04571982
3564.43602539,0.04609650
3566.36483276,0.04279993
3568.29364014,0.04178522
3570.22244751,0.04524593
3572.15125488,0.04634165
3574.08006226,0.04576894
3576.00886963,0.04595394
3577.93767700,0.04588772
3579.86648437,0.04574438
3581.79529175,0.04570217
3583.72409912,0.04590733
3585.65290649,0.04495160
3587.58171387,0.04108263
3589.51052124,0.04234250
3591.43932861,0.04612949
3593.36813599,0.04474780
3595.29694336,0.04400670
3597.22575073,0.04478887
3599.15455811,0.04515373
3601.08336548,0.04469436
3603.01217285,0.04513029
3604.94098022,0.04593724
3606.86978760,0.04431320
3608.79859497,0.04168799
3610.72740234,0.04257173
3612.65620972,0.04358401
3614.58501709,0.04215529
3616.51382446,0.04535719
3618.44263184,0.04198250
3620.37143921,0.04031055
3622.30024658,0.04568698
3624.22905395,0.04436418
3626.15786133,0.04643064
3628.08666870,0.03934230
3630.01547607,0.03554894
3631.94428345,0.04497422
3633.87309082,0.04390241
3635.80189819,0.04457366
3637.73070557,0.04545906
3639.65951294,0.04482309
3641.58832031,0.04529519
3643.51712769,0.04465561
3645.44593506,0.04505122
3647.37474243,0.04025365
3649.30354980,0.03691691
3651.23235718,0.03742054
3653.16116455,0.04461738
3655.08997192,0.04412435
3657.01877930,0.03932803
3658.94758667,0.04537341
3660.87639404,0.04438689
3662.80520142,0.04506020
3664.73400879,0.04487320
3666.66281616,0.04433507
3668.59162354,0.04310920
3670.52043091,0.03495193
3672.44923828,0.04245266
3674.37804565,0.04042205
3676.30685303,0.03336554
3678.23566040,0.04219149
3680.16446777,0.04314061
3682.09327515,0.04318808
3684.02208252,0.04440995
3685.95088989,0.04371217
3687.87969727,0.03934212
3689.80850464,0.03594185
3691.73731201,0.04105415
3693.66611938,0.04243258
3695.59492676,0.04348915
3697.52373413,0.04327476
3699.45254150,0.04289724
3701.38134888,0.04179361
3703.31015625,0.04008880
3705.23896362,0.04425806
3707.16777100,0.04209638
3709.09657837,0.04103899
3711.02538574,0.03858557
3712.95419312,0.03608448
3714.88300049,0.04239269
3716.81180786,0.04176608
3718.74061523,0.04207032
3720.66942261,0.04117766
3722.59822998,0.03974425
3724.52703735,0.04119360
3726.45584473,0.03816228
3728.38465210,0.04141460
3730.31345947,0.04097456
3732.24226685,0.03764974
3734.17107422,0.03672503
3736.09988159,0.03473996
3738.02868896,0.03681322
3739.95749634,0.04007449
3741.88630371,0.04194324
3743.81511108,0.03245400
3745.74391846,0.03058668
3747.67272583,0.03983195
3749.60153320,0.03416993
3751.53034058,0.03140315
3753.45914795,0.03624562
3755.38795532,0.03898911
3757.31676270,0.04051384
3759.24557007,0.03739205
3761.17437744,0.03882296
3763.10318481,0.04135801
3765.03199219,0.03843494
3766.96079956,0.03938408
3768.88960693,0.03893895
3770.81841431,0.03698017
3772.74722168,0.04007874
3774.67602905,0.04014719
3776.60483643,0.04020128
3778.53364380,0.03905408
3780.46245117,0.03747208
3782.39125854,0.04002542
3784.32006592,0.03907365
3786.24887329,0.03887449
3788.17768066,0.03975143
3790.10648804,0.03951592
3792.03529541,0.03920612
3793.96410278,0.03986552
3795.89291016,0.03749232
3797.82171753,0.03693675
3799.75052490,0.03896681
3801.67933228,0.03075287
3803.60813965,0.03606268
3805.53694702,0.03922874
3807.46575439,0.03185797
3809.39456177,0.03878542
3811.32336914,0.03799964
3813.25217651,0.03934278
3815.18098389,0.03549843
3817.10979126,0.03099168
3819.03859863,0.03931078
3820.96740601,0.03162523
3822.89621338,0.03337503
3824.82502075,0.03907511
3826.75382812,0.03519241
3828.68263550,0.03803295
3830.61144287,0.03652139
3832.54025024,0.03524083
3834.46905762,0.03592950
3836.39786499,0.03410346
3838.32667236,0.03078163
3840.25547974,0.03324991
3842.18428711,0.03592987
3844.11309448,0.03436583
3846.04190186,0.03723276
3847.97070923,0.03664596
3849.89951660,0.03668775
3851.82832397,0.03297953
3853.75713135,0.02462215
3855.68593872,0.02910626
3857.61474609,0.03666927
3859.54355347,0.03575064
3861.47236084,0.03525338
3863.40116821,0.03451914
3865.32997559,0.03188190
3867.25878296,0.03585701
3869.18759033,0.03274495
3871.11639770,0.03006986
3873.04520508,0.03598955
3874.97401245,0.03285252
3876.90281982,0.03554123
3878.83162720,0.03637232
3880.76043457,0.03097207
3882.68924194,0.03574062
3884.61804932,0.03347453
3886.54685669,0.03068814
3888.47566406,0.03580496
3890.40447144,0.03388091
3892.33327881,0.03178160
3894.26208618,0.03486219
3896.19089355,0.03547637
3898.11970093,0.03371287
3900.04850830,0.03193431
3901.97731567,0.03149501
3903.90612305,0.03112857
3905.83493042,0.03164782
3907.76373779,0.03477433
3909.69254517,0.03469057
3911.62135254,0.03422825
3913.55015991,0.03500076
3915.47896728,0.03375668
3917.40777466,0.03278671
3919.33658203,0.03256704
3921.26538940,0.03377271
3923.19419678,0.03361779
3925.12300415,0.03296513
3927.05181152,0.03359920
3928.98061890,0.03378305
3930.90942627,0.03309418
3932.83823364,0.03197813
3934.76704102,0.03329543
3936.69584839,0.03374543
3938.62465576,0.03334154
3940.55346313,0.03358294
3942.48227051,0.03235605
3944.41107788,0.03260129
3946.33988525,0.03319811
3948.26869263,0.03238133
3950.19750000,0.03235963
3952.12630737,0.03284217
3954.05511475,0.03276813
3955.98392212,0.03287131
3957.91272949,0.03268491
3959.84153687,0.03256318
3961.77034424,0.03256355
3963.69915161,0.03222058
3965.62795898,0.03261287
3967.55676636,0.03248534
3969.48557373,0.03237341
3971.41438110,0.03228507
3973.34318848,0.03211289
3975.27199585,0.03214791
3977.20080322,0.03190934
3979.12961060,0.03225737
3981.05841797,0.03190897
3982.98722534,0.03184657
3984.91603271,0.03189923
3986.84484009,0.03171790
3988.77364746,0.03176504
3990.70245483,0.03142621
3992.63126221,0.03165754
3994.56006958,0.03139751
3996.48887695,0.03139424
3998.41768433,0.03142877
4000.34649170,0.03127212
4002.27529907,0.03135785
4004.20410645,0.03109187
4006.13291382,0.03118392
4008.06172119,0.03085828
4009.99052856,0.03088078
4011.91933594,0.03093065
4013.84814331,0.03081809
4015.77695068,0.03083098
4017.70575806,0.03063295
4019.63456543,0.03063144
4021.56337280,0.03041294
4023.49218018,0.03057963
4025.42098755,0.03038533
4027.34979492,0.03032950
4029.27860229,0.03036664
4031.20740967,0.03015836
4033.13621704,0.03025053
4035.06502441,0.02994186
4036.99383179,0.03005278
4038.92263916,0.02996641
4040.85144653,0.02993969
4042.78025391,0.02992098
4044.70906128,0.02968163
4046.63786865,0.02975087
4048.56667603,0.02962159
4050.49548340,0.02967340
4052.42429077,0.02945598
4054.35309814,0.02939513
4056.28190552,0.02931640
4058.21071289,0.02930882
4060.13952026,0.02934741
4062.06832764,0.02913555
4063.99713501,0.02924831
4065.92594238,0.02899613
4067.85474976,0.02898786
4069.78355713,0.02892764
4071.71236450,0.02880437
4073.64117187,0.02879708
4075.56997925,0.02873784
4077.49878662,0.02871709
4079.42759399,0.02847379
4081.35640137,0.02855728
4083.28520874,0.02837356
4085.21401611,0.02847914
4087.14282349,0.02839223
4089.07163086,0.02816661
4091.00043823,0.02827869
4092.92924561,0.02801812
4094.85805298,0.02814787
4096.78686035,0.02799793
4098.71566772,0.02801606
4100.64447510,0.02788955
4102.57328247,0.02775098
4104.50208984,0.02791769
4106.43089722,0.02756733
4108.35970459,0.02767224
4110.28851196,0.02755679
4112.21731934,0.02751007
4114.14612671,0.02743344
4116.07493408,0.02727864
4118.00374145,0.02744094
4119.93254883,0.02729155
4121.86135620,0.02726482
4123.79016357,0.02712457
4125.71897095,0.02714920
4127.64777832,0.02702578
4129.57658569,0.02690796
4131.50539307,0.02690304
4133.43420044,0.02675734
4135.36300781,0.02676997
4137.29181519,0.02660904
4139.22062256,0.02665081
4141.14942993,0.02653692
4143.07823730,0.02650857
4145.00704468,0.02646066
4146.93585205,0.02635855
4148.86465942,0.02641800
4150.79346680,0.02631170
4152.72227417,0.02630901
4154.65108154,0.02603252
4156.57988892,0.02605051
4158.50869629,0.02599135
4160.43750366,0.02590935
4162.36631103,0.02598150
4164.29511841,0.02579632
4166.22392578,0.02583145
4168.15273315,0.02569181
4170.08154053,0.02572075
4172.01034790,0.02559713
4173.93915527,0.02551429
4175.86796265,0.02546348
4177.79677002,0.02531446
4179.72557739,0.02546835
4181.65438477,0.02531898
4183.58319214,0.02531366
4185.51199951,0.02516925
4187.44080688,0.02513951
4189.36961426,0.02510746
4191.29842163,0.02494752
4193.22722900,0.02498098
4195.15603638,0.02485995
4197.08484375,0.02495031
4199.01365112,0.02474444
4200.94245850,0.02474379
4202.87126587,0.02470549
4204.80007324,0.02461249
4206.72888062,0.02466459
4208.65768799,0.02443290
4210.58649536,0.02459887
4212.51530273,0.02438027
4214.44411011,0.02426561
4216.37291748,0.02436802
4218.30172485,0.02421523
4220.23053223,0.02409773
4222.15933960,0.02400526
4224.08814697,0.02407369
4226.01695435,0.02396027
4227.94576172,0.02403548
4229.87456909,0.02387113
4231.80337646,0.02378196
4233.73218384,0.02386424
4235.66099121,0.02368790
4237.58979858,0.02366166
4239.51860596,0.02359046
4241.44741333,0.02362124
4243.37622070,0.02344284
4245.30502808,0.02349418
4247.23383545,0.02351598
4249.16264282,0.02332177
4251.09145020,0.02329279
4253.02025757,0.02318956
4254.94906494,0.02323830
4256.87787231,0.02309216
4258.80667969,0.02315442
4260.73548706,0.02306307
4262.66429443,0.02297934
4264.59310181,0.02293201
4266.52190918,0.02270715
4268.45071655,0.02289682
4270.37952393,0.02274011
4272.30833130,0.02278815
4274.23713867,0.02272614
4276.16594604,0.02263829
4278.09475342,0.02269407
4280.02356079,0.02246471
4281.95236816,0.02257723
4283.88117554,0.02240000
4285.80998291,0.02242341
4287.73879028,0.02239649
4289.66759766,0.02219318
4291.59640503,0.02218289
4293.52521240,0.02213393
4295.45401978,0.02214671
4297.38282715,0.02188166
4299.31163452,0.02198445
4301.24044189,0.02192305
4303.16924927,0.02179695
4305.09805664,0.02191329
4307.02686401,0.02178975
4308.95567139,0.02178412
4310.88447876,0.02171051
4312.81328613,0.02166494
4314.74209351,0.02151613
4316.67090088,0.02155014
4318.59970825,0.02154326
4320.52851562,0.02142659
4322.45732300,0.02142089
4324.38613037,0.02124103
4326.31493774,0.02128971
4328.24374512,0.02121971
4330.17255249,0.02120072
4332.10135986,0.02115420
4334.03016724,0.02105754
4335.95897461,0.02105763
4337.88778198,0.02094582
4339.81658936,0.02094530
4341.74539673,0.02083199
4343.67420410,0.02091224
4345.60301147,0.02079554
4347.53181885,0.02067670
4349.46062622,0.02080690
4351.38943359,0.02062061
4353.31824097,0.02055426
4355.24704834,0.02047528
4357.17585571,0.02040148
4359.10466309,0.02047324
4361.03347046,0.02047501
4362.96227783,0.02033814
4364.89108520,0.02029070
4366.81989258,0.02026900
4368.74869995,0.02018502
4370.67750732,0.02018693
4372.60631470,0.02007066
4374.53512207,0.02005075
4376.46392944,0.01995162
4378.39273682,0.01991934
4380.32154419,0.01995539
4382.25035156,0.01986489
4384.17915894,0.01982052
4386.10796631,0.01975601
4388.03677368,0.01980837
4389.96558105,0.01965489
4391.89438843,0.01960297
4393.82319580,0.01959053
4395.75200317,0.01953901
4397.68081055,0.01955083
4399.60961792,0.01938110
4401.53842529,0.01939544
4403.46723267,0.01926905
4405.39604004,0.01924472
4407.32484741,0.01925138
4409.25365478,0.01919818
4411.18246216,0.01919653
4413.11126953,0.01906779
4415.04007690,0.01913998
4416.96888428,0.01902907
4418.89769165,0.01898413
4420.82649902,0.01892318
4422.75530640,0.01884453
4424.68411377,0.01885360
4426.61292114,0.01870077
4428.54172852,0.01871996
4430.47053589,0.01872519
4432.39934326,0.01874184
4434.32815063,0.01855379
4436.25695801,0.01854016
4438.18576538,0.01854649
4440.11457275,0.01836602
4442.04338013,0.01850968
4443.97218750,0.01837137
4445.90099487,0.01831134
4447.82980225,0.01831211
4449.75860962,0.01824489
4451.68741699,0.01823981
4453.61622437,0.01817618
4455.54503174,0.01819381
4457.47383911,0.01799838
4459.40264648,0.01802621
4461.33145386,0.01804884
4463.26026123,0.01785638
4465.18906860,0.01787291
4467.11787598,0.01788343
4469.04668335,0.01777669
4470.97549072,0.01775231
4472.90429810,0.01774690
4474.83310547,0.01764232
4476.76191284,0.01768412
4478.69072021,0.01758084
4480.61952759,0.01749644
4482.54833496,0.01749761
4484.47714233,0.01741406
4486.40594971,0.01734847
4488.33475708,0.01724354
4490.26356445,0.01728782
4492.19237183,0.01719637
4494.12117920,0.01719623
4496.04998657,0.01714833
4497.97879395,0.01709080
4499.90760132,0.01719511
4501.83640869,0.01705146
4503.76521606,0.01708569
4505.69402344,0.01696638
4507.62283081,0.01686116
4509.55163818,0.01686713
4511.48044556,0.01679832
4513.40925293,0.01690596
4515.33806030,0.01679583
4517.26686768,0.01673783
4519.19567505,0.01668864
4521.12448242,0.01659497
4523.05328979,0.01660702
4524.98209717,0.01657426
4526.91090454,0.01648376
4528.83971191,0.01648214
4530.76851929,0.01654733
4532.69732666,0.01643486
4534.62613403,0.01639190
4536.55494141,0.01622697
4538.48374878,0.01618839
4540.41255615,0.01627210
4542.34136353,0.01611872
4544.27017090,0.01614117
4546.19897827,0.01608580
4548.12778564,0.01599373
4550.05659302,0.01602597
4551.98540039,0.01595872
4553.91420776,0.01586619
4555.84301514,0.01588662
4557.77182251,0.01586754
4559.70062988,0.01582756
4561.62943726,0.01580888
4563.55824463,0.01572935
4565.48705200,0.01573671
4567.41585937,0.01561776
4569.34466675,0.01564535
4571.27347412,0.01558786
4573.20228149,0.01549412
4575.13108887,0.01562839
4577.05989624,0.01538260
4578.98870361,0.01535013
4580.91751099,0.01534845
4582.84631836,0.01528123
4584.77512573,0.01538654
4586.70393311,0.01528621
4588.63274048,0.01528630
4590.56154785,0.01519600
4592.49035522,0.01515179
4594.41916260,0.01514447
4596.34796997,0.01506875
4598.27677734,0.01509622
4600.20558472,0.01500097
4602.13439209,0.01493715
4604.06319946,0.01493343
4605.99200684,0.01488472
4607.92081421,0.01485771
4609.84962158,0.01484848
4611.77842895,0.01473797
4613.70723633,0.01473409
4615.63604370,0.01477127
4617.56485107,0.01464630
4619.49365845,0.01457805
4621.42246582,0.01456183
4623.35127319,0.01451093
4625.28008057,0.01444969
4627.20888794,0.01450517
4629.13769531,0.01442881
4631.06650269,0.01434009
4632.99531006,0.01430113
4634.92411743,0.01420926
4636.85292480,0.01429624
4638.78173218,0.01428890
4640.71053955,0.01423269
4642.63934692,0.01412513
4644.56815430,0.01413844
4646.49696167,0.01415633
4648.42576904,0.01404500
4650.35457642,0.01407063
4652.28338379,0.01399100
4654.21219116,0.01401376
4656.14099853,0.01388923
4658.06980591,0.01378627
4659.99861328,0.01384554
4661.92742065,0.01383023
4663.85622803,0.01388553
4665.78503540,0.01376783
4667.71384277,0.01379594
4669.64265015,0.01372895
4671.57145752,0.01357136
4673.50026489,0.01356005
4675.42907227,0.01357565
4677.35787964,0.01359137
4679.28668701,0.01348898
4681.21549438,0.01351817
4683.14430176,0.01334544
4685.07310913,0.01333077
4687.00191650,0.01338960
4688.93072388,0.01327774
4690.85953125,0.01335992
4692.78833862,0.01324754
4694.71714600,0.01324817
4696.64595337,0.01322526
4698.57476074,0.01311146
4700.50356812,0.01311056
4702.43237549,0.01309702
4704.36118286,0.01309195
4706.28999023,0.01305631
4708.21879761,0.01306509
4710.14760498,0.01298031
4712.07641235,0.01295146
4714.00521973,0.01284825
4715.93402710,0.01286228
4717.86283447,0.01289060
4719.79164185,0.01276264
4721.72044922,0.01285230
4723.64925659,0.01281079
4725.57806396,0.01283707
4727.50687134,0.01275353
4729.43567871,0.01262782
4731.36448608,0.01265655
4733.29329346,0.01256995
4735.22210083,0.01253203
4737.15090820,0.01244688
4739.07971558,0.01255200
4741.00852295,0.01252932
4742.93733032,0.01243310
4744.86613770,0.01244594
4746.79494507,0.01232221
4748.72375244,0.01232581
4750.65255981,0.01230264
4752.58136719,0.01227733
4754.51017456,0.01223895
4756.43898193,0.01220427
4758.36778931,0.01215831
4760.29659668,0.01216658
4762.22540405,0.01220055
4764.15421143,0.01209155
4766.08301880,0.01204360
4768.01182617,0.01198547
4769.94063354,0.01207675
4771.86944092,0.01202270
4773.79824829,0.01189623
4775.72705566,0.01191431
4777.65586304,0.01187444
4779.58467041,0.01195396
4781.51347778,0.01180678
4783.44228516,0.01172890
4785.37109253,0.01182540
4787.29989990,0.01178002
4789.22870728,0.01178349
4791.15751465,0.01172662
4793.08632202,0.01162735
4795.01512939,0.01169339
4796.94393677,0.01167974
4798.87274414,0.01146352
4800.80155151,0.01150743
4802.73035889,0.01151759
4804.65916626,0.01150230
4806.58797363,0.01148955
4808.51678101,0.01135733
4810.44558838,0.01147333
4812.37439575,0.01136780
4814.30320312,0.01129483
4816.23201050,0.01128425
4818.16081787,0.01116852
4820.08962524,0.01122678
4822.01843262,0.01116182
4823.94723999,0.01111805
4825.87604736,0.01111912
4827.80485474,0.01117892
4829.73366211,0.01113968
4831.66246948,0.01102518
4833.59127686,0.01102550
4835.52008423,0.01101600
4837.44889160,0.01105621
4839.37769897,0.01097535
4841.30650635,0.01095730
4843.23531372,0.01101562
4845.16412109,0.01091161
4847.09292847,0.01078222
4849.02173584,0.01082924
4850.95054321,0.01083853
4852.87935059,0.01074504
4854.80815796,0.01077247
4856.73696533,0.01069565
4858.66577270,0.01070031
4860.59458008,0.01069061
4862.52338745,0.01058634
4864.45219482,0.01054888
4866.38100220,0.01053580
4868.30980957,0.01061276
4870.23861694,0.01052784
4872.16742432,0.01044248
4874.09623169,0.01042190
4876.02503906,0.01046645
4877.95384644,0.01045526
4879.88265381,0.01036347
4881.81146118,0.01039826
4883.74026855,0.01032555
4885.66907593,0.01032808
4887.59788330,0.01029909
4889.52669067,0.01025251
4891.45549805,0.01023626
4893.38430542,0.01015415
4895.31311279,0.01018622
4897.24192017,0.01014786
4899.17072754,0.01010988
4901.09953491,0.01006829
4903.02834228,0.01003763
4904.95714966,0.01002296
4906.88595703,0.01002287
4908.81476440,0.01001887
4910.74357178,0.00993359
4912.67237915,0.00991663
4914.60118652,0.00992087
4916.52999390,0.00993427
4918.45880127,0.00985861
4920.38760864,0.00983614
4922.31641602,0.00977527
4924.24522339,0.00974582
4926.17403076,0.00976619
4928.10283813,0.00962496
4930.03164551,0.00970186
4931.96045288,0.00965136
4933.88926025,0.00966381
4935.81806763,0.00964072
4937.74687500,0.00946292
4939.67568237,0.00961785
4941.60448975,0.00951890
4943.53329712,0.00948766
4945.46210449,0.00950619
4947.39091187,0.00938555
4949.31971924,0.00944166
4951.24852661,0.00936547
4953.17733398,0.00933237
4955.10614136,0.00937082
4957.03494873,0.00931979
4958.96375610,0.00928385
4960.89256348,0.00933862
4962.82137085,0.00923283
4964.75017822,0.00913425
4966.67898560,0.00919804
4968.60779297,0.00917660
4970.53660034,0.00920601
4972.46540771,0.00915162
4974.39421509,0.00909737
4976.32302246,0.00908615
4978.25182983,0.00904457
4980.18063721,0.00903481
4982.10944458,0.00902847
4984.03825195,0.00900743
4985.96705933,0.00894793
4987.89586670,0.00900156
4989.82467407,0.00896924
4991.75348145,0.00889711
4993.68228882,0.00885062
4995.61109619,0.00880877
4997.53990356,0.00879372
4999.46871094,0.00876354
5001.39751831,0.00878405
5003.32632568,0.00868398
5005.25513306,0.00876277
5007.18394043,0.00880229
5009.11274780,0.00868154
5011.04155518,0.00864109
5012.97036255,0.00855810
5014.89916992,0.00864247
5016.82797729,0.00863204
5018.75678467,0.00856248
5020.68559204,0.00856783
5022.61439941,0.00857294
5024.54320679,0.00855589
5026.47201416,0.00849488
5028.40082153,0.00848079
5030.32962891,0.00841300
5032.25843628,0.00837075
5034.18724365,0.00827187
5036.11605103,0.00837803
5038.04485840,0.00841680
5039.97366577,0.00826527
5041.90247314,0.00832939
5043.83128052,0.00825780
5045.76008789,0.00831077
5047.68889526,0.00826830
5049.61770264,0.00814047
5051.54651001,0.00827520
5053.47531738,0.00823373
5055.40412476,0.00809425
5057.33293213,0.00806364
5059.26173950,0.00814787
5061.19054687,0.00806426
5063.11935425,0.00799587
5065.04816162,0.00802284
5066.97696899,0.00796653
5068.90577637,0.00799131
5070.83458374,0.00796059
5072.76339111,0.00797462
5074.69219849,0.00795468
5076.62100586,0.00784299
5078.54981323,0.00786100
5080.47862061,0.00792635
5082.40742798,0.00783231
5084.33623535,0.00779391
5086.26504272,0.00785811
5088.19385010,0.00779226
5090.12265747,0.00783416
5092.05146484,0.00779627
5093.98027222,0.00772117
5095.90907959,0.00768553
5097.83788696,0.00762034
5099.76669434,0.00765232
5101.69550171,0.00759370
5103.62430908,0.00764078
5105.55311645,0.00763016
5107.48192383,0.00753244
5109.41073120,0.00752353
5111.33953857,0.00755096
5113.26834595,0.00759201
5115.19715332,0.00747339
5117.12596069,0.00746404
5119.05476807,0.00746462
5120.98357544,0.00742035
5122.91238281,0.00744340
5124.84119019,0.00740030
5126.76999756,0.00735507
5128.69880493,0.00730056
5130.62761230,0.00729592
5132.55641968,0.00727793
5134.48522705,0.00727045
5136.41403442,0.00728605
5138.34284180,0.00726980
5140.27164917,0.00721696
5142.20045654,0.00717062
5144.12926392,0.00722048
5146.05807129,0.00724794
5147.98687866,0.00720261
5149.91568603,0.00709177
5151.84449341,0.00709629
5153.77330078,0.00712102
5155.70210815,0.00705603
5157.63091553,0.00704581
5159.55972290,0.00704812
5161.48853027,0.00704669
5163.41733765,0.00697500
5165.34614502,0.00699892
5167.27495239,0.00703319
5169.20375977,0.00697546
5171.13256714,0.00698141
5173.06137451,0.00695465
5174.99018188,0.00688664
5176.91898926,0.00683977
5178.84779663,0.00684752
5180.77660400,0.00681381
5182.70541138,0.00681842
5184.63421875,0.00680903
5186.56302612,0.00675720
5188.49183350,0.00676691
5190.42064087,0.00670769
5192.34944824,0.00673833
5194.27825562,0.00678299
5196.20706299,0.00669938
5198.13587036,0.00660887
5200.06467773,0.00662179
5201.99348511,0.00668666
5203.92229248,0.00667156
5205.85109985,0.00652651
5207.77990723,0.00642930
5209.70871460,0.00655006
5211.63752197,0.00653142
5213.56632935,0.00659199
5215.49513672,0.00665165
5217.42394409,0.00646465
5219.35275146,0.00642836
5221.28155884,0.00646530
5223.21036621,0.00649954
5225.13917358,0.00631800
5227.06798096,0.00631895
5228.99678833,0.00646919
5230.92559570,0.00635550
5232.85440308,0.00642854
5234.78321045,0.00638744
5236.71201782,0.00637264
5238.64082520,0.00641752
5240.56963257,0.00633348
5242.49843994,0.00638173
5244.42724731,0.00626981
5246.35605469,0.00615967
5248.28486206,0.00609403
5250.21366943,0.00613510
5252.14247681,0.00632674
5254.07128418,0.00619680
5256.00009155,0.00608553
5257.92889893,0.00619455
5259.85770630,0.00617917
5261.78651367,0.00609876
5263.71532104,0.00595762
5265.64412842,0.00601794
5267.57293579,0.00618571
5269.50174316,0.00602098
5271.43055054,0.00604668
5273.35935791,0.00612180
5275.28816528,0.00605654
5277.21697266,0.00610837
5279.14578003,0.00597726
5281.07458740,0.00593937
5283.00339478,0.00595577
5284.93220215,0.00587012
5286.86100952,0.00592020
5288.78981689,0.00596073
5290.71862427,0.00585351
5292.64743164,0.00578881
5294.57623901,0.00588393
5296.50504639,0.00588487
5298.43385376,0.00583076
5300.36266113,0.00578160
5302.29146851,0.00580041
5304.22027588,0.00583344
5306.14908325,0.00575301
5308.07789062,0.00567922
5310.00669800,0.00567298
5311.93550537,0.00577941
5313.86431274,0.00573652
5315.79312012,0.00570649
5317.72192749,0.00569835
5319.65073486,0.00561791
5321.57954224,0.00567598
5323.50834961,0.00565618
5325.43715698,0.00557368
5327.36596436,0.00543845
5329.29477173,0.00553578
5331.22357910,0.00561608
5333.15238647,0.00546155
5335.08119385,0.00559342
5337.01000122,0.00549725
5338.93880859,0.00521440
5340.86761597,0.00542350
5342.79642334,0.00555558
5344.72523071,0.00525543
5346.65403809,0.00532077
5348.58284546,0.00543213
5350.51165283,0.00531923
5352.44046020,0.00536594
5354.36926758,0.00519279
5356.29807495,0.00528143
5358.22688232,0.00536148
5360.15568970,0.00525898
5362.08449707,0.00533837
5364.01330444,0.00521311
5365.94211182,0.00524798
5367.87091919,0.00521825
5369.79972656,0.00520194
5371.72853394,0.00529459
5373.65734131,0.00518854
5375.58614868,0.00511492
5377.51495605,0.00502326
5379.44376343,0.00515377
5381.37257080,0.00522728
5383.30137817,0.00513017
5385.23018555,0.00511577
5387.15899292,0.00506598
5389.08780029,0.00509914
5391.01660767,0.00515754
5392.94541504,0.00504076
5394.87422241,0.00490357
5396.80302978,0.00500762
5398.73183716,0.00498398
5400.66064453,0.00500536
5402.58945190,0.00510394
5404.51825928,0.00496039
5406.44706665,0.00503946
5408.37587402,0.00500916
5410.30468140,0.00485806
5412.23348877,0.00487773
5414.16229614,0.00477772
5416.09110352,0.00482170
5418.01991089,0.00494346
5419.94871826,0.00490072
5421.87752563,0.00489920
5423.80633301,0.00487490
5425.73514038,0.00483487
5427.66394775,0.00483010
5429.59275513,0.00472073
5431.52156250,0.00480970
5433.45036987,0.00484026
5435.37917725,0.00463426
5437.30798462,0.00477200
5439.23679199,0.00479230
5441.16559936,0.00459151
5443.09440674,0.00471219
5445.02321411,0.00471512
5446.95202148,0.00461016
5448.88082886,0.00469755
5450.80963623,0.00462565
5452.73844360,0.00465618
5454.66725098,0.00470323
5456.59605835,0.00460630
5458.52486572,0.00470478
5460.45367310,0.00451499
5462.38248047,0.00443937
5464.31128784,0.00460110
5466.24009521,0.00453235
5468.16890259,0.00452421
5470.09770996,0.00446831
5472.02651733,0.00458507
5473.95532471,0.00454831
5475.88413208,0.00430675
5477.81293945,0.00439643
5479.74174683,0.00447058
5481.67055420,0.00446864
5483.59936157,0.00450181
5485.52816895,0.00450991
5487.45697632,0.00437408
5489.38578369,0.00440662
5491.31459106,0.00445466
5493.24339844,0.00427948
5495.17220581,0.00432362
5497.10101318,0.00434812
5499.02982056,0.00437008
5500.95862793,0.00438265
5502.88743530,0.00436221
5504.81624268,0.00440149
5506.74505005,0.00428348
5508.67385742,0.00423980
5510.60266479,0.00425668
5512.53147217,0.00424685
5514.46027954,0.00423920
5516.38908691,0.00422321
5518.31789429,0.00421545
5520.24670166,0.00424334
5522.17550903,0.00428613
5524.10431641,0.00425633
5526.03312378,0.00421715
5527.96193115,0.00419671
5529.89073853,0.00423546
5531.81954590,0.00416664
5533.74835327,0.00413188
5535.67716064,0.00414819
5537.60596802,0.00410792
5539.53477539,0.00416520
5541.46358276,0.00407225
5543.39239014,0.00409690
5545.32119751,0.00419083
5547.25000488,0.00409700
5549.17881226,0.00404269
5551.10761963,0.00400945
5553.03642700,0.00400885
5554.96523437,0.00395250
5556.89404175,0.00400274
5558.82284912,0.00408400
5560.75165649,0.00405833
5562.68046387,0.00403587
5564.60927124,0.00395380
5566.53807861,0.00394642
5568.46688599,0.00390610
5570.39569336,0.00389532
5572.32450073,0.00395412
5574.25330811,0.00394042
5576.18211548,0.00394839
5578.11092285,0.00387492
5580.03973022,0.00387255
5581.96853760,0.00394977
5583.89734497,0.00386292
5585.82615234,0.00384404
5587.75495972,0.00387614
5589.68376709,0.00383479
5591.61257446,0.00385240
5593.54138184,0.00382210
5595.47018921,0.00381568
5597.39899658,0.00382666
5599.32780395,0.00381220
5601.25661133,0.00383926
5603.18541870,0.00376458
5605.11422607,0.00377210
5607.04303345,0.00376929
5608.97184082,0.00370670
5610.90064819,0.00374500
5612.82945557,0.00369766
5614.75826294,0.00370786
5616.68707031,0.00373221
5618.61587769,0.00369450
5620.54468506,0.00371755
5622.47349243,0.00365545
5624.40229980,0.00363734
5626.33110718,0.00366116
5628.25991455,0.00354073
5630.18872192,0.00359523
5632.11752930,0.00365664
5634.04633667,0.00356404
5635.97514404,0.00362727
5637.90395142,0.00356669
5639.83275879,0.00354182
5641.76156616,0.00360137
5643.69037353,0.00359318
5645.61918091,0.00360675
5647.54798828,0.00352095
5649.47679565,0.00358211
5651.40560303,0.00348046
5653.33441040,0.00345024
5655.26321777,0.00361957
5657.19202515,0.00347509
5659.12083252,0.00349480
5661.04963989,0.00353515
5662.97844727,0.00347622
5664.90725464,0.00344666
5666.83606201,0.00339661
5668.76486938,0.00344177
5670.69367676,0.00344237
5672.62248413,0.00344126
5674.55129150,0.00337778
5676.48009888,0.00332973
5678.40890625,0.00334916
5680.33771362,0.00339834
5682.26652100,0.00340336
5684.19532837,0.00335918
5686.12413574,0.00335539
5688.05294311,0.00331251
5689.98175049,0.00337678
5691.91055786,0.00334305
5693.83936523,0.00327821
5695.76817261,0.00330806
5697.69697998,0.00328470
5699.62578735,0.00325578
5701.55459473,0.00321913
5703.48340210,0.00328100
5705.41220947,0.00322534
5707.34101685,0.00319118
5709.26982422,0.00320508
5711.19863159,0.00320567
5713.12743896,0.00324690
5715.05624634,0.00316298
5716.98505371,0.00321964
5718.91386108,0.00316377
5720.84266846,0.00310988
5722.77147583,0.00311640
5724.70028320,0.00305756
5726.62909058,0.00319626
5728.55789795,0.00316587
5730.48670532,0.00314012
5732.41551270,0.00313929
5734.34432007,0.00312811
5736.27312744,0.00314447
5738.20193481,0.00303070
5740.13074219,0.00306950
5742.05954956,0.00303524
5743.98835693,0.00305341
5745.91716431,0.00308068
5747.84597168,0.00296914
5749.77477905,0.00304163
5751.70358643,0.00300545
5753.63239380,0.00301117
5755.56120117,0.00308876
5757.49000854,0.00302536
5759.41881592,0.00305645
5761.34762329,0.00300769
5763.27643066,0.00296887
5765.20523804,0.00299164
5767.13404541,0.00290725
5769.06285278,0.00290302
5770.99166016,0.00291864
5772.92046753,0.00297115
5774.84927490,0.00295373
5776.77808228,0.00291944
5778.70688965,0.00295517
5780.63569702,0.00280070
5782.56450439,0.00287549
5784.49331177,0.00296508
5786.42211914,0.00285332
5788.35092651,0.00287545
5790.27973389,0.00283304
5792.20854126,0.00284975
5794.13734863,0.00281148
5796.06615601,0.00278497
5797.99496338,0.00285241
5799.92377075,0.00278472
5801.85257812,0.00274515
5803.78138550,0.00274021
5805.71019287,0.00279967
5807.63900024,0.00279656
5809.56780762,0.00276491
5811.49661499,0.00275659
5813.42542236,0.00267724
5815.35422974,0.00267339
5817.28303711,0.00270469
5819.21184448,0.00272109
5821.14065186,0.00270890
5823.06945923,0.00269548
5824.99826660,0.00264447
5826.92707397,0.00267440
5828.85588135,0.00270905
5830.78468872,0.00261705
5832.71349609,0.00261723
5834.64230347,0.00263629
5836.57111084,0.00265690
5838.49991821,0.00260364
5840.42872559,0.00261885
5842.35753296,0.00268273
5844.28634033,0.00261339
5846.21514770,0.00262231
5848.14395508,0.00258681
5850.07276245,0.00258055
5852.00156982,0.00258253
5853.93037720,0.00256178
5855.85918457,0.00257648
5857.78799194,0.00254800
5859.71679932,0.00255237
5861.64560669,0.00252342
5863.57441406,0.00254625
5865.50322144,0.00251832
5867.43202881,0.00248947
5869.36083618,0.00252250
5871.28964355,0.00252532
5873.21845093,0.00252788
5875.14725830,0.00246671
5877.07606567,0.00250175
5879.00487305,0.00245437
5880.93368042,0.00242426
5882.86248779,0.00244194
5884.79129517,0.00232101
5886.72010254,0.00239727
5888.64890991,0.00248617
5890.57771728,0.00246657
5892.50652466,0.00245589
5894.43533203,0.00241694
5896.36413940,0.00240091
5898.29294678,0.00242269
5900.22175415,0.00237065
5902.15056152,0.00233937
5904.07936890,0.00241409
5906.00817627,0.00232284
5907.93698364,0.00233438
5909.86579102,0.00236028
5911.79459839,0.00226014
5913.72340576,0.00237496
5915.65221313,0.00237522
5917.58102051,0.00232790
5919.50982788,0.00238069
5921.43863525,0.00231921
5923.36744263,0.00229078
5925.29625000,0.00230224
5927.22505737,0.00227291
5929.15386475,0.00231190
5931.08267212,0.00233345
5933.01147949,0.00223453
5934.94028686,0.00226415
5936.86909424,0.00232688
5938.79790161,0.00226060
5940.72670898,0.00226597
5942.65551636,0.00223366
5944.58432373,0.00214060
5946.51313110,0.00219669
5948.44193848,0.00222324
5950.37074585,0.00218280
5952.29955322,0.00223766
5954.22836060,0.00221764
5956.15716797,0.00219449
5958.08597534,0.00222030
5960.01478271,0.00218276
5961.94359009,0.00216700
5963.87239746,0.00212163
5965.80120483,0.00211577
5967.73001221,0.00217321
5969.65881958,0.00212265
5971.58762695,0.00206155
5973.51643433,0.00214166
5975.44524170,0.00219252
5977.37404907,0.00215692
5979.30285645,0.00215686
5981.23166382,0.00211391
5983.16047119,0.00207477
5985.08927856,0.00211392
5987.01808594,0.00210219
5988.94689331,0.00205632
5990.87570068,0.00210097
5992.80450806,0.00206730
5994.73331543,0.00202905
5996.66212280,0.00206285
5998.59093018,0.00200835
6000.51973755,0.00205869
