399.26312622,0.00113357
401.19193359,0.00126456
403.12074097,0.00151107
405.04954834,0.00172813
406.97835571,0.00179234
408.90716309,0.00181763
410.83597046,0.00161239
412.76477783,0.00176640
414.69358521,0.00181070
416.62239258,0.00169775
418.55119995,0.00136435
420.48000732,0.00182014
422.40881470,0.00197716
424.33762207,0.00125734
426.26642944,0.00181351
428.19523682,0.00166546
430.12404419,0.00145265
432.05285156,0.00173461
433.98165894,0.00154060
435.91046631,0.00167031
437.83927368,0.00173961
439.76808105,0.00204308
441.69688843,0.00165825
443.62569580,0.00154719
445.55450317,0.00180115
447.48331055,0.00144673
449.41211792,0.00123749
451.34092529,0.00110447
453.26973267,0.00162234
455.19854004,0.00152306
457.12734741,0.00137731
459.05615479,0.00152922
460.98496216,0.00140351
462.91376953,0.00156360
464.84257690,0.00104462
466.77138428,0.00113832
468.70019165,0.00107186
470.62899902,0.00028317
472.55780640,0.00044980
474.48661377,0.00093645
476.41542114,0.00079349
478.34422852,0.00027936
480.27303589,0.00052245
482.20184326,0.00045809
484.13065063,0.00028691
486.05945801,0.00056273
487.98826538,0.00022772
489.91707275,-0.00017841
491.84588013,0.00010569
493.77468750,0.00058167
495.70349487,0.00030226
497.63230225,0.00010622
499.56110962,0.00015369
501.48991699,0.00036542
503.41872437,0.00045537
505.34753174,0.00006746
507.27633911,0.00032110
509.20514648,0.00019710
511.13395386,0.00014358
513.06276123,0.00054802
514.99156860,0.00029451
516.92037598,0.00001378
518.84918335,0.00011302
520.77799072,0.00035819
522.70679810,0.00032114
524.63560547,0.00013614
526.56441284,0.00032111
528.49322021,0.00055394
530.42202759,-0.00012988
532.35083496,-0.00007849
534.27964233,0.00077941
536.20844971,0.00025379
538.13725708,0.00009307
540.06606445,0.00012168
541.99487183,0.00003002
543.92367920,-0.00005528
545.85248657,0.00004426
547.78129395,0.00023054
549.71010132,-0.00042767
551.63890869,-0.00014028
553.56771606,0.00018987
555.49652344,-0.00010334
557.42533081,-0.00014476
559.35413818,0.00018939
561.28294556,0.00049797
563.21175293,0.00030806
565.14056030,0.00013983
567.06936768,0.00013720
568.99817505,0.00017839
570.92698242,0.00000045
572.85578979,0.00004236
574.78459717,0.00027806
576.71340454,0.00018920
578.64221191,0.00018846
580.57101929,0.00024857
582.49982666,0.00023608
584.42863403,0.00006831
586.35744141,-0.00002458
588.28624878,-0.00005984
590.21505615,0.00002169
592.14386353,0.00004209
594.07267090,0.00001384
596.00147827,0.00019738
597.93028564,0.00018545
599.85909302,0.00021415
601.78790039,0.00013679
603.71670776,0.00030739
605.64551514,0.00014993
607.57432251,0.00015643
609.50312988,0.00028047
611.43193726,-0.00020618
613.36074463,0.00019351
615.28955200,-0.00009948
617.21835938,0.00012284
619.14716675,0.00020505
621.07597412,-0.00017357
623.00478149,0.00010263
624.93358887,-0.00029506
626.86239624,-0.00005592
628.79120361,0.00023745
630.72001099,0.00026190
632.64881836,0.00090379
634.57762573,0.00125261
636.50643311,0.00141931
638.43524048,0.00142482
640.36404785,0.00176023
642.29285522,0.00186358
644.22166260,0.00169305
646.15046997,0.00192699
648.07927734,0.00196025
650.00808472,0.00218038
651.93689209,0.00242202
653.86569946,0.00252319
655.79450684,0.00260842
657.72331421,0.00241091
659.65212158,0.00265464
661.58092896,0.00312049
663.50973633,0.00296742
665.43854370,0.00286102
667.36735107,0.00286478
669.29615845,0.00275528
671.22496582,0.00320188
673.15377319,0.00330134
675.08258057,0.00327873
677.01138794,0.00391690
678.94019531,0.00397237
680.86900269,0.00388880
682.79781006,0.00388399
684.72661743,0.00361790
686.65542480,0.00368736
688.58423218,0.00369490
690.51303955,0.00384171
692.44184692,0.00417002
694.37065430,0.00444802
696.29946167,0.00496396
698.22826904,0.00551925
700.15707642,0.00625243
702.08588379,0.00604506
704.01469116,0.00505769
705.94349854,0.00477950
707.87230591,0.00399357
709.80111328,0.00308149
711.72992065,0.00234241
713.65872803,0.00132397
715.58753540,0.00087302
717.51634277,0.00026364
719.44515015,0.00026060
721.37395752,0.00058823
723.30276489,0.00020903
725.23157227,0.00017586
727.16037964,0.00006695
729.08918701,-0.00000145
731.01799438,-0.00001495
732.94680176,0.00009495
734.87560913,0.00018884
736.80441650,-0.00033546
738.73322388,-0.00022091
740.66203125,0.00012241
742.59083862,0.00012816
744.51964600,0.00014168
746.44845337,0.00005719
748.37726074,0.00017537
750.30606812,0.00007836
752.23487549,0.00016334
754.16368286,0.00017468
756.09249023,-0.00003406
758.02129761,0.00028970
759.95010498,0.00048945
761.87891235,0.00031976
763.80771973,0.00038615
765.73652710,0.00041074
767.66533447,0.00010379
769.59414185,0.00025148
771.52294922,0.00024231
773.45175659,0.00039531
775.38056396,0.00073419
777.30937134,0.00012608
779.23817871,0.00041119
781.16698608,0.00060731
783.09579346,0.00005693
785.02460083,0.00039023
786.95340820,0.00044736
788.88221558,0.00012297
790.81102295,0.00008707
792.73983032,0.00026094
794.66863770,0.00033992
796.59744507,0.00048727
798.52625244,0.00072285
800.45505981,0.00079278
802.38386719,0.00072896
804.31267456,0.00042798
806.24148193,0.00043636
808.17028931,0.00040435
810.09909668,0.00039888
812.02790405,0.00030560
813.95671143,0.00022076
815.88551880,0.00052756
817.81432617,0.00020850
819.74313354,0.00037751
821.67194092,0.00056990
823.60074829,0.00023383
825.52955566,0.00039815
827.45836304,0.00045726
829.38717041,0.00074839
831.31597778,0.00070232
833.24478516,0.00098461
835.17359253,0.00153932
837.10239990,0.00124222
839.03120728,0.00139807
840.96001465,0.00125335
842.88882202,0.00101924
844.81762939,0.00115522
846.74643677,0.00099325
848.67524414,0.00102677
850.60405151,0.00077153
852.53285889,0.00066206
854.46166626,0.00073164
856.39047363,0.00050341
858.31928101,0.00058551
860.24808838,0.00047770
862.17689575,0.00042323
864.10570313,0.00072275
866.03451050,0.00040658
867.96331787,0.00017210
869.89212524,0.00040565
871.82093262,0.00036440
873.74973999,0.00031383
875.67854736,0.00042295
877.60735474,0.00038847
879.53616211,0.00018992
881.46496948,0.00034342
883.39377686,0.00043841
885.32258423,0.00039196
887.25139160,0.00059285
889.18019897,0.00041722
891.10900635,0.00039994
893.03781372,0.00053502
894.96662109,0.00028861
896.89542847,0.00030002
898.82423584,0.00039454
900.75304321,0.00040944
902.68185059,0.00038767
904.61065796,0.00046670
906.53946533,0.00054446
908.46827271,0.00040706
910.39708008,0.00051785
912.32588745,0.00064804
914.25469482,0.00063186
916.18350220,0.00080714
918.11230957,0.00092520
920.04111694,0.00084396
921.96992432,0.00116834
923.89873169,0.00134607
925.82753906,0.00134156
927.75634644,0.00147332
929.68515381,0.00113978
931.61396118,0.00144083
933.54276855,0.00177682
935.47157593,0.00168830
937.40038330,0.00175463
939.32919067,0.00175952
941.25799805,0.00214858
943.18680542,0.00209411
945.11561279,0.00208922
947.04442017,0.00201542
948.97322754,0.00175251
950.90203491,0.00193600
952.83084229,0.00173051
954.75964966,0.00177998
956.68845703,0.00158361
958.61726440,0.00159820
960.54607178,0.00198752
962.47487915,0.00190149
964.40368652,0.00215860
966.33249390,0.00196899
968.26130127,0.00198622
970.19010864,0.00234840
972.11891602,0.00226100
974.04772339,0.00232535
975.97653076,0.00246959
977.90533813,0.00283096
979.83414551,0.00294741
981.76295288,0.00304751
983.69176025,0.00351939
985.62056763,0.00401277
987.54937500,0.00460470
989.47818237,0.00491147
991.40698975,0.00534301
993.33579712,0.00618288
995.26460449,0.00664546
997.19341187,0.00700136
999.12221924,0.00759337
1001.05102661,0.00814495
1002.97983398,0.00865236
1004.90864136,0.00922623
1006.83744873,0.01010940
1008.76625610,0.01051502
1010.69506348,0.01087731
1012.62387085,0.01192700
1014.55267822,0.01252490
1016.48148560,0.01312871
1018.41029297,0.01370946
1020.33910034,0.01428907
1022.26790771,0.01502573
1024.19671509,0.01545658
1026.12552246,0.01623139
1028.05432983,0.01655560
1029.98313721,0.01681899
1031.91194458,0.01749881
1033.84075195,0.01777223
1035.76955933,0.01804294
1037.69836670,0.01820394
1039.62717407,0.01819531
1041.55598145,0.01819595
1043.48478882,0.01813973
1045.41359619,0.01794774
1047.34240356,0.01766371
1049.27121094,0.01735056
1051.20001831,0.01712194
1053.12882568,0.01673872
1055.05763306,0.01641073
1056.98644043,0.01639850
1058.91524780,0.01585360
1060.84405518,0.01543178
1062.77286255,0.01502100
1064.70166992,0.01436969
1066.63047729,0.01388488
1068.55928467,0.01322508
1070.48809204,0.01282961
1072.41689941,0.01200955
1074.34570679,0.01145534
1076.27451416,0.01128935
1078.20332153,0.01041959
1080.13212891,0.01000206
1082.06093628,0.00969519
1083.98974365,0.00896995
1085.91855103,0.00860611
1087.84735840,0.00839139
1089.77616577,0.00783991
1091.70497314,0.00764557
1093.63378052,0.00754064
1095.56258789,0.00711541
1097.49139526,0.00686538
1099.42020264,0.00656378
1101.34901001,0.00653891
1103.27781738,0.00636217
1105.20662476,0.00614948
1107.13543213,0.00619489
1109.06423950,0.00610973
1110.99304687,0.00606942
1112.92185425,0.00579607
1114.85066162,0.00567455
1116.77946899,0.00571239
1118.70827637,0.00595862
1120.63708374,0.00600003
1122.56589111,0.00583003
1124.49469849,0.00600922
1126.42350586,0.00595604
1128.35231323,0.00613734
1130.28112061,0.00624103
1132.20992798,0.00624738
1134.13873535,0.00646135
1136.06754272,0.00672297
1137.99635010,0.00716829
1139.92515747,0.00753123
1141.85396484,0.00812981
1143.78277222,0.00858983
1145.71157959,0.00919918
1147.64038696,0.00991451
1149.56919434,0.01016714
1151.49800171,0.01053958
1153.42680908,0.01134108
1155.35561646,0.01196433
1157.28442383,0.01215680
1159.21323120,0.01287431
1161.14203857,0.01325088
1163.07084595,0.01373890
1164.99965332,0.01456964
1166.92846069,0.01481226
1168.85726807,0.01541072
1170.78607544,0.01571446
1172.71488281,0.01633867
1174.64369019,0.01720123
1176.57249756,0.01762782
1178.50130493,0.01828519
1180.43011230,0.01899798
1182.35891968,0.01990558
1184.28772705,0.02064736
1186.21653442,0.02178444
1188.14534180,0.02274390
1190.07414917,0.02366644
1192.00295654,0.02504963
1193.93176392,0.02571866
1195.86057129,0.02688994
1197.78937866,0.02847123
1199.71818604,0.02961756
1201.64699341,0.03065759
1203.57580078,0.03196780
1205.50460815,0.03336307
1207.43341553,0.03450181
1209.36222290,0.03572073
1211.29103027,0.03664553
1213.21983765,0.03763600
1215.14864502,0.03857986
1217.07745239,0.03937750
1219.00625977,0.04014220
1220.93506714,0.04068924
1222.86387451,0.04122424
1224.79268188,0.04142486
1226.72148926,0.04177034
1228.65029663,0.04205950
1230.57910400,0.04206515
1232.50791138,0.04216406
1234.43671875,0.04244101
1236.36552612,0.04255400
1238.29433350,0.04234904
1240.22314087,0.04240895
1242.15194824,0.04206856
1244.08075562,0.04178265
1246.00956299,0.04173807
1247.93837036,0.04125524
1249.86717773,0.04092976
1251.79598511,0.04080665
1253.72479248,0.04048171
1255.65359985,0.03986508
1257.58240723,0.03950481
1259.51121460,0.03876908
1261.44002197,0.03795464
1263.36882935,0.03766911
1265.29763672,0.03713174
1267.22644409,0.03680987
1269.15525146,0.03631916
1271.08405884,0.03570585
1273.01286621,0.03520642
1274.94167358,0.03441240
1276.87048096,0.03370228
1278.79928833,0.03316921
1280.72809570,0.03264765
1282.65690308,0.03194547
1284.58571045,0.03150130
1286.51451782,0.03085724
1288.44332520,0.03012462
1290.37213257,0.02993743
1292.30093994,0.02955002
1294.22974731,0.02923325
1296.15855469,0.02920522
1298.08736206,0.02921218
1300.01616943,0.02927364
1301.94497681,0.02940177
1303.87378418,0.02954997
1305.80259155,0.02977513
1307.73139893,0.03009414
1309.66020630,0.03063722
1311.58901367,0.03142285
1313.51782104,0.03188616
1315.44662842,0.03260472
1317.37543579,0.03324141
1319.30424316,0.03397265
1321.23305054,0.03526324
1323.16185791,0.03595172
1325.09066528,0.03719065
1327.01947266,0.03835816
1328.94828003,0.03896044
1330.87708740,0.04033401
1332.80589478,0.04112517
1334.73470215,0.04173363
1336.66350952,0.04224368
1338.59231689,0.04182622
1340.52112427,0.04256611
1342.44993164,0.04404463
1344.37873901,0.04426432
1346.30754639,0.04433780
1348.23635376,0.04427829
1350.16516113,0.04402915
1352.09396851,0.04412762
1354.02277588,0.04357456
1355.95158325,0.04316128
1357.88039062,0.04285435
1359.80919800,0.04198591
1361.73800537,0.04011000
1363.66681274,0.03971542
1365.59562012,0.04173549
1367.52442749,0.04065129
1369.45323486,0.04017016
1371.38204224,0.04083695
1373.31084961,0.03882625
1375.23965698,0.03919616
1377.16846436,0.03991091
1379.09727173,0.03978903
1381.02607910,0.03998181
1382.95488647,0.03975695
1384.88369385,0.03971403
1386.81250122,0.03792907
1388.74130859,0.03835521
1390.67011597,0.04163999
1392.59892334,0.04055434
1394.52773071,0.03777736
1396.45653809,0.03982591
1398.38534546,0.03975575
1400.31415283,0.03962788
1402.24296021,0.04282804
1404.17176758,0.04023738
1406.10057495,0.04050932
1408.02938232,0.04213132
1409.95818970,0.04074535
1411.88699707,0.04158255
1413.81580444,0.04002825
1415.74461182,0.04065672
1417.67341919,0.03656389
1419.60222656,0.03304473
1421.53103394,0.03801410
1423.45984131,0.03654326
1425.38864868,0.03561361
1427.31745605,0.03612744
1429.24626343,0.03325786
1431.17507080,0.03238659
1433.10387817,0.03282579
1435.03268555,0.02990164
1436.96149292,0.02543620
1438.89030029,0.02893889
1440.81910767,0.02977381
1442.74791504,0.02746673
1444.67672241,0.02866216
1446.60552979,0.02645232
1448.53433716,0.02698514
1450.46314453,0.02776740
1452.39195190,0.02810873
1454.32075928,0.02923465
1456.24956665,0.02396486
1458.17837402,0.02521881
1460.10718140,0.03384604
1462.03598877,0.03559727
1463.96479614,0.03526583
1465.89360352,0.03694946
1467.82241089,0.04214410
1469.75121826,0.04495222
1471.68002563,0.03999665
1473.60883301,0.04245127
1475.53764038,0.04816986
1477.46644775,0.05190589
1479.39525513,0.05705116
1481.32406250,0.05786306
1483.25286987,0.06147290
1485.18167725,0.06305419
1487.11048462,0.06207266
1489.03929199,0.06161439
1490.96809937,0.06223322
1492.89690674,0.07257451
1494.82571411,0.07021785
1496.75452148,0.06347975
1498.68332886,0.07204976
1500.61213623,0.07401850
1502.54094360,0.07946014
1504.46975098,0.07434919
1506.39855835,0.05424253
1508.32736572,0.06703451
1510.25617310,0.07801411
1512.18498047,0.07568248
1514.11378784,0.08187595
1516.04259521,0.07371648
1517.97140259,0.07730648
1519.90020996,0.07403572
1521.82901733,0.06463693
1523.75782471,0.07926697
1525.68663208,0.07724302
1527.61543945,0.07743013
1529.54424683,0.08545904
1531.47305420,0.08169737
1533.40186157,0.07488437
1535.33066895,0.07999450
1537.25947632,0.08494422
1539.18828369,0.06025922
1541.11709106,0.06408556
1543.04589844,0.07643159
1544.97470581,0.07359573
1546.90351318,0.08707733
1548.83232056,0.08079924
1550.76112793,0.08374444
1552.68993530,0.08267452
1554.61874268,0.07550136
1556.54755005,0.08040233
1558.47635742,0.05625403
1560.40516479,0.06222687
1562.33397217,0.08747081
1564.26277954,0.08232749
1566.19158691,0.08516987
1568.12039429,0.08360579
1570.04920166,0.07448531
1571.97800903,0.08641292
1573.90681641,0.08643964
1575.83562378,0.06865434
1577.76443115,0.07839778
1579.69323853,0.08804131
1581.62204590,0.08422749
1583.55085327,0.08632025
1585.47966064,0.08485518
1587.40846802,0.08571862
1589.33727539,0.08498299
1591.26608276,0.08490153
1593.19489014,0.08497533
1595.12369751,0.08411510
1597.05250488,0.08509932
1598.98131226,0.08451054
1600.91011963,0.08517140
1602.83892700,0.08339449
1604.76773437,0.08488885
1606.69654175,0.08375564
1608.62534912,0.08350603
1610.55415649,0.08334225
1612.48296387,0.08394028
1614.41177124,0.08471347
1616.34057861,0.06921656
1618.26938599,0.07582654
1620.19819336,0.08771005
1622.12700073,0.07758979
1624.05580811,0.07823704
1625.98461548,0.08188434
1627.91342285,0.08135109
1629.84223022,0.08099994
1631.77103760,0.08668737
1633.69984497,0.07936180
1635.62865234,0.06564280
1637.55745972,0.07685569
1639.48626709,0.08411956
1641.41507446,0.08238149
1643.34388184,0.08435275
1645.27268921,0.07528432
1647.20149658,0.06671326
1649.13030396,0.08333801
1651.05911133,0.07775282
1652.98791870,0.05014698
1654.91672607,0.06939007
1656.84553345,0.08623165
1658.77434082,0.08242767
1660.70314819,0.08459407
1662.63195557,0.07679144
1664.56076294,0.08144464
1666.48957031,0.08701791
1668.41837769,0.07583715
1670.34718506,0.07404269
1672.27599243,0.08384082
1674.20479980,0.07702065
1676.13360718,0.07415462
1678.06241455,0.08557554
1679.99122192,0.08221331
1681.92002930,0.08097012
1683.84883667,0.06548209
1685.77764404,0.06590420
1687.70645142,0.08972565
1689.63525879,0.07749191
1691.56406616,0.08605758
1693.49287354,0.08638914
1695.42168091,0.06355228
1697.35048828,0.07876488
1699.27929565,0.06811965
1701.20810303,0.06256390
1703.13691040,0.08475290
1705.06571777,0.07718735
1706.99452515,0.07849319
1708.92333252,0.08476809
1710.85213989,0.08144036
1712.78094727,0.08287100
1714.70975464,0.07660584
1716.63856201,0.06879099
1718.56736938,0.06808431
1720.49617676,0.08088407
1722.42498413,0.08331976
1724.35379150,0.07769796
1726.28259888,0.08442917
1728.21140625,0.07752198
1730.14021362,0.07861610
1732.06902100,0.07583167
1733.99782837,0.05806620
1735.92663574,0.07295273
1737.85544312,0.07963018
1739.78425049,0.07110368
1741.71305786,0.07773148
1743.64186523,0.07857139
1745.57067261,0.07869419
1747.49947998,0.07926042
1749.42828735,0.07559563
1751.35709473,0.07244045
1753.28590210,0.08068688
1755.21470947,0.08376092
1757.14351685,0.07660403
1759.07232422,0.08423545
1761.00113159,0.07858190
1762.92993896,0.07663388
1764.85874634,0.08723865
1766.78755371,0.07830979
1768.71636108,0.07950051
1770.64516846,0.07859173
1772.57397583,0.07081087
1774.50278320,0.07922914
1776.43159058,0.08350694
1778.36039795,0.08212531
1780.28920532,0.08115385
1782.21801270,0.08194293
1784.14682007,0.08178572
1786.07562744,0.08023670
1788.00443481,0.08448074
1789.93324219,0.08210169
1791.86204956,0.07408229
1793.79085693,0.07768318
1795.71966431,0.08333401
1797.64847168,0.08199723
1799.57727905,0.08063579
1801.50608643,0.07939834
1803.43489380,0.08218189
1805.36370117,0.08371564
1807.29250854,0.08259843
1809.22131592,0.08268673
1811.15012329,0.08062740
1813.07893066,0.08325453
1815.00773804,0.08328180
1816.93654541,0.08253287
1818.86535278,0.08332981
1820.79416016,0.08306934
1822.72296753,0.08385567
1824.65177490,0.07842827
1826.58058228,0.08153039
1828.50938965,0.08112569
1830.43819702,0.07648171
1832.36700439,0.08318149
1834.29581177,0.08248518
1836.22461914,0.08263541
1838.15342651,0.08208174
1840.08223389,0.08253561
1842.01104126,0.08240817
1843.93984863,0.07335551
1845.86865601,0.07832216
1847.79746338,0.08248869
1849.72627075,0.08085772
1851.65507812,0.08291501
1853.58388550,0.08129381
1855.51269287,0.08217452
1857.44150024,0.08164710
1859.37030762,0.08119928
1861.29911499,0.08143482
1863.22792236,0.08059706
1865.15672974,0.08160898
1867.08553711,0.07870279
1869.01434448,0.07547756
1870.94315186,0.07852949
1872.87195923,0.08129255
1874.80076660,0.08003952
1876.72957397,0.08068757
1878.65838135,0.08018668
1880.58718872,0.07976977
1882.51599609,0.08050931
1884.44480347,0.07908180
1886.37361084,0.08021559
1888.30241821,0.07831949
1890.23122559,0.07703069
1892.16003296,0.07971485
1894.08884033,0.07843325
1896.01764771,0.07828298
1897.94645508,0.07896732
1899.87526245,0.07879419
1901.80406982,0.07891413
1903.73287720,0.07829081
1905.66168457,0.07881021
1907.59049194,0.07794636
1909.51929932,0.07751587
1911.44810669,0.07783207
1913.37691406,0.07797202
1915.30572144,0.07861482
1917.23452881,0.07490838
1919.16333618,0.07518422
1921.09214355,0.07801633
1923.02095093,0.07555711
1924.94975830,0.07702437
1926.87856567,0.07755651
1928.80737305,0.07683116
1930.73618042,0.07770585
1932.66498779,0.07643102
1934.59379517,0.07742202
1936.52260254,0.07679714
1938.45140991,0.07698433
1940.38021729,0.07700206
1942.30902466,0.07447964
1944.23783203,0.07594953
1946.16663940,0.07659303
1948.09544678,0.07649747
1950.02425415,0.07658599
1951.95306152,0.07630550
1953.88186890,0.07656655
1955.81067627,0.07595591
1957.73948364,0.07636197
1959.66829102,0.07611975
1961.59709839,0.07588349
1963.52590576,0.07611007
1965.45471313,0.07552829
1967.38352051,0.07503894
1969.31232788,0.07545337
1971.24113525,0.07596393
1973.16994263,0.07533195
1975.09875000,0.07564782
1977.02755737,0.07548189
1978.95636475,0.07513863
1980.88517212,0.07525531
1982.81397949,0.07487641
1984.74278687,0.07517771
1986.67159424,0.07467450
1988.60040161,0.07464315
1990.52920898,0.07415992
1992.45801636,0.07318959
1994.38682373,0.07427394
1996.31563110,0.07439168
1998.24443848,0.07393117
2000.17324585,0.07405099
2002.10205322,0.07360356
2004.03086060,0.07358323
2005.95966797,0.07352839
2007.88847534,0.07324336
2009.81728271,0.07318740
2011.74609009,0.07292657
2013.67489746,0.07300024
2015.60370483,0.07238062
2017.53251221,0.07172689
2019.46131958,0.07225564
2021.39012695,0.07206909
2023.31893433,0.07187791
2025.24774170,0.07177417
2027.17654907,0.07143744
2029.10535645,0.07141133
2031.03416382,0.07120956
2032.96297119,0.07113454
2034.89177856,0.07096227
2036.82058594,0.07093750
2038.74939331,0.07067741
2040.67820068,0.07031022
2042.60700806,0.07018302
2044.53581543,0.07002471
2046.46462280,0.07004585
2048.39343018,0.06973527
2050.32223755,0.06965446
2052.25104492,0.06954545
2054.17985229,0.06926913
2056.10865967,0.06920486
2058.03746704,0.06901513
2059.96627441,0.06888197
2061.89508179,0.06870317
2063.82388916,0.06838488
2065.75269653,0.06817367
2067.68150391,0.06838605
2069.61031128,0.06813966
2071.53911865,0.06795430
2073.46792603,0.06800859
2075.39673340,0.06770322
2077.32554077,0.06776629
2079.25434814,0.06748089
2081.18315552,0.06732476
2083.11196289,0.06718059
2085.04077026,0.06691418
2086.96957764,0.06701782
2088.89838501,0.06661084
2090.82719238,0.06636748
2092.75599976,0.06648239
2094.68480713,0.06641646
2096.61361450,0.06614932
2098.54242187,0.06605888
2100.47122925,0.06594907
2102.40003662,0.06584011
2104.32884399,0.06579520
2106.25765137,0.06555369
2108.18645874,0.06562257
2110.11526611,0.06532972
2112.04407349,0.06516332
2113.97288086,0.06517160
2115.90168823,0.06495422
2117.83049561,0.06504598
2119.75930298,0.06493481
2121.68811035,0.06482174
2123.61691772,0.06464350
2125.54572510,0.06452623
2127.47453247,0.06444542
2129.40333984,0.06436587
2131.33214722,0.06427851
2133.26095459,0.06412639
2135.18976196,0.06400664
2137.11856934,0.06367762
2139.04737671,0.06397147
2140.97618408,0.06396774
2142.90499146,0.06366911
2144.83379883,0.06369285
2146.76260620,0.06346636
2148.69141357,0.06342144
2150.62022095,0.06323561
2152.54902832,0.06320179
2154.47783569,0.06313708
2156.40664307,0.06304627
2158.33545044,0.06296660
2160.26425781,0.06278342
2162.19306519,0.06278078
2164.12187256,0.06257047
2166.05067993,0.06268706
2167.97948730,0.06257850
2169.90829468,0.06240887
2171.83710205,0.06241113
2173.76590942,0.06229617
2175.69471680,0.06228745
2177.62352417,0.06203582
2179.55233154,0.06203442
2181.48113892,0.06189991
2183.40994629,0.06182396
2185.33875366,0.06178246
2187.26756104,0.06171969
2189.19636841,0.06177209
2191.12517578,0.06151086
2193.05398315,0.06154777
2194.98279053,0.06127393
2196.91159790,0.06119528
2198.84040527,0.06131192
2200.76921265,0.06111591
2202.69802002,0.06105709
2204.62682739,0.06082285
2206.55563477,0.06087987
2208.48444214,0.06079613
2210.41324951,0.06073990
2212.34205688,0.06074074
2214.27086426,0.06055443
2216.19967163,0.06051775
2218.12847900,0.06034335
2220.05728638,0.06035171
2221.98609375,0.06020082
2223.91490112,0.06009556
2225.84370850,0.06005079
2227.77251587,0.05984455
2229.70132324,0.05989298
2231.63013062,0.05981916
2233.55893799,0.05966799
2235.48774536,0.05960471
2237.41655273,0.05952423
2239.34536011,0.05937989
2241.27416748,0.05931035
2243.20297485,0.05919645
2245.13178223,0.05909423
2247.06058960,0.05899095
2248.98939697,0.05883168
2250.91820435,0.05889802
2252.84701172,0.05878155
2254.77581909,0.05855143
2256.70462646,0.05842733
2258.63343384,0.05836230
2260.56224121,0.05812385
2262.49104858,0.05804387
2264.41985596,0.05821057
2266.34866333,0.05798631
2268.27747070,0.05789662
2270.20627808,0.05784170
2272.13508545,0.05772480
2274.06389282,0.05762060
2275.99270020,0.05765852
2277.92150757,0.05774061
2279.85031494,0.05740417
2281.77912231,0.05741726
2283.70792969,0.05742025
2285.63673706,0.05725998
2287.56554443,0.05720941
2289.49435181,0.05701277
2291.42315918,0.05678919
2293.35196655,0.05661587
2295.28077393,0.05658239
2297.20958130,0.05630253
2299.13838867,0.05610898
2301.06719604,0.05594944
2302.99600342,0.05557967
2304.92481079,0.05534431
2306.85361816,0.05509701
2308.78242554,0.05461728
2310.71123291,0.05401050
2312.64004028,0.05358122
2314.56884766,0.05296071
2316.49765503,0.05234331
2318.42646240,0.05173757
2320.35526978,0.05096650
2322.28407715,0.05024225
2324.21288452,0.04964814
2326.14169189,0.04912630
2328.07049927,0.04838590
2329.99930664,0.04797534
2331.92811401,0.04750995
2333.85692139,0.04716276
2335.78572876,0.04702336
2337.71453613,0.04690848
2339.64334351,0.04705350
2341.57215088,0.04703814
2343.50095825,0.04785483
2345.42976562,0.04882410
2347.35857300,0.05078650
2349.28738037,0.05241375
2351.21618774,0.05037304
2353.14499512,0.04798370
2355.07380249,0.04615661
2357.00260986,0.04461057
2358.93141724,0.04394054
2360.86022461,0.04336307
2362.78903198,0.04328658
2364.71783936,0.04355919
2366.64664673,0.04427730
2368.57545410,0.04503345
2370.50426147,0.04613033
2372.43306885,0.04743363
2374.36187622,0.04870371
2376.29068359,0.05009247
2378.21949097,0.05097937
2380.14829834,0.05202674
2382.07710571,0.05262953
2384.00591309,0.05286245
2385.93472046,0.05315475
2387.86352783,0.05312699
2389.79233521,0.05309065
2391.72114258,0.05304155
2393.64994995,0.05307276
2395.57875732,0.05280634
2397.50756470,0.05272987
2399.43637207,0.05269795
2401.36517944,0.05245557
2403.29398682,0.05251102
2405.22279419,0.05249232
2407.15160156,0.05243781
2409.08040894,0.05224068
2411.00921631,0.05225933
2412.93802368,0.05229705
2414.86683105,0.05202639
2416.79563843,0.05194251
2418.72444580,0.05187294
2420.65325317,0.05177605
2422.58206055,0.05174493
2424.51086792,0.05178486
2426.43967529,0.05171783
2428.36848267,0.05163959
2430.29729004,0.05152317
2432.22609741,0.05140416
2434.15490479,0.05132993
2436.08371216,0.05116080
2438.01251953,0.05122783
2439.94132690,0.05118954
2441.87013428,0.05105684
2443.79894165,0.05093142
2445.72774902,0.05079061
2447.65655640,0.05084161
2449.58536377,0.05078299
2451.51417114,0.05073158
2453.44297852,0.05064086
2455.37178589,0.05043376
2457.30059326,0.05036896
2459.22940063,0.05037855
2461.15820801,0.05027130
2463.08701538,0.05023213
2465.01582275,0.05021493
2466.94463013,0.05014623
2468.87343750,0.05007890
2470.80224487,0.04984637
2472.73105225,0.04990155
2474.65985962,0.04988629
2476.58866699,0.04966979
2478.51747437,0.04961774
2480.44628174,0.04952943
2482.37508911,0.04959787
2484.30389648,0.04942228
2486.23270386,0.04926459
2488.16151123,0.04935179
2490.09031860,0.04919982
2492.01912598,0.04906616
2493.94793335,0.04907374
2495.87674072,0.04903323
2497.80554810,0.04887995
2499.73435547,0.04881617
2501.66316284,0.04867550
2503.59197021,0.04857267
2505.52077759,0.04865246
2507.44958496,0.04862718
2509.37839233,0.04846528
2511.30719971,0.04828097
2513.23600708,0.04836190
2515.16481445,0.04830690
2517.09362183,0.04812272
2519.02242920,0.04821793
2520.95123657,0.04816614
2522.88004395,0.04795539
2524.80885132,0.04792169
2526.73765869,0.04787556
2528.66646606,0.04778428
2530.59527344,0.04772271
2532.52408081,0.04759427
2534.45288818,0.04765952
2536.38169556,0.04752501
2538.31050293,0.04736707
2540.23931030,0.04743340
2542.16811768,0.04732015
2544.09692505,0.04739984
2546.02573242,0.04722515
2547.95453979,0.04703192
2549.88334717,0.04696603
2551.81215454,0.04682051
2553.74096191,0.04697099
2555.66976929,0.04678103
2557.59857666,0.04665178
2559.52738403,0.04662252
2561.45619141,0.04644373
2563.38499878,0.04642432
2565.31380615,0.04633241
2567.24261353,0.04635319
2569.17142090,0.04631028
2571.10022827,0.04630364
2573.02903564,0.04629610
2574.95784302,0.04606728
2576.88665039,0.04606070
2578.81545776,0.04605848
2580.74426514,0.04586396
2582.67307251,0.04585765
2584.60187988,0.04585541
2586.53068726,0.04579788
2588.45949463,0.04572052
2590.38830200,0.04542589
2592.31710937,0.04545384
2594.24591675,0.04542036
2596.17472412,0.04530465
2598.10353149,0.04536139
2600.03233887,0.04512416
2601.96114624,0.04516490
2603.88995361,0.04507917
2605.81876099,0.04501190
2607.74756836,0.04510630
2609.67637573,0.04496605
2611.60518311,0.04500867
2613.53399048,0.04474226
2615.46279785,0.04467133
2617.39160522,0.04473821
2619.32041260,0.04452544
2621.24921997,0.04448282
2623.17802734,0.04440771
2625.10683472,0.04436852
2627.03564209,0.04424322
2628.96444946,0.04418352
2630.89325684,0.04415183
2632.82206421,0.04406941
2634.75087158,0.04402463
2636.67967895,0.04385376
2638.60848633,0.04384428
2640.53729370,0.04391517
2642.46610107,0.04383679
2644.39490845,0.04358228
2646.32371582,0.04352081
2648.25252319,0.04357389
2650.18133057,0.04347081
2652.11013794,0.04344419
2654.03894531,0.04337236
2655.96775269,0.04326907
2657.89656006,0.04318076
2659.82536743,0.04317929
2661.75417480,0.04311505
2663.68298218,0.04298764
2665.61178955,0.04292614
2667.54059692,0.04283398
2669.46940430,0.04278948
2671.39821167,0.04267124
2673.32701904,0.04267425
2675.25582642,0.04266284
2677.18463379,0.04256236
2679.11344116,0.04245473
2681.04224854,0.04220742
2682.97105591,0.04225160
2684.89986328,0.04235200
2686.82867065,0.04216539
2688.75747803,0.04205916
2690.68628540,0.04215780
2692.61509277,0.04202871
2694.54390015,0.04179130
2696.47270752,0.04177133
2698.40151489,0.04173137
2700.33032227,0.04178396
2702.25912964,0.04172506
2704.18793701,0.04158003
2706.11674438,0.04151008
2708.04555176,0.04141790
2709.97435913,0.04149099
2711.90316650,0.04143032
2713.83197388,0.04121733
2715.76078125,0.04109202
2717.68958862,0.04107603
2719.61839600,0.04107636
2721.54720337,0.04095626
2723.47601074,0.04083784
2725.40481812,0.04075228
2727.33362549,0.04073348
2729.26243286,0.04070307
2731.19124023,0.04055329
2733.12004761,0.04054335
2735.04885498,0.04058832
2736.97766235,0.04041731
2738.90646973,0.04037423
2740.83527710,0.04028682
2742.76408447,0.04007442
2744.69289185,0.04010989
2746.62169922,0.04003575
2748.55050659,0.03994109
2750.47931396,0.03988349
2752.40812134,0.03976359
2754.33692871,0.03970699
2756.26573608,0.03969748
2758.19454346,0.03975119
2760.12335083,0.03956351
2762.05215820,0.03943193
2763.98096558,0.03943730
2765.90977295,0.03936418
2767.83858032,0.03936424
2769.76738770,0.03925918
2771.69619507,0.03915980
2773.62500244,0.03911819
2775.55380981,0.03904602
2777.48261719,0.03890909
2779.41142456,0.03884818
2781.34023193,0.03884348
2783.26903931,0.03869226
2785.19784668,0.03867883
2787.12665405,0.03860132
2789.05546143,0.03835223
2790.98426880,0.03830097
2792.91307617,0.03832399
2794.84188354,0.03824967
2796.77069092,0.03821988
2798.69949829,0.03817673
2800.62830566,0.03801825
2802.55711304,0.03791188
2804.48592041,0.03777507
2806.41472778,0.03774553
2808.34353516,0.03785757
2810.27234253,0.03768488
2812.20114990,0.03746380
2814.12995728,0.03745937
2816.05876465,0.03743328
2817.98757202,0.03738652
2819.91637939,0.03727309
2821.84518677,0.03711177
2823.77399414,0.03707641
2825.70280151,0.03705757
2827.63160889,0.03705470
2829.56041626,0.03691150
2831.48922363,0.03676903
2833.41803101,0.03675269
2835.34683838,0.03662068
2837.27564575,0.03652304
2839.20445312,0.03631942
2841.13326050,0.03627311
2843.06206787,0.03624226
2844.99087524,0.03593229
2846.91968262,0.03571648
2848.84848999,0.03543265
2850.77729736,0.03537645
2852.70610474,0.03544021
2854.63491211,0.03546250
2856.56371948,0.03547247
2858.49252686,0.03535602
2860.42133423,0.03534964
2862.35014160,0.03523995
2864.27894897,0.03519121
2866.20775635,0.03503832
2868.13656372,0.03500289
2870.06537109,0.03504219
2871.99417847,0.03476374
2873.92298584,0.03483140
2875.85179321,0.03481837
2877.78060059,0.03481040
2879.70940796,0.03482568
2881.63821533,0.03459426
2883.56702270,0.03455632
2885.49583008,0.03447280
2887.42463745,0.03443716
2889.35344482,0.03433204
2891.28225220,0.03432165
2893.21105957,0.03432952
2895.13986694,0.03411477
2897.06867432,0.03402802
2898.99748169,0.03393559
2900.92628906,0.03393369
2902.85509644,0.03375899
2904.78390381,0.03362343
2906.71271118,0.03356508
2908.64151855,0.03332126
2910.57032593,0.03337644
2912.49913330,0.03315704
2914.42794067,0.03277347
2916.35674805,0.03276312
2918.28555542,0.03268278
2920.21436279,0.03258957
2922.14317017,0.03257719
2924.07197754,0.03250633
2926.00078491,0.03247765
2927.92959229,0.03245829
2929.85839966,0.03241953
2931.78720703,0.03245809
2933.71601440,0.03241521
2935.64482178,0.03240962
2937.57362915,0.03243789
2939.50243652,0.03233155
2941.43124390,0.03232515
2943.36005127,0.03235547
2945.28885864,0.03231040
2947.21766602,0.03229759
2949.14647339,0.03222945
2951.07528076,0.03205534
2953.00408813,0.03202320
2954.93289551,0.03190033
2956.86170288,0.03176612
2958.79051025,0.03183377
2960.71931763,0.03164420
2962.64812500,0.03161435
2964.57693237,0.03160921
2966.50573975,0.03142081
2968.43454712,0.03148955
2970.36335449,0.03152113
2972.29216187,0.03153659
2974.22096924,0.03144068
2976.14977661,0.03144356
2978.07858398,0.03155720
2980.00739136,0.03138753
2981.93619873,0.03136585
2983.86500610,0.03143869
2985.79381348,0.03138285
2987.72262085,0.03127757
2989.65142822,0.03128803
2991.58023560,0.03123295
2993.50904297,0.03105655
2995.43785034,0.03116044
2997.36665771,0.03109932
2999.29546509,0.03098997
3001.22427246,0.03110773
3003.15307983,0.03100771
3005.08188721,0.03089560
3007.01069458,0.03079384
3008.93950195,0.03065693
3010.86830933,0.03060317
3012.79711670,0.03052736
3014.72592407,0.03056637
3016.65473145,0.03049866
3018.58353882,0.03037502
3020.51234619,0.03043444
3022.44115356,0.03028458
3024.36996094,0.03017491
3026.29876831,0.03017549
3028.22757568,0.03002457
3030.15638306,0.02999371
3032.08519043,0.02989017
3034.01399780,0.02971549
3035.94280518,0.02972914
3037.87161255,0.02977799
3039.80041992,0.02972795
3041.72922729,0.02964375
3043.65803467,0.02959833
3045.58684204,0.02949834
3047.51564941,0.02936118
3049.44445679,0.02929830
3051.37326416,0.02930908
3053.30207153,0.02916906
3055.23087891,0.02905452
3057.15968628,0.02911459
3059.08849365,0.02902093
3061.01730103,0.02895511
3062.94610840,0.02886932
3064.87491577,0.02875404
3066.80372314,0.02878533
3068.73253052,0.02868716
3070.66133789,0.02865314
3072.59014526,0.02868759
3074.51895264,0.02849803
3076.44776001,0.02839231
3078.37656738,0.02844112
3080.30537476,0.02832098
3082.23418213,0.02828658
3084.16298950,0.02831032
3086.09179687,0.02813959
3088.02060425,0.02818880
3089.94941162,0.02814825
3091.87821899,0.02795485
3093.80702637,0.02802876
3095.73583374,0.02795449
3097.66464111,0.02780428
3099.59344849,0.02774387
3101.52225586,0.02768531
3103.45106323,0.02763677
3105.37987061,0.02749803
3107.30867798,0.02749662
3109.23748535,0.02748082
3111.16629272,0.02734394
3113.09510010,0.02727444
3115.02390747,0.02713466
3116.95271484,0.02708743
3118.88152222,0.02706999
3120.81032959,0.02697231
3122.73913696,0.02695141
3124.66794434,0.02682294
3126.59675171,0.02672818
3128.52555908,0.02674617
3130.45436645,0.02667552
3132.38317383,0.02657325
3134.31198120,0.02645785
3136.24078857,0.02642826
3138.16959595,0.02642808
3140.09840332,0.02629456
3142.02721069,0.02622524
3143.95601807,0.02619629
3145.88482544,0.02606934
3147.81363281,0.02603524
3149.74244019,0.02592456
3151.67124756,0.02573457
3153.60005493,0.02574375
3155.52886230,0.02574995
3157.45766968,0.02575686
3159.38647705,0.02561551
3161.31528442,0.02534050
3163.24409180,0.02533847
3165.17289917,0.02532368
3167.10170654,0.02519858
3169.03051392,0.02514020
3170.95932129,0.02502099
3172.88812866,0.02490255
3174.81693604,0.02487516
3176.74574341,0.02479858
3178.67455078,0.02478001
3180.60335815,0.02476623
3182.53216553,0.02465022
3184.46097290,0.02469750
3186.38978027,0.02454286
3188.31858765,0.02438289
3190.24739502,0.02445430
3192.17620239,0.02427661
3194.10500977,0.02424379
3196.03381714,0.02420616
3197.96262451,0.02404022
3199.89143188,0.02409393
3201.82023926,0.02401615
3203.74904663,0.02393851
3205.67785400,0.02401963
3207.60666138,0.02391779
3209.53546875,0.02371521
3211.46427612,0.02369818
3213.39308350,0.02368097
3215.32189087,0.02356815
3217.25069824,0.02352331
3219.17950562,0.02346423
3221.10831299,0.02340351
3223.03712036,0.02345892
3224.96592773,0.02341196
3226.89473511,0.02330665
3228.82354248,0.02338647
3230.75234985,0.02327196
3232.68115723,0.02316637
3234.60996460,0.02318463
3236.53877197,0.02306020
3238.46757935,0.02301962
3240.39638672,0.02288389
3242.32519409,0.02291841
3244.25400146,0.02297479
3246.18280884,0.02286410
3248.11161621,0.02292093
3250.04042358,0.02289392
3251.96923096,0.02293376
3253.89803833,0.02281565
3255.82684570,0.02264265
3257.75565308,0.02268973
3259.68446045,0.02266539
3261.61326782,0.02262878
3263.54207520,0.02262122
3265.47088257,0.02275876
3267.39968994,0.02268281
3269.32849731,0.02251859
3271.25730469,0.02248653
3273.18611206,0.02238868
3275.11491943,0.02238451
3277.04372681,0.02232615
3278.97253418,0.02237386
3280.90134155,0.02237865
3282.83014893,0.02232486
3284.75895630,0.02234064
3286.68776367,0.02219758
3288.61657104,0.02218889
3290.54537842,0.02219691
3292.47418579,0.02216292
3294.40299316,0.02215034
3296.33180054,0.02208748
3298.26060791,0.02203718
3300.18941528,0.02196303
3302.11822266,0.02197879
3304.04703003,0.02200200
3305.97583740,0.02197761
3307.90464478,0.02189570
3309.83345215,0.02182933
3311.76225952,0.02190793
3313.69106689,0.02184959
3315.61987427,0.02175159
3317.54868164,0.02176814
3319.47748901,0.02161688
3321.40629639,0.02163098
3323.33510376,0.02173389
3325.26391113,0.02158047
3327.19271851,0.02160712
3329.12152588,0.02162014
3331.05033325,0.02156562
3332.97914062,0.02157320
3334.90794800,0.02149710
3336.83675537,0.02141253
3338.76556274,0.02133076
3340.69437012,0.02144787
3342.62317749,0.02142968
3344.55198486,0.02126414
3346.48079224,0.02128201
3348.40959961,0.02130746
3350.33840698,0.02117803
3352.26721436,0.02102998
3354.19602173,0.02110788
3356.12482910,0.02110529
3358.05363647,0.02109756
3359.98244385,0.02102083
3361.91125122,0.02096104
3363.84005859,0.02100549
3365.76886597,0.02079494
3367.69767334,0.02073866
3369.62648071,0.02075641
3371.55528809,0.02081357
3373.48409546,0.02076518
3375.41290283,0.02068789
3377.34171020,0.02067808
3379.27051758,0.02051343
3381.19932495,0.02064699
3383.12813232,0.02049603
3385.05693970,0.02035759
3386.98574707,0.02049673
3388.91455444,0.02042444
3390.84336182,0.02030879
3392.77216919,0.02017180
3394.70097656,0.02026928
3396.62978394,0.02009264
3398.55859131,0.02008532
3400.48739868,0.02020780
3402.41620605,0.02000085
3404.34501343,0.02012853
3406.27382080,0.02007196
3408.20262817,0.01998105
3410.13143555,0.01994031
3412.06024292,0.01985800
3413.98905029,0.01985405
3415.91785767,0.01980003
3417.84666504,0.01987067
3419.77547241,0.01969058
3421.70427979,0.01957562
3423.63308716,0.01971258
3425.56189453,0.01968084
3427.49070190,0.01950202
3429.41950928,0.01948712
3431.34831665,0.01952013
3433.27712402,0.01943944
3435.20593140,0.01939629
3437.13473877,0.01932187
3439.06354614,0.01944020
3440.99235352,0.01931197
3442.92116089,0.01911711
3444.84996826,0.01917320
3446.77877563,0.01899393
3448.70758301,0.01901173
3450.63639038,0.01915583
3452.56519775,0.01912767
3454.49400513,0.01909024
3456.42281250,0.01908743
3458.35161987,0.01900921
3460.28042725,0.01898532
3462.20923462,0.01893791
3464.13804199,0.01885818
3466.06684937,0.01891805
3467.99565674,0.01878739
3469.92446411,0.01886974
3471.85327148,0.01887021
3473.78207886,0.01870316
3475.71088623,0.01874359
3477.63969360,0.01873442
3479.56850098,0.01876011
3481.49730835,0.01851723
3483.42611572,0.01852988
3485.35492310,0.01869432
3487.28373047,0.01857628
3489.21253784,0.01856089
3491.14134521,0.01860243
3493.07015259,0.01865174
3494.99895996,0.01858660
3496.92776733,0.01857168
3498.85657471,0.01851972
3500.78538208,0.01852401
3502.71418945,0.01818595
3504.64299683,0.01813751
3506.57180420,0.01862838
3508.50061157,0.01822741
3510.42941895,0.01821392
3512.35822632,0.01844119
3514.28703369,0.01842063
3516.21584106,0.01856499
3518.14464844,0.01831832
3520.07345581,0.01846036
3522.00226318,0.01831510
3523.93107056,0.01798152
3525.85987793,0.01805429
3527.78868530,0.01796717
3529.71749268,0.01807730
3531.64630005,0.01827885
3533.57510742,0.01841328
3535.50391479,0.01822561
3537.43272217,0.01804030
3539.36152954,0.01829921
3541.29033691,0.01833116
3543.21914429,0.01814899
3545.14795166,0.01777888
3547.07675903,0.01748001
3549.00556641,0.01808547
3550.93437378,0.01816090
3552.86318115,0.01766489
3554.79198853,0.01806965
3556.72079590,0.01819067
3558.64960327,0.01813074
3560.57841064,0.01799946
3562.50721802,0.01791002
3564.43602539,0.01798218
3566.36483276,0.01672236
3568.29364014,0.01639718
3570.22244751,0.01786738
3572.15125488,0.01827884
3574.08006226,0.01797822
3576.00886963,0.01806270
3577.93767700,0.01794367
3579.86648437,0.01791962
3581.79529175,0.01794577
3583.72409912,0.01796078
3585.65290649,0.01753781
3587.58171387,0.01614352
3589.51052124,0.01666202
3591.43932861,0.01798999
3593.36813599,0.01750502
3595.29694336,0.01720902
3597.22575073,0.01750005
3599.15455811,0.01764786
3601.08336548,0.01747031
3603.01217285,0.01767977
3604.94098022,0.01797863
3606.86978760,0.01736447
3608.79859497,0.01632289
3610.72740234,0.01672027
3612.65620972,0.01712349
3614.58501709,0.01666724
3616.51382446,0.01775877
3618.44263184,0.01632428
3620.37143921,0.01602263
3622.30024658,0.01790598
3624.22905395,0.01736913
3626.15786133,0.01818615
3628.08666870,0.01532695
3630.01547607,0.01424589
3631.94428345,0.01763237
3633.87309082,0.01706642
3635.80189819,0.01755096
3637.73070557,0.01781842
3639.65951294,0.01753927
3641.58832031,0.01770720
3643.51712769,0.01755738
3645.44593506,0.01764624
3647.37474243,0.01576098
3649.30354980,0.01447821
3651.23235718,0.01474279
3653.16116455,0.01759071
3655.08997192,0.01717624
3657.01877930,0.01544447
3658.94758667,0.01781823
3660.87639404,0.01733815
3662.80520142,0.01761092
3664.73400879,0.01748729
3666.66281616,0.01734225
3668.59162354,0.01678564
3670.52043091,0.01378953
3672.44923828,0.01674801
3674.37804565,0.01580620
3676.30685303,0.01328473
3678.23566040,0.01663516
3680.16446777,0.01689488
3682.09327515,0.01704844
3684.02208252,0.01750113
3685.95088989,0.01713331
3687.87969727,0.01545937
3689.80850464,0.01431583
3691.73731201,0.01624918
3693.66611938,0.01655249
3695.59492676,0.01696882
3697.52373413,0.01700198
3699.45254150,0.01679552
3701.38134888,0.01643106
3703.31015625,0.01587033
3705.23896362,0.01723564
3707.16777100,0.01641764
3709.09657837,0.01609855
3711.02538574,0.01506901
3712.95419312,0.01427758
3714.88300049,0.01661114
3716.81180786,0.01631542
3718.74061523,0.01656666
3720.66942261,0.01617546
3722.59822998,0.01570449
3724.52703735,0.01614945
3726.45584473,0.01499857
3728.38465210,0.01634298
3730.31345947,0.01603738
3732.24226685,0.01484802
3734.17107422,0.01445881
3736.09988159,0.01372184
3738.02868896,0.01462525
3739.95749634,0.01575807
3741.88630371,0.01631066
3743.81511108,0.01263834
3745.74391846,0.01214087
3747.67272583,0.01560780
3749.60153320,0.01337035
3751.53034058,0.01245721
3753.45914795,0.01431169
3755.38795532,0.01536880
3757.31676270,0.01580076
3759.24557007,0.01466559
3761.17437744,0.01527503
3763.10318481,0.01610849
3765.03199219,0.01510302
3766.96079956,0.01542743
3768.88960693,0.01521667
3770.81841431,0.01453201
3772.74722168,0.01571625
3774.67602905,0.01578236
3776.60483643,0.01575081
3778.53364380,0.01527789
3780.46245117,0.01464721
3782.39125854,0.01564036
3784.32006592,0.01526446
3786.24887329,0.01513743
3788.17768066,0.01557361
3790.10648804,0.01543273
3792.03529541,0.01531677
3793.96410278,0.01555294
3795.89291016,0.01456015
3797.82171753,0.01453516
3799.75052490,0.01516481
3801.67933228,0.01207384
3803.60813965,0.01428508
3805.53694702,0.01524640
3807.46575439,0.01258593
3809.39456177,0.01518209
3811.32336914,0.01484785
3813.25217651,0.01545449
3815.18098389,0.01370524
3817.10979126,0.01218935
3819.03859863,0.01533485
3820.96740601,0.01234076
3822.89621338,0.01317486
3824.82502075,0.01515517
3826.75382812,0.01384303
3828.68263550,0.01497352
3830.61144287,0.01426819
3832.54025024,0.01382903
3834.46905762,0.01411800
3836.39786499,0.01348373
3838.32667236,0.01216254
3840.25547974,0.01308951
3842.18428711,0.01405653
3844.11309448,0.01349051
3846.04190186,0.01463137
3847.97070923,0.01432705
3849.89951660,0.01428295
3851.82832397,0.01270611
3853.75713135,0.00964778
3855.68593872,0.01155601
3857.61474609,0.01433691
3859.54355347,0.01397716
3861.47236084,0.01387289
3863.40116821,0.01357837
3865.32997559,0.01256607
3867.25878296,0.01406350
3869.18759033,0.01279547
3871.11639770,0.01181647
3873.04520508,0.01405387
3874.97401245,0.01291777
3876.90281982,0.01395996
3878.83162720,0.01404888
3880.76043457,0.01218506
3882.68924194,0.01404702
3884.61804932,0.01289992
3886.54685669,0.01200441
3888.47566406,0.01400944
3890.40447144,0.01315661
3892.33327881,0.01246653
3894.26208618,0.01363171
3896.19089355,0.01382138
3898.11970093,0.01318969
3900.04850830,0.01246471
3901.97731567,0.01230926
3903.90612305,0.01221445
3905.83493042,0.01243307
3907.76373779,0.01363854
3909.69254517,0.01354557
3911.62135254,0.01332393
3913.55015991,0.01361473
3915.47896728,0.01313734
3917.40777466,0.01273652
3919.33658203,0.01271334
3921.26538940,0.01322106
3923.19419678,0.01308640
3925.12300415,0.01288584
3927.05181152,0.01318980
3928.98061890,0.01321181
3930.90942627,0.01290377
3932.83823364,0.01252231
3934.76704102,0.01301799
3936.69584839,0.01309947
3938.62465576,0.01298765
3940.55346313,0.01308872
3942.48227051,0.01262016
3944.41107788,0.01275815
3946.33988525,0.01294288
3948.26869263,0.01264338
3950.19750000,0.01271566
3952.12630737,0.01292676
3954.05511475,0.01276926
3955.98392212,0.01269796
3957.91272949,0.01271058
3959.84153687,0.01272497
3961.77034424,0.01276802
3963.69915161,0.01266068
3965.62795898,0.01271081
3967.55676636,0.01264150
3969.48557373,0.01260209
3971.41438110,0.01260740
3973.34318848,0.01260547
3975.27199585,0.01248021
3977.20080322,0.01238868
3979.12961060,0.01257403
3981.05841797,0.01239637
3982.98722534,0.01243699
3984.91603271,0.01237721
3986.84484009,0.01229466
3988.77364746,0.01244598
3990.70245483,0.01228209
3992.63126221,0.01230768
3994.56006958,0.01225486
3996.48887695,0.01232446
3998.41768433,0.01225080
4000.34649170,0.01209638
4002.27529907,0.01218568
4004.20410645,0.01203335
4006.13291382,0.01203220
4008.06172119,0.01201498
4009.99052856,0.01199411
4011.91933594,0.01202118
4013.84814331,0.01200388
4015.77695068,0.01197635
4017.70575806,0.01199047
4019.63456543,0.01192530
4021.56337280,0.01176707
4023.49218018,0.01181700
4025.42098755,0.01176183
4027.34979492,0.01176993
4029.27860229,0.01170048
4031.20740967,0.01173589
4033.13621704,0.01172388
4035.06502441,0.01161653
4036.99383179,0.01180331
4038.92263916,0.01157408
4040.85144653,0.01161606
4042.78025391,0.01164218
4044.70906128,0.01146285
4046.63786865,0.01154913
4048.56667603,0.01143289
4050.49548340,0.01151502
4052.42429077,0.01154022
4054.35309814,0.01141931
4056.28190552,0.01129352
4058.21071289,0.01138510
4060.13952026,0.01139031
4062.06832764,0.01127397
4063.99713501,0.01144347
4065.92594238,0.01127154
4067.85474976,0.01121956
4069.78355713,0.01122047
4071.71236450,0.01117176
4073.64117187,0.01118255
4075.56997925,0.01106797
4077.49878662,0.01113052
4079.42759399,0.01104263
4081.35640137,0.01099375
4083.28520874,0.01105170
4085.21401611,0.01103546
4087.14282349,0.01093864
4089.07163086,0.01098579
4091.00043823,0.01104690
4092.92924561,0.01090481
4094.85805298,0.01089575
4096.78686035,0.01086868
4098.71566772,0.01091827
4100.64447510,0.01084488
4102.57328247,0.01083047
4104.50208984,0.01084343
4106.43089722,0.01071691
4108.35970459,0.01076024
4110.28851196,0.01066364
4112.21731934,0.01071546
4114.14612671,0.01064423
4116.07493408,0.01054028
4118.00374145,0.01058125
4119.93254883,0.01051480
4121.86135620,0.01057937
4123.79016357,0.01052179
4125.71897095,0.01053192
4127.64777832,0.01047318
4129.57658569,0.01040747
4131.50539307,0.01040016
4133.43420044,0.01032106
4135.36300781,0.01038340
4137.29181519,0.01035100
4139.22062256,0.01031142
4141.14942993,0.01026090
4143.07823730,0.01028568
4145.00704468,0.01030283
4146.93585205,0.01023632
4148.86465942,0.01016947
4150.79346680,0.01014226
4152.72227417,0.01023084
4154.65108154,0.01017671
4156.57988892,0.01015700
4158.50869629,0.01014124
4160.43750366,0.01010878
4162.36631103,0.01007016
4164.29511841,0.00998860
4166.22392578,0.00990413
4168.15273315,0.00989896
4170.08154053,0.00997802
4172.01034790,0.00990625
4173.93915527,0.00993958
4175.86796265,0.00981465
4177.79677002,0.00982080
4179.72557739,0.00985501
4181.65438477,0.00974340
4183.58319214,0.00987834
4185.51199951,0.00970173
4187.44080688,0.00975835
4189.36961426,0.00974898
4191.29842163,0.00968519
4193.22722900,0.00980389
4195.15603638,0.00958707
4197.08484375,0.00962105
4199.01365112,0.00953781
4200.94245850,0.00953301
4202.87126587,0.00956453
4204.80007324,0.00950118
4206.72888062,0.00954116
4208.65768799,0.00942794
4210.58649536,0.00951014
4212.51530273,0.00943368
4214.44411011,0.00941156
4216.37291748,0.00945530
4218.30172485,0.00940920
4220.23053223,0.00937278
4222.15933960,0.00930322
4224.08814697,0.00934264
4226.01695435,0.00919011
4227.94576172,0.00927781
4229.87456909,0.00935220
4231.80337646,0.00920888
4233.73218384,0.00917950
4235.66099121,0.00916797
4237.58979858,0.00917563
4239.51860596,0.00904873
4241.44741333,0.00900448
4243.37622070,0.00899719
4245.30502808,0.00904887
4247.23383545,0.00903465
4249.16264282,0.00897383
4251.09145020,0.00897661
4253.02025757,0.00894384
4254.94906494,0.00898337
4256.87787231,0.00884349
4258.80667969,0.00890756
4260.73548706,0.00899479
4262.66429443,0.00886071
4264.59310181,0.00880452
4266.52190918,0.00882965
4268.45071655,0.00887832
4270.37952393,0.00878203
4272.30833130,0.00880631
4274.23713867,0.00875190
4276.16594604,0.00873117
4278.09475342,0.00869064
4280.02356079,0.00861516
4281.95236816,0.00870359
4283.88117554,0.00864307
4285.80998291,0.00871247
4287.73879028,0.00858380
4289.66759766,0.00856317
4291.59640503,0.00864404
4293.52521240,0.00854127
4295.45401978,0.00859826
4297.38282715,0.00839152
4299.31163452,0.00842308
4301.24044189,0.00852329
4303.16924927,0.00841895
4305.09805664,0.00846296
4307.02686401,0.00849012
4308.95567139,0.00848360
4310.88447876,0.00835647
4312.81328613,0.00834120
4314.74209351,0.00834690
4316.67090088,0.00837782
4318.59970825,0.00838226
4320.52851562,0.00826674
4322.45732300,0.00827188
4324.38613037,0.00825631
4326.31493774,0.00817718
4328.24374512,0.00809426
4330.17255249,0.00816021
4332.10135986,0.00818080
4334.03016724,0.00810665
4335.95897461,0.00805563
4337.88778198,0.00801631
4339.81658936,0.00807671
4341.74539673,0.00809421
4343.67420410,0.00805041
4345.60301147,0.00793908
4347.53181885,0.00790873
4349.46062622,0.00789627
4351.38943359,0.00789660
4353.31824097,0.00794770
4355.24704834,0.00793359
4357.17585571,0.00787376
4359.10466309,0.00777823
4361.03347046,0.00790601
4362.96227783,0.00789518
4364.89108520,0.00779898
4366.81989258,0.00780844
4368.74869995,0.00773032
4370.67750732,0.00775384
4372.60631470,0.00771664
4374.53512207,0.00771486
4376.46392944,0.00768992
4378.39273682,0.00770392
4380.32154419,0.00769948
4382.25035156,0.00756882
4384.17915894,0.00761639
4386.10796631,0.00758909
4388.03677368,0.00757167
4389.96558105,0.00758466
4391.89438843,0.00757840
4393.82319580,0.00758131
4395.75200317,0.00753754
4397.68081055,0.00749331
4399.60961792,0.00748315
4401.53842529,0.00754961
4403.46723267,0.00740427
4405.39604004,0.00732348
4407.32484741,0.00738459
4409.25365478,0.00742816
4411.18246216,0.00744467
4413.11126953,0.00734147
4415.04007690,0.00736378
4416.96888428,0.00735279
4418.89769165,0.00729362
4420.82649902,0.00726996
4422.75530640,0.00725871
4424.68411377,0.00722649
4426.61292114,0.00724056
4428.54172852,0.00725020
4430.47053589,0.00711102
4432.39934326,0.00722508
4434.32815063,0.00727493
4436.25695801,0.00712536
4438.18576538,0.00712895
4440.11457275,0.00713785
4442.04338013,0.00705122
4443.97218750,0.00701232
4445.90099487,0.00704502
4447.82980225,0.00698816
4449.75860962,0.00706148
4451.68741699,0.00704547
4453.61622437,0.00697424
4455.54503174,0.00694528
4457.47383911,0.00684450
4459.40264648,0.00696646
4461.33145386,0.00690548
4463.26026123,0.00679820
4465.18906860,0.00687923
4467.11787598,0.00689629
4469.04668335,0.00687818
4470.97549072,0.00684444
4472.90429810,0.00681165
4474.83310547,0.00673034
4476.76191284,0.00674318
4478.69072021,0.00677885
4480.61952759,0.00677407
4482.54833496,0.00668569
4484.47714233,0.00663569
4486.40594971,0.00667108
4488.33475708,0.00666807
4490.26356445,0.00666488
4492.19237183,0.00655877
4494.12117920,0.00664845
4496.04998657,0.00660734
4497.97879395,0.00649615
4499.90760132,0.00656785
4501.83640869,0.00646525
4503.76521606,0.00650832
4505.69402344,0.00651979
4507.62283081,0.00654099
4509.55163818,0.00651173
4511.48044556,0.00638595
4513.40925293,0.00647505
4515.33806030,0.00644956
4517.26686768,0.00641349
4519.19567505,0.00642047
4521.12448242,0.00642018
4523.05328979,0.00638351
4524.98209717,0.00634160
4526.91090454,0.00638750
4528.83971191,0.00639471
4530.76851929,0.00632537
4532.69732666,0.00628408
4534.62613403,0.00632214
4536.55494141,0.00621365
4538.48374878,0.00620267
4540.41255615,0.00621059
4542.34136353,0.00616574
4544.27017090,0.00622712
4546.19897827,0.00620595
4548.12778564,0.00620854
4550.05659302,0.00615895
4551.98540039,0.00614822
4553.91420776,0.00610658
4555.84301514,0.00610052
4557.77182251,0.00610783
4559.70062988,0.00605394
4561.62943726,0.00609027
4563.55824463,0.00596333
4565.48705200,0.00602701
4567.41585937,0.00602126
4569.34466675,0.00595347
4571.27347412,0.00601516
4573.20228149,0.00592308
4575.13108887,0.00598036
4577.05989624,0.00592397
4578.98870361,0.00596342
4580.91751099,0.00599458
4582.84631836,0.00583853
4584.77512573,0.00580001
4586.70393311,0.00579101
4588.63274048,0.00584978
4590.56154785,0.00578165
4592.49035522,0.00577561
4594.41916260,0.00574585
4596.34796997,0.00575094
4598.27677734,0.00580959
4600.20558472,0.00575640
4602.13439209,0.00577316
4604.06319946,0.00562779
4605.99200684,0.00567925
4607.92081421,0.00570117
4609.84962158,0.00559502
4611.77842895,0.00566117
4613.70723633,0.00561207
4615.63604370,0.00564166
4617.56485107,0.00565535
4619.49365845,0.00565901
4621.42246582,0.00560751
4623.35127319,0.00553875
4625.28008057,0.00559345
4627.20888794,0.00552992
4629.13769531,0.00552006
4631.06650269,0.00556156
4632.99531006,0.00555461
4634.92411743,0.00554883
4636.85292480,0.00551396
4638.78173218,0.00542875
4640.71053955,0.00537658
4642.63934692,0.00536563
4644.56815430,0.00537424
4646.49696167,0.00538202
4648.42576904,0.00532109
4650.35457642,0.00532455
4652.28338379,0.00533037
4654.21219116,0.00533477
4656.14099853,0.00531511
4658.06980591,0.00527978
4659.99861328,0.00526650
4661.92742065,0.00526944
4663.85622803,0.00530735
4665.78503540,0.00522725
4667.71384277,0.00525624
4669.64265015,0.00523702
4671.57145752,0.00519500
4673.50026489,0.00526270
4675.42907227,0.00522092
4677.35787964,0.00518878
4679.28668701,0.00510608
4681.21549438,0.00521384
4683.14430176,0.00512734
4685.07310913,0.00495094
4687.00191650,0.00514874
4688.93072388,0.00508300
4690.85953125,0.00504636
4692.78833862,0.00505902
4694.71714600,0.00502574
4696.64595337,0.00508614
4698.57476074,0.00498556
4700.50356812,0.00505238
4702.43237549,0.00505565
4704.36118286,0.00492728
4706.28999023,0.00499880
4708.21879761,0.00496920
4710.14760498,0.00493574
4712.07641235,0.00504083
4714.00521973,0.00496470
4715.93402710,0.00485099
4717.86283447,0.00486809
4719.79164185,0.00488052
4721.72044922,0.00492793
4723.64925659,0.00491637
4725.57806396,0.00483920
4727.50687134,0.00484106
4729.43567871,0.00484250
4731.36448608,0.00477097
4733.29329346,0.00482325
4735.22210083,0.00484713
4737.15090820,0.00470746
4739.07971558,0.00476400
4741.00852295,0.00480552
4742.93733032,0.00475773
4744.86613770,0.00479024
4746.79494507,0.00473261
4748.72375244,0.00469022
4750.65255981,0.00475067
4752.58136719,0.00476382
4754.51017456,0.00470975
4756.43898193,0.00472844
4758.36778931,0.00468411
4760.29659668,0.00461843
4762.22540405,0.00464060
4764.15421143,0.00459570
4766.08301880,0.00456443
4768.01182617,0.00458054
4769.94063354,0.00460105
4771.86944092,0.00459714
4773.79824829,0.00455610
4775.72705566,0.00452853
4777.65586304,0.00459154
4779.58467041,0.00453854
4781.51347778,0.00447541
4783.44228516,0.00457374
4785.37109253,0.00444008
4787.29989990,0.00442192
4789.22870728,0.00452454
4791.15751465,0.00447943
4793.08632202,0.00445482
4795.01512939,0.00436066
4796.94393677,0.00438574
4798.87274414,0.00440005
4800.80155151,0.00436111
4802.73035889,0.00436755
4804.65916626,0.00439579
4806.58797363,0.00437884
4808.51678101,0.00430102
4810.44558838,0.00442230
4812.37439575,0.00438525
4814.30320312,0.00428206
4816.23201050,0.00433757
4818.16081787,0.00431790
4820.08962524,0.00428954
4822.01843262,0.00424197
4823.94723999,0.00429265
4825.87604736,0.00435366
4827.80485474,0.00427462
4829.73366211,0.00419022
4831.66246948,0.00421586
4833.59127686,0.00423139
4835.52008423,0.00418728
4837.44889160,0.00418270
4839.37769897,0.00413906
4841.30650635,0.00411275
4843.23531372,0.00411864
4845.16412109,0.00416650
4847.09292847,0.00415777
4849.02173584,0.00408625
4850.95054321,0.00405510
4852.87935059,0.00407368
4854.80815796,0.00415995
4856.73696533,0.00411068
4858.66577270,0.00405719
4860.59458008,0.00404918
4862.52338745,0.00405915
4864.45219482,0.00405763
4866.38100220,0.00400987
4868.30980957,0.00405201
4870.23861694,0.00399981
4872.16742432,0.00397632
4874.09623169,0.00393073
4876.02503906,0.00393752
4877.95384644,0.00403755
4879.88265381,0.00396776
4881.81146118,0.00398835
4883.74026855,0.00391234
4885.66907593,0.00384360
4887.59788330,0.00390922
4889.52669067,0.00384205
4891.45549805,0.00386280
4893.38430542,0.00389892
4895.31311279,0.00386195
4897.24192017,0.00386816
4899.17072754,0.00384154
4901.09953491,0.00375318
4903.02834228,0.00371867
4904.95714966,0.00376108
4906.88595703,0.00378348
4908.81476440,0.00371559
4910.74357178,0.00373261
4912.67237915,0.00379678
4914.60118652,0.00374079
4916.52999390,0.00378790
4918.45880127,0.00375883
4920.38760864,0.00368879
4922.31641602,0.00371306
4924.24522339,0.00369594
4926.17403076,0.00370810
4928.10283813,0.00366908
4930.03164551,0.00371646
4931.96045288,0.00373209
4933.88926025,0.00364825
4935.81806763,0.00362923
4937.74687500,0.00360689
4939.67568237,0.00361009
4941.60448975,0.00358848
4943.53329712,0.00356870
4945.46210449,0.00361916
4947.39091187,0.00369918
4949.31971924,0.00358369
4951.24852661,0.00348328
4953.17733398,0.00355828
4955.10614136,0.00357415
4957.03494873,0.00356341
4958.96375610,0.00352721
4960.89256348,0.00358519
4962.82137085,0.00348820
4964.75017822,0.00346313
4966.67898560,0.00357044
4968.60779297,0.00341482
4970.53660034,0.00346414
4972.46540771,0.00347438
4974.39421509,0.00344567
4976.32302246,0.00350175
4978.25182983,0.00343005
4980.18063721,0.00343315
4982.10944458,0.00337853
4984.03825195,0.00340217
4985.96705933,0.00344178
4987.89586670,0.00344710
4989.82467407,0.00339805
4991.75348145,0.00327716
4993.68228882,0.00329658
4995.61109619,0.00334709
4997.53990356,0.00344022
4999.46871094,0.00334374
5001.39751831,0.00328097
5003.32632568,0.00337134
5005.25513306,0.00331480
5007.18394043,0.00332780
5009.11274780,0.00327568
5011.04155518,0.00326264
5012.97036255,0.00331431
5014.89916992,0.00327727
5016.82797729,0.00331886
5018.75678467,0.00327193
5020.68559204,0.00326474
5022.61439941,0.00331339
5024.54320679,0.00320484
5026.47201416,0.00317126
5028.40082153,0.00319480
5030.32962891,0.00320167
5032.25843628,0.00319735
5034.18724365,0.00310769
5036.11605103,0.00313310
5038.04485840,0.00319424
5039.97366577,0.00313919
5041.90247314,0.00310248
5043.83128052,0.00312240
5045.76008789,0.00310748
5047.68889526,0.00304624
5049.61770264,0.00309262
5051.54651001,0.00308712
5053.47531738,0.00306727
5055.40412476,0.00312755
5057.33293213,0.00307609
5059.26173950,0.00308302
5061.19054687,0.00305597
5063.11935425,0.00294101
5065.04816162,0.00300629
5066.97696899,0.00305829
5068.90577637,0.00300472
5070.83458374,0.00306166
5072.76339111,0.00300305
5074.69219849,0.00294241
5076.62100586,0.00305663
5078.54981323,0.00293200
5080.47862061,0.00292521
5082.40742798,0.00303507
5084.33623535,0.00298203
5086.26504272,0.00303426
5088.19385010,0.00297450
5090.12265747,0.00292303
5092.05146484,0.00295050
5093.98027222,0.00293449
5095.90907959,0.00292804
5097.83788696,0.00288506
5099.76669434,0.00289967
5101.69550171,0.00291133
5103.62430908,0.00288602
5105.55311645,0.00286464
5107.48192383,0.00288736
5109.41073120,0.00288022
5111.33953857,0.00284546
5113.26834595,0.00285178
5115.19715332,0.00288914
5117.12596069,0.00289508
5119.05476807,0.00277285
5120.98357544,0.00281245
5122.91238281,0.00285430
5124.84119019,0.00278110
5126.76999756,0.00278452
5128.69880493,0.00276882
5130.62761230,0.00280642
5132.55641968,0.00278819
5134.48522705,0.00279122
5136.41403442,0.00273907
5138.34284180,0.00267979
5140.27164917,0.00278491
5142.20045654,0.00271446
5144.12926392,0.00268752
5146.05807129,0.00272755
5147.98687866,0.00273330
5149.91568603,0.00272301
5151.84449341,0.00265093
5153.77330078,0.00275505
5155.70210815,0.00268858
5157.63091553,0.00259058
5159.55972290,0.00269285
5161.48853027,0.00262779
5163.41733765,0.00265243
5165.34614502,0.00266412
5167.27495239,0.00262731
5169.20375977,0.00269053
5171.13256714,0.00259778
5173.06137451,0.00261232
5174.99018188,0.00261283
5176.91898926,0.00257805
5178.84779663,0.00263852
5180.77660400,0.00257693
5182.70541138,0.00264479
5184.63421875,0.00262233
5186.56302612,0.00255136
5188.49183350,0.00257485
5190.42064087,0.00254895
5192.34944824,0.00261013
5194.27825562,0.00248738
5196.20706299,0.00247647
5198.13587036,0.00255924
5200.06467773,0.00243240
5201.99348511,0.00248164
5203.92229248,0.00258137
5205.85109985,0.00250792
5207.77990723,0.00237273
5209.70871460,0.00237757
5211.63752197,0.00242930
5213.56632935,0.00246497
5215.49513672,0.00249011
5217.42394409,0.00242305
5219.35275146,0.00242167
5221.28155884,0.00244445
5223.21036621,0.00245855
5225.13917358,0.00242037
5227.06798096,0.00242992
5228.99678833,0.00250322
5230.92559570,0.00248521
5232.85440308,0.00245842
5234.78321045,0.00239384
5236.71201782,0.00237865
5238.64082520,0.00238610
5240.56963257,0.00239886
5242.49843994,0.00236946
5244.42724731,0.00229336
5246.35605469,0.00234375
5248.28486206,0.00231242
5250.21366943,0.00231320
5252.14247681,0.00243152
5254.07128418,0.00237747
5256.00009155,0.00226734
5257.92889893,0.00230871
5259.85770630,0.00234543
5261.78651367,0.00230969
5263.71532104,0.00226865
5265.64412842,0.00224505
5267.57293579,0.00233390
5269.50174316,0.00235062
5271.43055054,0.00233684
5273.35935791,0.00235488
5275.28816528,0.00228217
5277.21697266,0.00224621
5279.14578003,0.00223327
5281.07458740,0.00227124
5283.00339478,0.00223756
5284.93220215,0.00217469
5286.86100952,0.00223257
5288.78981689,0.00219405
5290.71862427,0.00215446
5292.64743164,0.00222000
5294.57623901,0.00220849
5296.50504639,0.00217593
5298.43385376,0.00219446
5300.36266113,0.00214970
5302.29146851,0.00217693
5304.22027588,0.00218160
5306.14908325,0.00209392
5308.07789062,0.00208954
5310.00669800,0.00208519
5311.93550537,0.00212037
5313.86431274,0.00214206
5315.79312012,0.00217424
5317.72192749,0.00218138
5319.65073486,0.00213778
5321.57954224,0.00211855
5323.50834961,0.00209211
5325.43715698,0.00213265
5327.36596436,0.00202113
5329.29477173,0.00198646
5331.22357910,0.00210432
5333.15238647,0.00210371
5335.08119385,0.00211948
5337.01000122,0.00207613
5338.93880859,0.00201240
5340.86761597,0.00203490
5342.79642334,0.00204987
5344.72523071,0.00198561
5346.65403809,0.00205590
5348.58284546,0.00202740
5350.51165283,0.00197648
5352.44046020,0.00210771
5354.36926758,0.00194725
5356.29807495,0.00200197
5358.22688232,0.00204501
5360.15568970,0.00193626
5362.08449707,0.00203622
5364.01330444,0.00195299
5365.94211182,0.00203766
5367.87091919,0.00202617
5369.79972656,0.00193226
5371.72853394,0.00196278
5373.65734131,0.00195145
5375.58614868,0.00204814
5377.51495605,0.00195439
5379.44376343,0.00196069
5381.37257080,0.00202324
5383.30137817,0.00196214
5385.23018555,0.00193773
5387.15899292,0.00189486
5389.08780029,0.00193727
5391.01660767,0.00196432
5392.94541504,0.00188735
5394.87422241,0.00176624
5396.80302978,0.00192302
5398.73183716,0.00198977
5400.66064453,0.00183441
5402.58945190,0.00191253
5404.51825928,0.00191653
5406.44706665,0.00188461
5408.37587402,0.00187360
5410.30468140,0.00187675
5412.23348877,0.00188479
5414.16229614,0.00182010
5416.09110352,0.00185120
5418.01991089,0.00185906
5419.94871826,0.00185003
5421.87752563,0.00183024
5423.80633301,0.00183964
5425.73514038,0.00189209
5427.66394775,0.00183648
5429.59275513,0.00173972
5431.52156250,0.00176146
5433.45036987,0.00181062
5435.37917725,0.00175395
5437.30798462,0.00182068
5439.23679199,0.00180494
5441.16559936,0.00169446
5443.09440674,0.00181719
5445.02321411,0.00180617
5446.95202148,0.00171016
5448.88082886,0.00176476
5450.80963623,0.00173745
5452.73844360,0.00173147
5454.66725098,0.00172559
5456.59605835,0.00167759
5458.52486572,0.00176776
5460.45367310,0.00173212
5462.38248047,0.00167276
5464.31128784,0.00172540
5466.24009521,0.00173450
5468.16890259,0.00175629
5470.09770996,0.00169669
5472.02651733,0.00176041
5473.95532471,0.00176827
5475.88413208,0.00166444
5477.81293945,0.00173670
5479.74174683,0.00167122
5481.67055420,0.00164147
5483.59936157,0.00168525
5485.52816895,0.00163071
5487.45697632,0.00162426
5489.38578369,0.00162274
5491.31459106,0.00162318
5493.24339844,0.00163026
5495.17220581,0.00165764
5497.10101318,0.00166958
5499.02982056,0.00165755
5500.95862793,0.00160868
5502.88743530,0.00160525
5504.81624268,0.00165045
5506.74505005,0.00159877
5508.67385742,0.00159246
5510.60266479,0.00162481
5512.53147217,0.00158929
5514.46027954,0.00159623
5516.38908691,0.00164065
5518.31789429,0.00159220
5520.24670166,0.00158723
5522.17550903,0.00156683
5524.10431641,0.00156074
5526.03312378,0.00169351
5527.96193115,0.00160730
5529.89073853,0.00157067
5531.81954590,0.00155929
5533.74835327,0.00146420
5535.67716064,0.00158721
5537.60596802,0.00154954
5539.53477539,0.00148691
5541.46358276,0.00151695
5543.39239014,0.00154225
5545.32119751,0.00155187
5547.25000488,0.00148132
5549.17881226,0.00159537
5551.10761963,0.00158641
5553.03642700,0.00146981
5554.96523437,0.00157209
5556.89404175,0.00159885
5558.82284912,0.00148817
5560.75165649,0.00146266
5562.68046387,0.00150450
5564.60927124,0.00151623
5566.53807861,0.00154862
5568.46688599,0.00148952
5570.39569336,0.00142510
5572.32450073,0.00147199
5574.25330811,0.00149074
5576.18211548,0.00150372
5578.11092285,0.00148644
5580.03973022,0.00147572
5581.96853760,0.00148567
5583.89734497,0.00145449
5585.82615234,0.00143771
5587.75495972,0.00144171
5589.68376709,0.00144068
5591.61257446,0.00146515
5593.54138184,0.00146647
5595.47018921,0.00141524
5597.39899658,0.00143824
5599.32780395,0.00143330
5601.25661133,0.00140064
5603.18541870,0.00141077
5605.11422607,0.00137137
5607.04303345,0.00136961
5608.97184082,0.00135188
5610.90064819,0.00137189
5612.82945557,0.00141849
5614.75826294,0.00136509
5616.68707031,0.00136086
5618.61587769,0.00135203
5620.54468506,0.00134971
5622.47349243,0.00138659
5624.40229980,0.00139677
5626.33110718,0.00139140
5628.25991455,0.00138936
5630.18872192,0.00140362
5632.11752930,0.00134090
5634.04633667,0.00134532
5635.97514404,0.00134541
5637.90395142,0.00132289
5639.83275879,0.00141278
5641.76156616,0.00140116
5643.69037353,0.00138059
5645.61918091,0.00130356
5647.54798828,0.00129194
5649.47679565,0.00133072
5651.40560303,0.00124620
5653.33441040,0.00137046
5655.26321777,0.00136018
5657.19202515,0.00130954
5659.12083252,0.00139317
5661.04963989,0.00129517
5662.97844727,0.00126726
5664.90725464,0.00130004
5666.83606201,0.00130643
5668.76486938,0.00128241
5670.69367676,0.00132679
5672.62248413,0.00134266
5674.55129150,0.00129909
5676.48009888,0.00131258
5678.40890625,0.00124797
5680.33771362,0.00128992
5682.26652100,0.00125594
5684.19532837,0.00126344
5686.12413574,0.00133632
5688.05294311,0.00126646
5689.98175049,0.00129154
5691.91055786,0.00122479
5693.83936523,0.00126118
5695.76817261,0.00129384
5697.69697998,0.00121207
5699.62578735,0.00125412
5701.55459473,0.00125213
5703.48340210,0.00124551
5705.41220947,0.00124292
5707.34101685,0.00127731
5709.26982422,0.00122015
5711.19863159,0.00121321
5713.12743896,0.00124743
5715.05624634,0.00117492
5716.98505371,0.00116702
5718.91386108,0.00115974
5720.84266846,0.00125137
5722.77147583,0.00118219
5724.70028320,0.00115508
5726.62909058,0.00120120
5728.55789795,0.00110089
5730.48670532,0.00118603
5732.41551270,0.00116752
5734.34432007,0.00117736
5736.27312744,0.00117825
5738.20193481,0.00114561
5740.13074219,0.00117394
5742.05954956,0.00106504
5743.98835693,0.00115901
5745.91716431,0.00119445
5747.84597168,0.00109617
5749.77477905,0.00110606
5751.70358643,0.00116081
5753.63239380,0.00115264
5755.56120117,0.00109956
5757.49000854,0.00113316
5759.41881592,0.00109875
5761.34762329,0.00110810
5763.27643066,0.00111544
5765.20523804,0.00110218
5767.13404541,0.00110975
5769.06285278,0.00108617
5770.99166016,0.00107699
5772.92046753,0.00106343
5774.84927490,0.00115576
5776.77808228,0.00111231
5778.70688965,0.00106353
5780.63569702,0.00112841
5782.56450439,0.00112259
5784.49331177,0.00112271
5786.42211914,0.00104873
5788.35092651,0.00102481
5790.27973389,0.00102892
5792.20854126,0.00102843
5794.13734863,0.00104801
5796.06615601,0.00105398
5797.99496338,0.00108186
5799.92377075,0.00110028
5801.85257812,0.00109758
5803.78138550,0.00102154
5805.71019287,0.00104040
5807.63900024,0.00103467
5809.56780762,0.00099888
5811.49661499,0.00108565
5813.42542236,0.00107698
5815.35422974,0.00103603
5817.28303711,0.00103784
5819.21184448,0.00105956
5821.14065186,0.00106140
5823.06945923,0.00100769
5824.99826660,0.00096462
5826.92707397,0.00101102
5828.85588135,0.00101445
5830.78468872,0.00096990
5832.71349609,0.00106161
5834.64230347,0.00108252
5836.57111084,0.00101192
5838.49991821,0.00096936
5840.42872559,0.00099260
5842.35753296,0.00098595
5844.28634033,0.00099180
5846.21514770,0.00101365
5848.14395508,0.00090633
5850.07276245,0.00101604
5852.00156982,0.00105017
5853.93037720,0.00096795
5855.85918457,0.00102345
5857.78799194,0.00095216
5859.71679932,0.00097359
5861.64560669,0.00097882
5863.57441406,0.00092981
5865.50322144,0.00094748
5867.43202881,0.00093487
5869.36083618,0.00094333
5871.28964355,0.00095446
5873.21845093,0.00098673
5875.14725830,0.00098913
5877.07606567,0.00098832
5879.00487305,0.00095734
5880.93368042,0.00093564
5882.86248779,0.00095035
5884.79129517,0.00094902
5886.72010254,0.00090966
5888.64890991,0.00081981
5890.57771728,0.00090401
5892.50652466,0.00097355
5894.43533203,0.00090015
5896.36413940,0.00092171
5898.29294678,0.00095995
5900.22175415,0.00092593
5902.15056152,0.00090249
5904.07936890,0.00087139
5906.00817627,0.00091319
5907.93698364,0.00097926
5909.86579102,0.00086834
5911.79459839,0.00086876
5913.72340576,0.00085999
5915.65221313,0.00084806
5917.58102051,0.00092302
5919.50982788,0.00084404
5921.43863525,0.00093832
5923.36744263,0.00092140
5925.29625000,0.00081251
5927.22505737,0.00085415
5929.15386475,0.00082550
5931.08267212,0.00084788
5933.01147949,0.00084111
5934.94028686,0.00088736
5936.86909424,0.00086200
5938.79790161,0.00083140
5940.72670898,0.00087554
5942.65551636,0.00083871
5944.58432373,0.00091095
5946.51313110,0.00087452
5948.44193848,0.00083862
5950.37074585,0.00086005
5952.29955322,0.00081842
5954.22836060,0.00088088
5956.15716797,0.00086339
5958.08597534,0.00081921
5960.01478271,0.00086081
5961.94359009,0.00081255
5963.87239746,0.00077621
5965.80120483,0.00083625
5967.73001221,0.00083262
5969.65881958,0.00081338
5971.58762695,0.00076273
5973.51643433,0.00076979
5975.44524170,0.00083407
5977.37404907,0.00082499
5979.30285645,0.00084142
5981.23166382,0.00077439
5983.16047119,0.00080442
5985.08927856,0.00081672
5987.01808594,0.00075854
5988.94689331,0.00081092
5990.87570068,0.00079019
5992.80450806,0.00080722
5994.73331543,0.00075351
5996.66212280,0.00077913
5998.59093018,0.00077754
6000.51973755,0.00071208
