399.26312622,0.00288341
401.19193359,0.00297518
403.12074097,0.00273133
405.04954834,0.00356301
406.97835571,0.00390964
408.90716309,0.00288029
410.83597046,0.00364196
412.76477783,0.00464920
414.69358521,0.00338370
416.62239258,0.00345308
418.55119995,0.00452174
420.48000732,0.00370680
422.40881470,0.00286319
424.33762207,0.00478177
426.26642944,0.00592517
428.19523682,0.00338003
430.12404419,0.00276082
432.05285156,0.00486124
433.98165894,0.00450633
435.91046631,0.00298562
437.83927368,0.00386861
439.76808105,0.00462236
441.69688843,0.00327825
443.62569580,0.00328985
445.55450317,0.00427743
447.48331055,0.00349028
449.41211792,0.00293306
451.34092529,0.00360751
453.26973267,0.00355798
455.19854004,0.00277123
457.12734741,0.00252259
459.05615479,0.00281279
460.98496216,0.00246552
462.91376953,0.00209874
464.84257690,0.00243105
466.77138428,0.00152805
468.70019165,0.00107180
470.62899902,0.00187918
472.55780640,0.00128630
474.48661377,0.00082109
476.41542114,0.00125221
478.34422852,0.00135019
480.27303589,0.00079796
482.20184326,0.00080566
484.13065063,0.00155071
486.05945801,0.00056032
487.98826538,0.00051874
489.91707275,0.00194615
491.84588013,0.00070221
493.77468750,-0.00005145
495.70349487,0.00109140
497.63230225,0.00067315
499.56110962,0.00006384
501.48991699,0.00055651
503.41872437,0.00073850
505.34753174,0.00010836
507.27633911,0.00042505
509.20514648,0.00121168
511.13395386,0.00075950
513.06276123,0.00046597
514.99156860,-0.00000424
516.92037598,0.00010518
518.84918335,0.00062696
520.77799072,0.00076344
522.70679810,0.00078279
524.63560547,0.00045245
526.56441284,0.00063031
528.49322021,0.00010704
530.42202759,0.00021841
532.35083496,0.00075043
534.27964233,0.00051306
536.20844971,0.00056819
538.13725708,0.00010580
540.06606445,0.00015248
541.99487183,0.00040471
543.92367920,0.00063402
545.85248657,0.00073116
547.78129395,0.00038120
549.71010132,0.00031952
551.63890869,0.00034855
553.56771606,0.00061713
555.49652344,0.00056617
557.42533081,0.00054997
559.35413818,0.00021392
561.28294556,0.00016711
563.21175293,0.00064172
565.14056030,0.00041084
567.06936768,0.00057112
568.99817505,0.00042087
570.92698242,0.00012631
572.85578979,0.00038833
574.78459717,0.00045032
576.71340454,0.00047769
578.64221191,0.00056122
580.57101929,0.00032298
582.49982666,-0.00001627
584.42863403,0.00033649
586.35744141,0.00046512
588.28624878,0.00020380
590.21505615,0.00026844
592.14386353,0.00022137
594.07267090,0.00036465
596.00147827,0.00044523
597.93028564,0.00019433
599.85909302,0.00013849
601.78790039,0.00021726
603.71670776,0.00000487
605.64551514,0.00014109
607.57432251,0.00008178
609.50312988,-0.00027534
611.43193726,0.00023109
613.36074463,0.00017890
615.28955200,-0.00004800
617.21835938,0.00004259
619.14716675,-0.00013373
621.07597412,0.00014544
623.00478149,0.00011554
624.93358887,-0.00014887
626.86239624,-0.00015407
628.79120361,0.00016882
630.72001099,0.00096864
632.64881836,0.00204575
634.57762573,0.00256500
636.50643311,0.00283639
638.43524048,0.00333448
640.36404785,0.00316606
642.29285522,0.00360829
644.22166260,0.00416361
646.15046997,0.00435506
648.07927734,0.00482109
650.00808472,0.00458084
651.93689209,0.00503752
653.86569946,0.00583318
655.79450684,0.00562284
657.72331421,0.00577826
659.65212158,0.00627324
661.58092896,0.00608769
663.50973633,0.00637168
665.43854370,0.00676027
667.36735107,0.00614385
669.29615845,0.00659799
671.22496582,0.00728962
673.15377319,0.00728524
675.08258057,0.00797041
677.01138794,0.00839945
678.94019531,0.00831335
680.86900269,0.00834168
682.79781006,0.00832631
684.72661743,0.00826704
686.65542480,0.00829672
688.58423218,0.00835383
690.51303955,0.00875381
692.44184692,0.00918242
694.37065430,0.00969660
696.29946167,0.01097072
698.22826904,0.01255026
700.15707642,0.01347431
702.08588379,0.01301648
704.01469116,0.01218348
705.94349854,0.01091080
707.87230591,0.00944820
709.80111328,0.00773816
711.72992065,0.00505213
713.65872803,0.00331367
715.58753540,0.00179274
717.51634277,0.00089652
719.44515015,0.00076710
721.37395752,0.00033350
723.30276489,0.00054577
725.23157227,0.00017082
727.16037964,-0.00004909
729.08918701,-0.00003197
731.01799438,-0.00015989
732.94680176,-0.00002458
734.87560913,-0.00000813
736.80441650,0.00002992
738.73322388,-0.00040507
740.66203125,0.00000201
742.59083862,0.00015198
744.51964600,-0.00012283
746.44845337,0.00005349
748.37726074,-0.00004685
750.30606812,0.00035752
752.23487549,0.00031585
754.16368286,0.00023373
756.09249023,0.00026007
758.02129761,0.00010785
759.95010498,0.00030891
761.87891235,0.00038950
763.80771973,0.00031104
765.73652710,0.00008940
767.66533447,0.00040100
769.59414185,0.00053114
771.52294922,0.00048562
773.45175659,0.00063214
775.38056396,0.00038146
777.30937134,0.00051319
779.23817871,0.00055927
781.16698608,0.00069812
783.09579346,0.00079161
785.02460083,0.00065530
786.95340820,0.00074710
788.88221558,0.00067539
790.81102295,0.00071483
792.73983032,0.00086150
794.66863770,0.00093773
796.59744507,0.00089507
798.52625244,0.00146089
800.45505981,0.00175472
802.38386719,0.00142930
804.31267456,0.00128892
806.24148193,0.00073521
808.17028931,0.00076109
810.09909668,0.00072442
812.02790405,0.00048123
813.95671143,0.00087611
815.88551880,0.00085527
817.81432617,0.00057752
819.74313354,0.00056977
821.67194092,0.00074240
823.60074829,0.00072502
825.52955566,0.00096611
827.45836304,0.00101996
829.38717041,0.00134009
831.31597778,0.00220616
833.24478516,0.00218979
835.17359253,0.00257094
837.10239990,0.00278475
839.03120728,0.00250541
840.96001465,0.00258092
842.88882202,0.00230260
844.81762939,0.00222198
846.74643677,0.00202038
848.67524414,0.00183055
850.60405151,0.00188563
852.53285889,0.00170765
854.46166626,0.00149972
856.39047363,0.00132569
858.31928101,0.00131916
860.24808838,0.00116175
862.17689575,0.00074032
864.10570313,0.00083935
866.03451050,0.00098993
867.96331787,0.00039340
869.89212524,0.00035525
871.82093262,0.00052395
873.74973999,0.00042941
875.67854736,0.00060802
877.60735474,0.00035499
879.53616211,0.00041828
881.46496948,0.00048493
883.39377686,0.00031192
885.32258423,0.00050061
887.25139160,0.00046807
889.18019897,0.00048910
891.10900635,0.00038767
893.03781372,0.00044492
894.96662109,0.00062187
896.89542847,0.00046454
898.82423584,0.00052208
900.75304321,0.00037682
902.68185059,0.00034036
904.61065796,0.00079376
906.53946533,0.00085126
908.46827271,0.00073907
910.39708008,0.00094825
912.32588745,0.00112712
914.25469482,0.00131141
916.18350220,0.00120170
918.11230957,0.00149141
920.04111694,0.00212033
921.96992432,0.00187546
923.89873169,0.00211669
925.82753906,0.00241331
927.75634644,0.00255090
929.68515381,0.00291065
931.61396118,0.00273536
933.54276855,0.00328975
935.47157593,0.00356725
937.40038330,0.00349321
939.32919067,0.00409644
941.25799805,0.00418983
943.18680542,0.00401297
945.11561279,0.00401431
947.04442017,0.00413740
948.97322754,0.00411446
950.90203491,0.00402402
952.83084229,0.00384645
954.75964966,0.00352779
956.68845703,0.00378291
958.61726440,0.00396266
960.54607178,0.00366701
962.47487915,0.00388432
964.40368652,0.00427966
966.33249390,0.00420892
968.26130127,0.00436922
970.19010864,0.00461461
972.11891602,0.00477340
974.04772339,0.00506869
975.97653076,0.00532524
977.90533813,0.00592922
979.83414551,0.00656842
981.76295288,0.00714764
983.69176025,0.00785067
985.62056763,0.00869991
987.54937500,0.00973386
989.47818237,0.01062089
991.40698975,0.01182231
993.33579712,0.01316383
995.26460449,0.01444987
997.19341187,0.01573762
999.12221924,0.01680536
1001.05102661,0.01831865
1002.97983398,0.01980855
1004.90864136,0.02083832
1006.83744873,0.02199652
1008.76625610,0.02326632
1010.69506348,0.02482096
1012.62387085,0.02624766
1014.55267822,0.02743166
1016.48148560,0.02894622
1018.41029297,0.03025205
1020.33910034,0.03148717
1022.26790771,0.03284967
1024.19671509,0.03413332
1026.12552246,0.03554185
1028.05432983,0.03671826
1029.98313721,0.03775504
1031.91194458,0.03869972
1033.84075195,0.03963422
1035.76955933,0.04046797
1037.69836670,0.04078132
1039.62717407,0.04086138
1041.55598145,0.04079378
1043.48478882,0.04057731
1045.41359619,0.03996826
1047.34240356,0.03942341
1049.27121094,0.03901819
1051.20001831,0.03826959
1053.12882568,0.03768102
1055.05763306,0.03680864
1056.98644043,0.03590364
1058.91524780,0.03522550
1060.84405518,0.03414729
1062.77286255,0.03315216
1064.70166992,0.03204711
1066.63047729,0.03058876
1068.55928467,0.02936047
1070.48809204,0.02804603
1072.41689941,0.02665714
1074.34570679,0.02564352
1076.27451416,0.02430850
1078.20332153,0.02303648
1080.13212891,0.02217125
1082.06093628,0.02119428
1083.98974365,0.02027702
1085.91855103,0.01912693
1087.84735840,0.01818702
1089.77616577,0.01740453
1091.70497314,0.01645291
1093.63378052,0.01583913
1095.56258789,0.01532862
1097.49139526,0.01488358
1099.42020264,0.01445345
1101.34901001,0.01404731
1103.27781738,0.01385512
1105.20662476,0.01362917
1107.13543213,0.01315129
1109.06423950,0.01308090
1110.99304687,0.01302192
1112.92185425,0.01251607
1114.85066162,0.01255579
1116.77946899,0.01247187
1118.70827637,0.01244018
1120.63708374,0.01268482
1122.56589111,0.01267130
1124.49469849,0.01277986
1126.42350586,0.01290434
1128.35231323,0.01334173
1130.28112061,0.01359197
1132.20992798,0.01389755
1134.13873535,0.01448056
1136.06754272,0.01487482
1137.99635010,0.01564596
1139.92515747,0.01663243
1141.85396484,0.01780468
1143.78277222,0.01897065
1145.71157959,0.02020016
1147.64038696,0.02143071
1149.56919434,0.02253142
1151.49800171,0.02375009
1153.42680908,0.02489732
1155.35561646,0.02620265
1157.28442383,0.02718790
1159.21323120,0.02807808
1161.14203857,0.02920673
1163.07084595,0.03022928
1164.99965332,0.03137951
1166.92846069,0.03247265
1168.85726807,0.03367414
1170.78607544,0.03524334
1172.71488281,0.03650953
1174.64369019,0.03752995
1176.57249756,0.03926298
1178.50130493,0.04072317
1180.43011230,0.04197738
1182.35891968,0.04393934
1184.28772705,0.04588585
1186.21653442,0.04803504
1188.14534180,0.05019386
1190.07414917,0.05261374
1192.00295654,0.05511066
1193.93176392,0.05758754
1195.86057129,0.06038307
1197.78937866,0.06285261
1199.71818604,0.06595646
1201.64699341,0.06886523
1203.57580078,0.07135428
1205.50460815,0.07427427
1207.43341553,0.07686350
1209.36222290,0.07962541
1211.29103027,0.08197796
1213.21983765,0.08403025
1215.14864502,0.08648305
1217.07745239,0.08850113
1219.00625977,0.09005705
1220.93506714,0.09135723
1222.86387451,0.09239100
1224.79268188,0.09315436
1226.72148926,0.09393175
1228.65029663,0.09449927
1230.57910400,0.09465609
1232.50791138,0.09514503
1234.43671875,0.09538251
1236.36552612,0.09499614
1238.29433350,0.09478061
1240.22314087,0.09449606
1242.15194824,0.09428470
1244.08075562,0.09394582
1246.00956299,0.09328128
1247.93837036,0.09288801
1249.86717773,0.09219307
1251.79598511,0.09146992
1253.72479248,0.09055822
1255.65359985,0.08929235
1257.58240723,0.08820948
1259.51121460,0.08657651
1261.44002197,0.08534431
1263.36882935,0.08445410
1265.29763672,0.08298862
1267.22644409,0.08215137
1269.15525146,0.08121781
1271.08405884,0.07963044
1273.01286621,0.07846935
1274.94167358,0.07689855
1276.87048096,0.07535364
1278.79928833,0.07432972
1280.72809570,0.07246257
1282.65690308,0.07093911
1284.58571045,0.06982151
1286.51451782,0.06839885
1288.44332520,0.06722319
1290.37213257,0.06627405
1292.30093994,0.06580395
1294.22974731,0.06511439
1296.15855469,0.06463566
1298.08736206,0.06459326
1300.01616943,0.06472987
1301.94497681,0.06514066
1303.87378418,0.06559049
1305.80259155,0.06622639
1307.73139893,0.06674522
1309.66020630,0.06823779
1311.58901367,0.06934719
1313.51782104,0.07024761
1315.44662842,0.07237750
1317.37543579,0.07368538
1319.30424316,0.07566904
1321.23305054,0.07837559
1323.16185791,0.08065882
1325.09066528,0.08282521
1327.01947266,0.08497200
1328.94828003,0.08744884
1330.87708740,0.08962364
1332.80589478,0.09183851
1334.73470215,0.09334715
1336.66350952,0.09428057
1338.59231689,0.09363155
1340.52112427,0.09449770
1342.44993164,0.09878209
1344.37873901,0.09925937
1346.30754639,0.09908395
1348.23635376,0.09939005
1350.16516113,0.09832200
1352.09396851,0.09860381
1354.02277588,0.09702004
1355.95158325,0.09614816
1357.88039062,0.09594609
1359.80919800,0.09416617
1361.73800537,0.08995026
1363.66681274,0.08831932
1365.59562012,0.09311178
1367.52442749,0.09101719
1369.45323486,0.08973710
1371.38204224,0.09153777
1373.31084961,0.08637609
1375.23965698,0.08678715
1377.16846436,0.08927552
1379.09727173,0.08889855
1381.02607910,0.08873953
1382.95488647,0.08892109
1384.88369385,0.08896978
1386.81250122,0.08450900
1388.74130859,0.08577779
1390.67011597,0.09299837
1392.59892334,0.09068027
1394.52773071,0.08447143
1396.45653809,0.08870459
1398.38534546,0.08876897
1400.31415283,0.08810967
1402.24296021,0.09566756
1404.17176758,0.09002049
1406.10057495,0.09047394
1408.02938232,0.09473969
1409.95818970,0.09104964
1411.88699707,0.09290680
1413.81580444,0.08949631
1415.74461182,0.09105864
1417.67341919,0.08196941
1419.60222656,0.07272425
1421.53103394,0.08453324
1423.45984131,0.08202593
1425.38864868,0.07925181
1427.31745605,0.08064181
1429.24626343,0.07426585
1431.17507080,0.07194689
1433.10387817,0.07346897
1435.03268555,0.06693728
1436.96149292,0.05589474
1438.89030029,0.06391449
1440.81910767,0.06600230
1442.74791504,0.06102212
1444.67672241,0.06414541
1446.60552979,0.05848912
1448.53433716,0.05927601
1450.46314453,0.06152565
1452.39195190,0.06277309
1454.32075928,0.06501789
1456.24956665,0.05294933
1458.17837402,0.05503276
1460.10718140,0.07425451
1462.03598877,0.07947442
1463.96479614,0.07863742
1465.89360352,0.08183610
1467.82241089,0.09374596
1469.75121826,0.10114235
1471.68002563,0.08930234
1473.60883301,0.09378380
1475.53764038,0.10783559
1477.46644775,0.11621478
1479.39525513,0.12806737
1481.32406250,0.12975945
1483.25286987,0.13808522
1485.18167725,0.14288080
1487.11048462,0.14016578
1489.03929199,0.13929236
1490.96809937,0.13986707
1492.89690674,0.16397370
1494.82571411,0.16034006
1496.75452148,0.14286020
1498.68332886,0.16264510
1500.61213623,0.16817445
1502.54094360,0.18065578
1504.46975098,0.17093386
1506.39855835,0.12197420
1508.32736572,0.14984402
1510.25617310,0.17820424
1512.18498047,0.17218515
1514.11378784,0.18753469
1516.04259521,0.16818082
1517.97140259,0.17506808
1519.90020996,0.16969647
1521.82901733,0.14549682
1523.75782471,0.17971356
1525.68663208,0.17659321
1527.61543945,0.17574409
1529.54424683,0.19576234
1531.47305420,0.18774806
1533.40186157,0.17130773
1535.33066895,0.18174976
1537.25947632,0.19617340
1539.18828369,0.13825335
1541.11709106,0.14366966
1543.04589844,0.17476088
1544.97470581,0.16650689
1546.90351318,0.19925851
1548.83232056,0.18567505
1550.76112793,0.19102953
1552.68993530,0.19062591
1554.61874268,0.17148428
1556.54755005,0.18499005
1558.47635742,0.12822774
1560.40516479,0.13760243
1562.33397217,0.20066330
1564.26277954,0.18917236
1566.19158691,0.19464824
1568.12039429,0.19311434
1570.04920166,0.16951066
1571.97800903,0.19691265
1573.90681641,0.20021936
1575.83562378,0.15658545
1577.76443115,0.17776769
1579.69323853,0.20268816
1581.62204590,0.19342980
1583.55085327,0.19838426
1585.47966064,0.19525798
1587.40846802,0.19680224
1589.33727539,0.19510967
1591.26608276,0.19496095
1593.19489014,0.19531912
1595.12369751,0.19302069
1597.05250488,0.19591907
1598.98131226,0.19423190
1600.91011963,0.19558153
1602.83892700,0.19189756
1604.76773437,0.19527048
1606.69654175,0.19243376
1608.62534912,0.19152190
1610.55415649,0.19158772
1612.48296387,0.19295299
1614.41177124,0.19598202
1616.34057861,0.15855101
1618.26938599,0.17200089
1620.19819336,0.20236057
1622.12700073,0.17838444
1624.05580811,0.17893724
1625.98461548,0.18851539
1627.91342285,0.18745279
1629.84223022,0.18617171
1631.77103760,0.19963399
1633.69984497,0.18366162
1635.62865234,0.14946312
1637.55745972,0.17519355
1639.48626709,0.19419959
1641.41507446,0.18929246
1643.34388184,0.19465804
1645.27268921,0.17476326
1647.20149658,0.15178283
1649.13030396,0.19096704
1651.05911133,0.18167523
1652.98791870,0.11314166
1654.91672607,0.15601671
1656.84553345,0.19902197
1658.77434082,0.19004801
1660.70314819,0.19572045
1662.63195557,0.17677480
1664.56076294,0.18659094
1666.48957031,0.20163900
1668.41837769,0.17481482
1670.34718506,0.16898248
1672.27599243,0.19319905
1674.20479980,0.17799599
1676.13360718,0.16959153
1678.06241455,0.19706368
1679.99122192,0.18954358
1681.92002930,0.18701550
1683.84883667,0.15089825
1685.77764404,0.14838949
1687.70645142,0.20713389
1689.63525879,0.17888221
1691.56406616,0.19684005
1693.49287354,0.20174444
1695.42168091,0.14448819
1697.35048828,0.18013421
1699.27929565,0.15810898
1701.20810303,0.14018428
1703.13691040,0.19490275
1705.06571777,0.17849204
1706.99452515,0.17938069
1708.92333252,0.19633001
1710.85213989,0.18799737
1712.78094727,0.19163331
1714.70975464,0.17713234
1716.63856201,0.15779004
1718.56736938,0.15502694
1720.49617676,0.18509701
1722.42498413,0.19329673
1724.35379150,0.17834446
1726.28259888,0.19495571
1728.21140625,0.17984998
1730.14021362,0.18050893
1732.06902100,0.17655639
1733.99782837,0.13210399
1735.92663574,0.16587713
1737.85544312,0.18511128
1739.78425049,0.16315882
1741.71305786,0.17860124
1743.64186523,0.18120264
1745.57067261,0.18136327
1747.49947998,0.18292546
1749.42828735,0.17439207
1751.35709473,0.16646245
1753.28590210,0.18530998
1755.21470947,0.19473608
1757.14351685,0.17638588
1759.07232422,0.19486234
1761.00113159,0.18294257
1762.92993896,0.17551154
1764.85874634,0.20271359
1766.78755371,0.18170798
1768.71636108,0.18298836
1770.64516846,0.18203408
1772.57397583,0.16254665
1774.50278320,0.18221563
1776.43159058,0.19312057
1778.36039795,0.19043702
1780.28920532,0.18774246
1782.21801270,0.18942833
1784.14682007,0.18922065
1786.07562744,0.18490562
1788.00443481,0.19516994
1789.93324219,0.19012897
1791.86204956,0.17096159
1793.79085693,0.17851540
1795.71966431,0.19234478
1797.64847168,0.18988755
1799.57727905,0.18678087
1801.50608643,0.18315393
1803.43489380,0.18933395
1805.36370117,0.19413120
1807.29250854,0.19111454
1809.22131592,0.19158520
1811.15012329,0.18632665
1813.07893066,0.19241565
1815.00773804,0.19344777
1816.93654541,0.19089305
1818.86535278,0.19281822
1820.79416016,0.19179681
1822.72296753,0.19472206
1824.65177490,0.18138392
1826.58058228,0.18792373
1828.50938965,0.18865213
1830.43819702,0.17598939
1832.36700439,0.19253552
1834.29581177,0.19138783
1836.22461914,0.19101879
1838.15342651,0.19047555
1840.08223389,0.19129679
1842.01104126,0.19204471
1843.93984863,0.16896820
1845.86865601,0.18039808
1847.79746338,0.19140120
1849.72627075,0.18684788
1851.65507812,0.19298616
1853.58388550,0.18888846
1855.51269287,0.19077703
1857.44150024,0.18952924
1859.37030762,0.18818358
1861.29911499,0.18965185
1863.22792236,0.18729913
1865.15672974,0.18958375
1867.08553711,0.18285938
1869.01434448,0.17469899
1870.94315186,0.18187168
1872.87195923,0.18924350
1874.80076660,0.18612134
1876.72957397,0.18731681
1878.65838135,0.18668762
1880.58718872,0.18542148
1882.51599609,0.18727851
1884.44480347,0.18380493
1886.37361084,0.18690231
1888.30241821,0.18251535
1890.23122559,0.17836052
1892.16003296,0.18571414
1894.08884033,0.18279733
1896.01764771,0.18206047
1897.94645508,0.18431118
1899.87526245,0.18329230
1901.80406982,0.18383524
1903.73287720,0.18247183
1905.66168457,0.18335642
1907.59049194,0.18146777
1909.51929932,0.18016964
1911.44810669,0.18123764
1913.37691406,0.18142730
1915.30572144,0.18320668
1917.23452881,0.17483987
1919.16333618,0.17483580
1921.09214355,0.18196429
1923.02095093,0.17578220
1924.94975830,0.17949349
1926.87856567,0.18177372
1928.80737305,0.17902614
1930.73618042,0.18149196
1932.66498779,0.17880774
1934.59379517,0.18048118
1936.52260254,0.17934306
1938.45140991,0.17962821
1940.38021729,0.17983121
1942.30902466,0.17364496
1944.23783203,0.17699236
1946.16663940,0.17888737
1948.09544678,0.17834054
1950.02425415,0.17923677
1951.95306152,0.17843638
1953.88186890,0.17863920
1955.81067627,0.17790936
1957.73948364,0.17853722
1959.66829102,0.17815354
1961.59709839,0.17772880
1963.52590576,0.17833143
1965.45471313,0.17719451
1967.38352051,0.17526934
1969.31232788,0.17667621
1971.24113525,0.17797115
1973.16994263,0.17637217
1975.09875000,0.17727512
1977.02755737,0.17664948
1978.95636475,0.17662060
1980.88517212,0.17654017
1982.81397949,0.17563576
1984.74278687,0.17655104
1986.67159424,0.17484553
1988.60040161,0.17508930
1990.52920898,0.17360273
1992.45801636,0.17142016
1994.38682373,0.17416704
1996.31563110,0.17463806
1998.24443848,0.17355302
2000.17324585,0.17347208
2002.10205322,0.17315239
2004.03086060,0.17299217
2005.95966797,0.17254893
2007.88847534,0.17181608
2009.81728271,0.17191727
2011.74609009,0.17138933
2013.67489746,0.17126308
2015.60370483,0.17039536
2017.53251221,0.16858269
2019.46131958,0.16984031
2021.39012695,0.16966370
2023.31893433,0.16913477
2025.24774170,0.16920778
2027.17654907,0.16847131
2029.10535645,0.16851899
2031.03416382,0.16763949
2032.96297119,0.16771802
2034.89177856,0.16719192
2036.82058594,0.16668680
2038.74939331,0.16662762
2040.67820068,0.16557437
2042.60700806,0.16547303
2044.53581543,0.16516966
2046.46462280,0.16504416
2048.39343018,0.16476130
2050.32223755,0.16448453
2052.25104492,0.16408671
2054.17985229,0.16366018
2056.10865967,0.16364357
2058.03746704,0.16302440
2059.96627441,0.16272837
2061.89508179,0.16250363
2063.82388916,0.16188926
2065.75269653,0.16112158
2067.68150391,0.16161576
2069.61031128,0.16140953
2071.53911865,0.16064623
2073.46792603,0.16078763
2075.39673340,0.16005868
2077.32554077,0.16010265
2079.25434814,0.15966690
2081.18315552,0.15937284
2083.11196289,0.15933451
2085.04077026,0.15866664
2086.96957764,0.15865810
2088.89838501,0.15803392
2090.82719238,0.15788877
2092.75599976,0.15760797
2094.68480713,0.15736166
2096.61361450,0.15725066
2098.54242187,0.15676415
2100.47122925,0.15662123
2102.40003662,0.15623695
2104.32884399,0.15606603
2106.25765137,0.15561911
2108.18645874,0.15550056
2110.11526611,0.15518630
2112.04407349,0.15486664
2113.97288086,0.15473819
2115.90168823,0.15424305
2117.83049561,0.15433595
2119.75930298,0.15395229
2121.68811035,0.15370667
2123.61691772,0.15354446
2125.54572510,0.15339774
2127.47453247,0.15308721
2129.40333984,0.15264790
2131.33214722,0.15277125
2133.26095459,0.15246627
2135.18976196,0.15225533
2137.11856934,0.15175933
2139.04737671,0.15170339
2140.97618408,0.15174422
2142.90499146,0.15134637
2144.83379883,0.15120497
2146.76260620,0.15094784
2148.69141357,0.15089881
2150.62022095,0.15046161
2152.54902832,0.15045954
2154.47783569,0.15025747
2156.40664307,0.14996052
2158.33545044,0.14990768
2160.26425781,0.14941905
2162.19306519,0.14940450
2164.12187256,0.14909375
2166.05067993,0.14907235
2167.97948730,0.14887807
2169.90829468,0.14864102
2171.83710205,0.14861685
2173.76590942,0.14826417
2175.69471680,0.14823145
2177.62352417,0.14785220
2179.55233154,0.14780164
2181.48113892,0.14766502
2183.40994629,0.14745945
2185.33875366,0.14731285
2187.26756104,0.14700282
2189.19636841,0.14686489
2191.12517578,0.14672121
2193.05398315,0.14675656
2194.98279053,0.14630568
2196.91159790,0.14626671
2198.84040527,0.14604512
2200.76921265,0.14578781
2202.69802002,0.14581205
2204.62682739,0.14542973
2206.55563477,0.14550745
2208.48444214,0.14516899
2210.41324951,0.14489397
2212.34205688,0.14459300
2214.27086426,0.14460281
2216.19967163,0.14453545
2218.12847900,0.14394942
2220.05728638,0.14397225
2221.98609375,0.14365342
2223.91490112,0.14363137
2225.84370850,0.14335129
2227.77251587,0.14310189
2229.70132324,0.14297661
2231.63013062,0.14262795
2233.55893799,0.14264718
2235.48774536,0.14219078
2237.41655273,0.14215750
2239.34536011,0.14177424
2241.27416748,0.14151493
2243.20297485,0.14143685
2245.13178223,0.14105836
2247.06058960,0.14102790
2248.98939697,0.14059648
2250.91820435,0.14057603
2252.84701172,0.14026293
2254.77581909,0.13999006
2256.70462646,0.13976943
2258.63343384,0.13952108
2260.56224121,0.13949087
2262.49104858,0.13897011
2264.41985596,0.13905689
2266.34866333,0.13874659
2268.27747070,0.13860232
2270.20627808,0.13861436
2272.13508545,0.13822567
2274.06389282,0.13821469
2275.99270020,0.13785234
2277.92150757,0.13787426
2279.85031494,0.13772783
2281.77912231,0.13737631
2283.70792969,0.13734746
2285.63673706,0.13695732
2287.56554443,0.13651049
2289.49435181,0.13636100
2291.42315918,0.13610345
2293.35196655,0.13562742
2295.28077393,0.13532282
2297.20958130,0.13483775
2299.13838867,0.13431033
2301.06719604,0.13369171
2302.99600342,0.13307668
2304.92481079,0.13228469
2306.85361816,0.13141482
2308.78242554,0.13056172
2310.71123291,0.12931675
2312.64004028,0.12809443
2314.56884766,0.12655163
2316.49765503,0.12528905
2318.42646240,0.12342204
2320.35526978,0.12135491
2322.28407715,0.11989410
2324.21288452,0.11811499
2326.14169189,0.11696509
2328.07049927,0.11537476
2329.99930664,0.11380631
2331.92811401,0.11276045
2333.85692139,0.11231966
2335.78572876,0.11205548
2337.71453613,0.11151336
2339.64334351,0.11163940
2341.57215088,0.11175954
2343.50095825,0.11356564
2345.42976562,0.11584063
2347.35857300,0.12088334
2349.28738037,0.12550256
2351.21618774,0.12068579
2353.14499512,0.11416556
2355.07380249,0.10983416
2357.00260986,0.10616380
2358.93141724,0.10420450
2360.86022461,0.10280785
2362.78903198,0.10274839
2364.71783936,0.10321398
2366.64664673,0.10470036
2368.57545410,0.10690016
2370.50426147,0.10956609
2372.43306885,0.11295052
2374.36187622,0.11636919
2376.29068359,0.11973474
2378.21949097,0.12249310
2380.14829834,0.12493353
2382.07710571,0.12626049
2384.00591309,0.12721264
2385.93472046,0.12777492
2387.86352783,0.12768149
2389.79233521,0.12776226
2391.72114258,0.12751886
2393.64994995,0.12741904
2395.57875732,0.12712404
2397.50756470,0.12696981
2399.43637207,0.12687853
2401.36517944,0.12671402
2403.29398682,0.12661144
2405.22279419,0.12620437
2407.15160156,0.12606053
2409.08040894,0.12592928
2411.00921631,0.12577376
2412.93802368,0.12544496
2414.86683105,0.12535255
2416.79563843,0.12524694
2418.72444580,0.12505558
2420.65325317,0.12496495
2422.58206055,0.12460341
2424.51086792,0.12464911
2426.43967529,0.12438431
2428.36848267,0.12423874
2430.29729004,0.12414859
2432.22609741,0.12384483
2434.15490479,0.12378204
2436.08371216,0.12346682
2438.01251953,0.12337162
2439.94132690,0.12316328
2441.87013428,0.12311926
2443.79894165,0.12294009
2445.72774902,0.12264976
2447.65655640,0.12260717
2449.58536377,0.12236768
2451.51417114,0.12234575
2453.44297852,0.12208769
2455.37178589,0.12196444
2457.30059326,0.12175457
2459.22940063,0.12146328
2461.15820801,0.12136276
2463.08701538,0.12122062
2465.01582275,0.12125865
2466.94463013,0.12089099
2468.87343750,0.12070064
2470.80224487,0.12063052
2472.73105225,0.12043548
2474.65985962,0.12022703
2476.58866699,0.12006169
2478.51747437,0.11995447
2480.44628174,0.11968269
2482.37508911,0.11959627
2484.30389648,0.11931612
2486.23270386,0.11931674
2488.16151123,0.11918110
2490.09031860,0.11892194
2492.01912598,0.11885303
2493.94793335,0.11844512
2495.87674072,0.11843345
2497.80554810,0.11827295
2499.73435547,0.11820538
2501.66316284,0.11799070
2503.59197021,0.11757301
2505.52077759,0.11768322
2507.44958496,0.11751136
2509.37839233,0.11728913
2511.30719971,0.11709197
2513.23600708,0.11704206
2515.16481445,0.11694829
2517.09362183,0.11674874
2519.02242920,0.11655878
2520.95123657,0.11628091
2522.88004395,0.11623973
2524.80885132,0.11608814
2526.73765869,0.11603896
2528.66646606,0.11575233
2530.59527344,0.11552548
2532.52408081,0.11553089
2534.45288818,0.11526006
2536.38169556,0.11515038
2538.31050293,0.11493273
2540.23931030,0.11481021
2542.16811768,0.11467248
2544.09692505,0.11449549
2546.02573242,0.11442379
2547.95453979,0.11422864
2549.88334717,0.11408126
2551.81215454,0.11382051
2553.74096191,0.11368367
2555.66976929,0.11361129
2557.59857666,0.11345559
2559.52738403,0.11328113
2561.45619141,0.11319642
2563.38499878,0.11301160
2565.31380615,0.11269796
2567.24261353,0.11268952
2569.17142090,0.11252947
2571.10022827,0.11229616
2573.02903564,0.11215939
2574.95784302,0.11207162
2576.88665039,0.11198112
2578.81545776,0.11161039
2580.74426514,0.11146459
2582.67307251,0.11148283
2584.60187988,0.11123645
2586.53068726,0.11104502
2588.45949463,0.11093929
2590.38830200,0.11070338
2592.31710937,0.11059889
2594.24591675,0.11050552
2596.17472412,0.11035657
2598.10353149,0.11017351
2600.03233887,0.10991210
2601.96114624,0.10980492
2603.88995361,0.10965559
2605.81876099,0.10953923
2607.74756836,0.10933609
2609.67637573,0.10917538
2611.60518311,0.10908850
2613.53399048,0.10891698
2615.46279785,0.10890046
2617.39160522,0.10865964
2619.32041260,0.10846061
2621.24921997,0.10828630
2623.17802734,0.10820688
2625.10683472,0.10814029
2627.03564209,0.10775904
2628.96444946,0.10765834
2630.89325684,0.10754499
2632.82206421,0.10747153
2634.75087158,0.10731575
2636.67967895,0.10702667
2638.60848633,0.10685943
2640.53729370,0.10667540
2642.46610107,0.10672407
2644.39490845,0.10649515
2646.32371582,0.10622733
2648.25252319,0.10616691
2650.18133057,0.10592897
2652.11013794,0.10580467
2654.03894531,0.10577360
2655.96775269,0.10551751
2657.89656006,0.10531989
2659.82536743,0.10529537
2661.75417480,0.10502574
2663.68298218,0.10493533
2665.61178955,0.10483199
2667.54059692,0.10459560
2669.46940430,0.10447970
2671.39821167,0.10427310
2673.32701904,0.10417029
2675.25582642,0.10397910
2677.18463379,0.10390703
2679.11344116,0.10378041
2681.04224854,0.10357977
2682.97105591,0.10345317
2684.89986328,0.10313049
2686.82867065,0.10298491
2688.75747803,0.10287046
2690.68628540,0.10276823
2692.61509277,0.10254457
2694.54390015,0.10241227
2696.47270752,0.10243884
2698.40151489,0.10220221
2700.33032227,0.10205460
2702.25912964,0.10188051
2704.18793701,0.10170580
2706.11674438,0.10156706
2708.04555176,0.10142387
2709.97435913,0.10123073
2711.90316650,0.10100523
2713.83197388,0.10085150
2715.76078125,0.10065580
2717.68958862,0.10061857
2719.61839600,0.10044605
2721.54720337,0.10018659
2723.47601074,0.09998415
2725.40481812,0.09987986
2727.33362549,0.09983683
2729.26243286,0.09958756
2731.19124023,0.09944381
2733.12004761,0.09932822
2735.04885498,0.09917460
2736.97766235,0.09898853
2738.90646973,0.09884791
2740.83527710,0.09871657
2742.76408447,0.09854338
2744.69289185,0.09844053
2746.62169922,0.09821889
2748.55050659,0.09797922
2750.47931396,0.09781490
2752.40812134,0.09783685
2754.33692871,0.09767914
2756.26573608,0.09750071
2758.19454346,0.09731019
2760.12335083,0.09696405
2762.05215820,0.09702243
2763.98096558,0.09681022
2765.90977295,0.09657767
2767.83858032,0.09649801
2769.76738770,0.09630826
2771.69619507,0.09623121
2773.62500244,0.09595048
2775.55380981,0.09576195
2777.48261719,0.09555329
2779.41142456,0.09547579
2781.34023193,0.09540553
2783.26903931,0.09514660
2785.19784668,0.09505636
2787.12665405,0.09482846
2789.05546143,0.09457132
2790.98426880,0.09444449
2792.91307617,0.09432177
2794.84188354,0.09407498
2796.77069092,0.09393631
2798.69949829,0.09372389
2800.62830566,0.09350382
2802.55711304,0.09345631
2804.48592041,0.09320478
2806.41472778,0.09301183
2808.34353516,0.09276226
2810.27234253,0.09269237
2812.20114990,0.09256348
2814.12995728,0.09235692
2816.05876465,0.09225341
2817.98757202,0.09182756
2819.91637939,0.09173597
2821.84518677,0.09158461
2823.77399414,0.09143040
2825.70280151,0.09134809
2827.63160889,0.09105411
2829.56041626,0.09098293
2831.48922363,0.09076686
2833.41803101,0.09055664
2835.34683838,0.09026782
2837.27564575,0.09004104
2839.20445312,0.08991915
2841.13326050,0.08957414
2843.06206787,0.08922361
2844.99087524,0.08891164
2846.91968262,0.08848651
2848.84848999,0.08789407
2850.77729736,0.08769391
2852.70610474,0.08753742
2854.63491211,0.08741796
2856.56371948,0.08738474
2858.49252686,0.08720012
2860.42133423,0.08716834
2862.35014160,0.08697300
2864.27894897,0.08690053
2866.20775635,0.08666214
2868.13656372,0.08652867
2870.06537109,0.08651274
2871.99417847,0.08617213
2873.92298584,0.08625139
2875.85179321,0.08608875
2877.78060059,0.08579111
2879.70940796,0.08574359
2881.63821533,0.08569829
2883.56702270,0.08562139
2885.49583008,0.08541153
2887.42463745,0.08526973
2889.35344482,0.08503973
2891.28225220,0.08488689
2893.21105957,0.08465985
2895.13986694,0.08450887
2897.06867432,0.08434436
2898.99748169,0.08395553
2900.92628906,0.08378461
2902.85509644,0.08358350
2904.78390381,0.08340622
2906.71271118,0.08315091
2908.64151855,0.08285977
2910.57032593,0.08260123
2912.49913330,0.08217908
2914.42794067,0.08172750
2916.35674805,0.08142364
2918.28555542,0.08119176
2920.21436279,0.08086973
2922.14317017,0.08082020
2924.07197754,0.08067349
2926.00078491,0.08057541
2927.92959229,0.08050477
2929.85839966,0.08029923
2931.78720703,0.08043703
2933.71601440,0.08038075
2935.64482178,0.08040982
2937.57362915,0.08036809
2939.50243652,0.08034167
2941.43124390,0.08041932
2943.36005127,0.08014999
2945.28885864,0.08020507
2947.21766602,0.08005244
2949.14647339,0.07984356
2951.07528076,0.07976715
2953.00408813,0.07956363
2954.93289551,0.07948068
2956.86170288,0.07908519
2958.79051025,0.07884020
2960.71931763,0.07872004
2962.64812500,0.07847156
2964.57693237,0.07832058
2966.50573975,0.07812297
2968.43454712,0.07810728
2970.36335449,0.07831304
2972.29216187,0.07837348
2974.22096924,0.07838970
2976.14977661,0.07846309
2978.07858398,0.07833499
2980.00739136,0.07835395
2981.93619873,0.07834572
2983.86500610,0.07822441
2985.79381348,0.07815617
2987.72262085,0.07799634
2989.65142822,0.07808349
2991.58023560,0.07789502
2993.50904297,0.07763684
2995.43785034,0.07768460
2997.36665771,0.07749487
2999.29546509,0.07730557
3001.22427246,0.07720146
3003.15307983,0.07708700
3005.08188721,0.07690974
3007.01069458,0.07681508
3008.93950195,0.07668461
3010.86830933,0.07639033
3012.79711670,0.07629921
3014.72592407,0.07612114
3016.65473145,0.07598479
3018.58353882,0.07596435
3020.51234619,0.07567676
3022.44115356,0.07559986
3024.36996094,0.07546149
3026.29876831,0.07509181
3028.22757568,0.07509123
3030.15638306,0.07483943
3032.08519043,0.07451849
3034.01399780,0.07448629
3035.94280518,0.07428527
3037.87161255,0.07425825
3039.80041992,0.07412831
3041.72922729,0.07388839
3043.65803467,0.07379966
3045.58684204,0.07372385
3047.51564941,0.07364349
3049.44445679,0.07333772
3051.37326416,0.07317249
3053.30207153,0.07313146
3055.23087891,0.07292354
3057.15968628,0.07266191
3059.08849365,0.07258864
3061.01730103,0.07257372
3062.94610840,0.07230668
3064.87491577,0.07204258
3066.80372314,0.07185306
3068.73253052,0.07192004
3070.66133789,0.07193416
3072.59014526,0.07176960
3074.51895264,0.07168415
3076.44776001,0.07147645
3078.37656738,0.07126221
3080.30537476,0.07095142
3082.23418213,0.07085834
3084.16298950,0.07085496
3086.09179687,0.07075892
3088.02060425,0.07071547
3089.94941162,0.07038773
3091.87821899,0.07031544
3093.80702637,0.07020190
3095.73583374,0.06983460
3097.66464111,0.06979376
3099.59344849,0.06957408
3101.52225586,0.06932595
3103.45106323,0.06936952
3105.37987061,0.06925580
3107.30867798,0.06905569
3109.23748535,0.06882042
3111.16629272,0.06867017
3113.09510010,0.06865896
3115.02390747,0.06824249
3116.95271484,0.06796110
3118.88152222,0.06799667
3120.81032959,0.06780605
3122.73913696,0.06765409
3124.66794434,0.06751775
3126.59675171,0.06731179
3128.52555908,0.06704957
3130.45436645,0.06695360
3132.38317383,0.06679543
3134.31198120,0.06660984
3136.24078857,0.06657016
3138.16959595,0.06624739
3140.09840332,0.06610659
3142.02721069,0.06594625
3143.95601807,0.06582010
3145.88482544,0.06570343
3147.81363281,0.06536415
3149.74244019,0.06531027
3151.67124756,0.06504805
3153.60005493,0.06485274
3155.52886230,0.06473431
3157.45766968,0.06455165
3159.38647705,0.06442402
3161.31528442,0.06409910
3163.24409180,0.06401999
3165.17289917,0.06391436
3167.10170654,0.06372778
3169.03051392,0.06357066
3170.95932129,0.06338377
3172.88812866,0.06317796
3174.81693604,0.06299282
3176.74574341,0.06282260
3178.67455078,0.06253366
3180.60335815,0.06249707
3182.53216553,0.06237115
3184.46097290,0.06216855
3186.38978027,0.06202180
3188.31858765,0.06188757
3190.24739502,0.06175023
3192.17620239,0.06154299
3194.10500977,0.06158782
3196.03381714,0.06136289
3197.96262451,0.06107563
3199.89143188,0.06094085
3201.82023926,0.06088004
3203.74904663,0.06073566
3205.67785400,0.06055495
3207.60666138,0.06051578
3209.53546875,0.06013564
3211.46427612,0.06020416
3213.39308350,0.05995669
3215.32189087,0.05969024
3217.25069824,0.05994123
3219.17950562,0.05954849
3221.10831299,0.05963232
3223.03712036,0.05953711
3224.96592773,0.05926296
3226.89473511,0.05926953
3228.82354248,0.05900710
3230.75234985,0.05900075
3232.68115723,0.05879458
3234.60996460,0.05875796
3236.53877197,0.05877982
3238.46757935,0.05868284
3240.39638672,0.05858452
3242.32519409,0.05841693
3244.25400146,0.05834728
3246.18280884,0.05812729
3248.11161621,0.05821931
3250.04042358,0.05818145
3251.96923096,0.05806012
3253.89803833,0.05797384
3255.82684570,0.05771201
3257.75565308,0.05767494
3259.68446045,0.05758610
3261.61326782,0.05764287
3263.54207520,0.05758899
3265.47088257,0.05745847
3267.39968994,0.05744364
3269.32849731,0.05729035
3271.25730469,0.05721714
3273.18611206,0.05709707
3275.11491943,0.05692076
3277.04372681,0.05690327
3278.97253418,0.05703063
3280.90134155,0.05691560
3282.83014893,0.05679483
3284.75895630,0.05674496
3286.68776367,0.05657733
3288.61657104,0.05658355
3290.54537842,0.05649539
3292.47418579,0.05629119
3294.40299316,0.05624966
3296.33180054,0.05628758
3298.26060791,0.05613260
3300.18941528,0.05611457
3302.11822266,0.05610928
3304.04703003,0.05589427
3305.97583740,0.05588328
3307.90464478,0.05569369
3309.83345215,0.05562240
3311.76225952,0.05565622
3313.69106689,0.05547045
3315.61987427,0.05552524
3317.54868164,0.05544274
3319.47748901,0.05525754
3321.40629639,0.05534665
3323.33510376,0.05513924
3325.26391113,0.05490095
3327.19271851,0.05497661
3329.12152588,0.05482380
3331.05033325,0.05485494
3332.97914062,0.05475716
3334.90794800,0.05447329
3336.83675537,0.05436666
3338.76556274,0.05421610
3340.69437012,0.05439428
3342.62317749,0.05428151
3344.55198486,0.05417500
3346.48079224,0.05411332
3348.40959961,0.05395232
3350.33840698,0.05397671
3352.26721436,0.05381031
3354.19602173,0.05384454
3356.12482910,0.05356064
3358.05363647,0.05349998
3359.98244385,0.05343173
3361.91125122,0.05316149
3363.84005859,0.05327689
3365.76886597,0.05299848
3367.69767334,0.05288659
3369.62648071,0.05269753
3371.55528809,0.05282657
3373.48409546,0.05287691
3375.41290283,0.05258700
3377.34171020,0.05262535
3379.27051758,0.05231216
3381.19932495,0.05238676
3383.12813232,0.05224723
3385.05693970,0.05203140
3386.98574707,0.05195621
3388.91455444,0.05193825
3390.84336182,0.05193467
3392.77216919,0.05146513
3394.70097656,0.05159205
3396.62978394,0.05135926
3398.55859131,0.05124430
3400.48739868,0.05119560
3402.41620605,0.05098544
3404.34501343,0.05121803
3406.27382080,0.05095018
3408.20262817,0.05099348
3410.13143555,0.05082974
3412.06024292,0.05073739
3413.98905029,0.05061731
3415.91785767,0.05046375
3417.84666504,0.05065689
3419.77547241,0.05011194
3421.70427979,0.04998617
3423.63308716,0.05008648
3425.56189453,0.05012769
3427.49070190,0.04992262
3429.41950928,0.04975810
3431.34831665,0.04973728
3433.27712402,0.04949861
3435.20593140,0.04966572
3437.13473877,0.04932563
3439.06354614,0.04938618
3440.99235352,0.04920277
3442.92116089,0.04896884
3444.84996826,0.04917662
3446.77877563,0.04835809
3448.70758301,0.04852901
3450.63639038,0.04901965
3452.56519775,0.04878264
3454.49400513,0.04870021
3456.42281250,0.04869666
3458.35161987,0.04867758
3460.28042725,0.04844386
3462.20923462,0.04823690
3464.13804199,0.04824978
3466.06684937,0.04829956
3467.99565674,0.04806649
3469.92446411,0.04819003
3471.85327148,0.04815450
3473.78207886,0.04799589
3475.71088623,0.04801679
3477.63969360,0.04803152
3479.56850098,0.04792669
3481.49730835,0.04722006
3483.42611572,0.04754283
3485.35492310,0.04778621
3487.28373047,0.04749457
3489.21253784,0.04751575
3491.14134521,0.04748050
3493.07015259,0.04767646
3494.99895996,0.04737870
3496.92776733,0.04736035
3498.85657471,0.04743347
3500.78538208,0.04745904
3502.71418945,0.04660567
3504.64299683,0.04635538
3506.57180420,0.04762072
3508.50061157,0.04683819
3510.42941895,0.04660044
3512.35822632,0.04710090
3514.28703369,0.04712737
3516.21584106,0.04730719
3518.14464844,0.04691261
3520.07345581,0.04724125
3522.00226318,0.04678171
3523.93107056,0.04614844
3525.85987793,0.04632776
3527.78868530,0.04623215
3529.71749268,0.04631474
3531.64630005,0.04674115
3533.57510742,0.04704488
3535.50391479,0.04656859
3537.43272217,0.04642256
3539.36152954,0.04686508
3541.29033691,0.04695620
3543.21914429,0.04652885
3545.14795166,0.04546916
3547.07675903,0.04476407
3549.00556641,0.04622708
3550.93437378,0.04658874
3552.86318115,0.04542653
3554.79198853,0.04636414
3556.72079590,0.04648736
3558.64960327,0.04636155
3560.57841064,0.04598171
3562.50721802,0.04571617
3564.43602539,0.04617266
3566.36483276,0.04284546
3568.29364014,0.04177133
3570.22244751,0.04527658
3572.15125488,0.04657477
3574.08006226,0.04602818
3576.00886963,0.04610084
3577.93767700,0.04595518
3579.86648437,0.04588768
3581.79529175,0.04599119
3583.72409912,0.04596006
3585.65290649,0.04504034
3587.58171387,0.04132863
3589.51052124,0.04237932
3591.43932861,0.04624716
3593.36813599,0.04485305
3595.29694336,0.04403630
3597.22575073,0.04496688
3599.15455811,0.04534160
3601.08336548,0.04485565
3603.01217285,0.04529694
3604.94098022,0.04619929
3606.86978760,0.04448188
3608.79859497,0.04171520
3610.72740234,0.04271767
3612.65620972,0.04376324
3614.58501709,0.04236260
3616.51382446,0.04554902
3618.44263184,0.04208754
3620.37143921,0.04040674
3622.30024658,0.04576293
3624.22905395,0.04451314
3626.15786133,0.04656212
3628.08666870,0.03932382
3630.01547607,0.03568140
3631.94428345,0.04526965
3633.87309082,0.04406915
3635.80189819,0.04474272
3637.73070557,0.04573475
3639.65951294,0.04505604
3641.58832031,0.04547456
3643.51712769,0.04491089
3645.44593506,0.04529397
3647.37474243,0.04043752
3649.30354980,0.03718076
3651.23235718,0.03755978
3653.16116455,0.04474054
3655.08997192,0.04432023
3657.01877930,0.03936949
3658.94758667,0.04554597
3660.87639404,0.04465958
3662.80520142,0.04523773
3664.73400879,0.04501632
3666.66281616,0.04447725
3668.59162354,0.04325610
3670.52043091,0.03501732
3672.44923828,0.04274054
3674.37804565,0.04072215
3676.30685303,0.03333648
3678.23566040,0.04231713
3680.16446777,0.04336236
3682.09327515,0.04343049
3684.02208252,0.04481447
3685.95088989,0.04401043
3687.87969727,0.03952434
3689.80850464,0.03610885
3691.73731201,0.04126918
3693.66611938,0.04260077
3695.59492676,0.04368659
3697.52373413,0.04368490
3699.45254150,0.04324997
3701.38134888,0.04211493
3703.31015625,0.04047778
3705.23896362,0.04460976
3707.16777100,0.04238759
3709.09657837,0.04131881
3711.02538574,0.03884357
3712.95419312,0.03621962
3714.88300049,0.04269214
3716.81180786,0.04219117
3718.74061523,0.04240032
3720.66942261,0.04148798
3722.59822998,0.04005665
3724.52703735,0.04154102
3726.45584473,0.03844392
3728.38465210,0.04178534
3730.31345947,0.04134724
3732.24226685,0.03788265
3734.17107422,0.03694461
3736.09988159,0.03494028
3738.02868896,0.03705487
3739.95749634,0.04021683
3741.88630371,0.04224622
3743.81511108,0.03274884
3745.74391846,0.03066496
3747.67272583,0.04012390
3749.60153320,0.03440198
3751.53034058,0.03162682
3753.45914795,0.03649190
3755.38795532,0.03923367
3757.31676270,0.04095548
3759.24557007,0.03775190
3761.17437744,0.03913914
3763.10318481,0.04173183
3765.03199219,0.03885535
3766.96079956,0.03965580
3768.88960693,0.03911824
3770.81841431,0.03735220
3772.74722168,0.04053050
3774.67602905,0.04056620
3776.60483643,0.04051287
3778.53364380,0.03941624
3780.46245117,0.03785189
3782.39125854,0.04041553
3784.32006592,0.03953058
3786.24887329,0.03919462
3788.17768066,0.04005988
3790.10648804,0.03984306
3792.03529541,0.03955366
3793.96410278,0.04033895
3795.89291016,0.03791478
3797.82171753,0.03723911
3799.75052490,0.03933695
3801.67933228,0.03099912
3803.60813965,0.03629959
3805.53694702,0.03963536
3807.46575439,0.03209225
3809.39456177,0.03923199
3811.32336914,0.03849476
3813.25217651,0.03968414
3815.18098389,0.03590414
3817.10979126,0.03121923
3819.03859863,0.03974570
3820.96740601,0.03206813
3822.89621338,0.03371697
3824.82502075,0.03951479
3826.75382812,0.03554877
3828.68263550,0.03844255
3830.61144287,0.03683917
3832.54025024,0.03560428
3834.46905762,0.03632300
3836.39786499,0.03447477
3838.32667236,0.03114106
3840.25547974,0.03359808
3842.18428711,0.03644017
3844.11309448,0.03467224
3846.04190186,0.03758275
3847.97070923,0.03713403
3849.89951660,0.03716823
3851.82832397,0.03341729
3853.75713135,0.02474808
3855.68593872,0.02941548
3857.61474609,0.03719339
3859.54355347,0.03624693
3861.47236084,0.03569959
3863.40116821,0.03496882
3865.32997559,0.03249248
3867.25878296,0.03629320
3869.18759033,0.03311452
3871.11639770,0.03054568
3873.04520508,0.03639967
3874.97401245,0.03323926
3876.90281982,0.03603142
3878.83162720,0.03681750
3880.76043457,0.03132147
3882.68924194,0.03628518
3884.61804932,0.03382736
3886.54685669,0.03086737
3888.47566406,0.03630259
3890.40447144,0.03438618
3892.33327881,0.03218190
3894.26208618,0.03528696
3896.19089355,0.03592284
3898.11970093,0.03414648
3900.04850830,0.03234128
3901.97731567,0.03193458
3903.90612305,0.03153142
3905.83493042,0.03207584
3907.76373779,0.03524959
3909.69254517,0.03518256
3911.62135254,0.03478181
3913.55015991,0.03552482
3915.47896728,0.03426928
3917.40777466,0.03324959
3919.33658203,0.03299303
3921.26538940,0.03431206
3923.19419678,0.03412677
3925.12300415,0.03337972
3927.05181152,0.03404368
3928.98061890,0.03434625
3930.90942627,0.03366449
3932.83823364,0.03248835
3934.76704102,0.03389772
3936.69584839,0.03425717
3938.62465576,0.03383357
3940.55346313,0.03421633
3942.48227051,0.03287523
3944.41107788,0.03304094
3946.33988525,0.03365336
3948.26869263,0.03287172
3950.19750000,0.03286049
3952.12630737,0.03342701
3954.05511475,0.03340404
3955.98392212,0.03331219
3957.91272949,0.03324478
3959.84153687,0.03318520
3961.77034424,0.03304204
3963.69915161,0.03288721
3965.62795898,0.03321826
3967.55676636,0.03294086
3969.48557373,0.03288119
3971.41438110,0.03271981
3973.34318848,0.03256446
3975.27199585,0.03264911
3977.20080322,0.03239759
3979.12961060,0.03273507
3981.05841797,0.03247432
3982.98722534,0.03245698
3984.91603271,0.03241026
3986.84484009,0.03234994
3988.77364746,0.03230965
3990.70245483,0.03177254
3992.63126221,0.03213672
3994.56006958,0.03190140
3996.48887695,0.03194581
3998.41768433,0.03195921
4000.34649170,0.03175818
4002.27529907,0.03191775
4004.20410645,0.03153909
4006.13291382,0.03170834
4008.06172119,0.03150609
4009.99052856,0.03141065
4011.91933594,0.03136716
4013.84814331,0.03132350
4015.77695068,0.03146069
4017.70575806,0.03121667
4019.63456543,0.03125668
4021.56337280,0.03108920
4023.49218018,0.03111260
4025.42098755,0.03090641
4027.34979492,0.03091809
4029.27860229,0.03092824
4031.20740967,0.03070993
4033.13621704,0.03083511
4035.06502441,0.03059088
4036.99383179,0.03074506
4038.92263916,0.03055903
4040.85144653,0.03047546
4042.78025391,0.03048063
4044.70906128,0.03021471
4046.63786865,0.03031025
4048.56667603,0.03019767
4050.49548340,0.03021789
4052.42429077,0.03003799
4054.35309814,0.03007007
4056.28190552,0.02997665
4058.21071289,0.02994530
4060.13952026,0.02995198
4062.06832764,0.02958668
4063.99713501,0.02976202
4065.92594238,0.02970039
4067.85474976,0.02967420
4069.78355713,0.02948374
4071.71236450,0.02936380
4073.64117187,0.02938726
4075.56997925,0.02928160
4077.49878662,0.02929484
4079.42759399,0.02904662
4081.35640137,0.02924005
4083.28520874,0.02900709
4085.21401611,0.02892816
4087.14282349,0.02900354
4089.07163086,0.02874242
4091.00043823,0.02887364
4092.92924561,0.02871846
4094.85805298,0.02872818
4096.78686035,0.02862342
4098.71566772,0.02857197
4100.64447510,0.02851602
4102.57328247,0.02843612
4104.50208984,0.02838030
4106.43089722,0.02816810
4108.35970459,0.02833589
4110.28851196,0.02814500
4112.21731934,0.02816477
4114.14612671,0.02802607
4116.07493408,0.02791682
4118.00374145,0.02803990
4119.93254883,0.02779591
4121.86135620,0.02792845
4123.79016357,0.02772108
4125.71897095,0.02764721
4127.64777832,0.02768741
4129.57658569,0.02758346
4131.50539307,0.02750915
4133.43420044,0.02729110
4135.36300781,0.02727047
4137.29181519,0.02726283
4139.22062256,0.02728380
4141.14942993,0.02704809
4143.07823730,0.02717421
4145.00704468,0.02715361
4146.93585205,0.02694394
4148.86465942,0.02701130
4150.79346680,0.02683126
4152.72227417,0.02692658
4154.65108154,0.02679984
4156.57988892,0.02679854
4158.50869629,0.02670635
4160.43750366,0.02652798
4162.36631103,0.02663432
4164.29511841,0.02646549
4166.22392578,0.02647755
4168.15273315,0.02631062
4170.08154053,0.02625189
4172.01034790,0.02627172
4173.93915527,0.02624378
4175.86796265,0.02619896
4177.79677002,0.02605537
4179.72557739,0.02608629
4181.65438477,0.02591731
4183.58319214,0.02588793
4185.51199951,0.02587703
4187.44080688,0.02584879
4189.36961426,0.02568911
4191.29842163,0.02566953
4193.22722900,0.02567666
4195.15603638,0.02541523
4197.08484375,0.02551395
4199.01365112,0.02542809
4200.94245850,0.02545128
4202.87126587,0.02529562
4204.80007324,0.02519596
4206.72888062,0.02531045
4208.65768799,0.02504029
4210.58649536,0.02508626
4212.51530273,0.02502215
4214.44411011,0.02502808
4216.37291748,0.02495090
4218.30172485,0.02485359
4220.23053223,0.02486532
4222.15933960,0.02473747
4224.08814697,0.02480223
4226.01695435,0.02463402
4227.94576172,0.02463922
4229.87456909,0.02457275
4231.80337646,0.02445176
4233.73218384,0.02442028
4235.66099121,0.02438736
4237.58979858,0.02440764
4239.51860596,0.02428979
4241.44741333,0.02430908
4243.37622070,0.02408431
4245.30502808,0.02416945
4247.23383545,0.02414073
4249.16264282,0.02397459
4251.09145020,0.02401686
4253.02025757,0.02378010
4254.94906494,0.02390928
4256.87787231,0.02381849
4258.80667969,0.02373131
4260.73548706,0.02371084
4262.66429443,0.02361412
4264.59310181,0.02363020
4266.52190918,0.02351568
4268.45071655,0.02350753
4270.37952393,0.02332588
4272.30833130,0.02340841
4274.23713867,0.02332532
4276.16594604,0.02322765
4278.09475342,0.02329666
4280.02356079,0.02305650
4281.95236816,0.02311359
4283.88117554,0.02311623
4285.80998291,0.02301884
4287.73879028,0.02293794
4289.66759766,0.02295691
4291.59640503,0.02281679
4293.52521240,0.02276139
4295.45401978,0.02289266
4297.38282715,0.02270886
4299.31163452,0.02272893
4301.24044189,0.02258594
4303.16924927,0.02252891
4305.09805664,0.02251158
4307.02686401,0.02238508
4308.95567139,0.02242639
4310.88447876,0.02233316
4312.81328613,0.02233348
4314.74209351,0.02222550
4316.67090088,0.02224443
4318.59970825,0.02219084
4320.52851562,0.02203016
4322.45732300,0.02202705
4324.38613037,0.02199471
4326.31493774,0.02190899
4328.24374512,0.02185877
4330.17255249,0.02199478
4332.10135986,0.02178314
4334.03016724,0.02174328
4335.95897461,0.02173324
4337.88778198,0.02160052
4339.81658936,0.02162318
4341.74539673,0.02145923
4343.67420410,0.02150163
4345.60301147,0.02141663
4347.53181885,0.02144043
4349.46062622,0.02139385
4351.38943359,0.02129352
4353.31824097,0.02130159
4355.24704834,0.02111855
4357.17585571,0.02117382
4359.10466309,0.02107432
4361.03347046,0.02109645
4362.96227783,0.02100490
4364.89108520,0.02092284
4366.81989258,0.02094112
4368.74869995,0.02079498
4370.67750732,0.02092297
4372.60631470,0.02074046
4374.53512207,0.02073309
4376.46392944,0.02070924
4378.39273682,0.02056536
4380.32154419,0.02060813
4382.25035156,0.02052957
4384.17915894,0.02054928
4386.10796631,0.02044762
4388.03677368,0.02042432
4389.96558105,0.02028150
4391.89438843,0.02029385
4393.82319580,0.02033313
4395.75200317,0.02019775
4397.68081055,0.02023667
4399.60961792,0.02008941
4401.53842529,0.02009336
4403.46723267,0.02002541
4405.39604004,0.01995318
4407.32484741,0.01990629
4409.25365478,0.01982084
4411.18246216,0.01979764
4413.11126953,0.01970861
4415.04007690,0.01976349
4416.96888428,0.01970616
4418.89769165,0.01969570
4420.82649902,0.01949941
4422.75530640,0.01950857
4424.68411377,0.01960050
4426.61292114,0.01938299
4428.54172852,0.01942623
4430.47053589,0.01933245
4432.39934326,0.01938766
4434.32815063,0.01932341
4436.25695801,0.01920568
4438.18576538,0.01921659
4440.11457275,0.01908788
4442.04338013,0.01913456
4443.97218750,0.01903035
4445.90099487,0.01903075
4447.82980225,0.01895646
4449.75860962,0.01896345
4451.68741699,0.01897666
4453.61622437,0.01875715
4455.54503174,0.01883553
4457.47383911,0.01876061
4459.40264648,0.01865844
4461.33145386,0.01863104
4463.26026123,0.01859538
4465.18906860,0.01859712
4467.11787598,0.01853167
4469.04668335,0.01842557
4470.97549072,0.01839747
4472.90429810,0.01841210
4474.83310547,0.01825749
4476.76191284,0.01826606
4478.69072021,0.01821564
4480.61952759,0.01817315
4482.54833496,0.01818149
4484.47714233,0.01812328
4486.40594971,0.01810339
4488.33475708,0.01798222
4490.26356445,0.01799161
4492.19237183,0.01792105
4494.12117920,0.01791711
4496.04998657,0.01783513
4497.97879395,0.01776639
4499.90760132,0.01783487
4501.83640869,0.01770598
4503.76521606,0.01776502
4505.69402344,0.01768032
4507.62283081,0.01759407
4509.55163818,0.01755242
4511.48044556,0.01746158
4513.40925293,0.01748684
4515.33806030,0.01744697
4517.26686768,0.01741133
4519.19567505,0.01732982
4521.12448242,0.01737104
4523.05328979,0.01727678
4524.98209717,0.01725318
4526.91090454,0.01719442
4528.83971191,0.01704595
4530.76851929,0.01712195
4532.69732666,0.01703903
4534.62613403,0.01706595
4536.55494141,0.01694194
4538.48374878,0.01689001
4540.41255615,0.01690392
4542.34136353,0.01679913
4544.27017090,0.01687060
4546.19897827,0.01679627
4548.12778564,0.01681358
4550.05659302,0.01665698
4551.98540039,0.01660220
4553.91420776,0.01664938
4555.84301514,0.01651670
4557.77182251,0.01655041
4559.70062988,0.01650223
4561.62943726,0.01646379
4563.55824463,0.01634999
4565.48705200,0.01629626
4567.41585937,0.01630489
4569.34466675,0.01631611
4571.27347412,0.01624283
4573.20228149,0.01618285
4575.13108887,0.01627173
4577.05989624,0.01612008
4578.98870361,0.01616490
4580.91751099,0.01605037
4582.84631836,0.01595309
4584.77512573,0.01606708
4586.70393311,0.01589809
4588.63274048,0.01589282
4590.56154785,0.01579498
4592.49035522,0.01572864
4594.41916260,0.01577836
4596.34796997,0.01578125
4598.27677734,0.01572180
4600.20558472,0.01562444
4602.13439209,0.01562554
4604.06319946,0.01555973
4605.99200684,0.01559914
4607.92081421,0.01548011
4609.84962158,0.01538584
4611.77842895,0.01543420
4613.70723633,0.01534433
4615.63604370,0.01532267
4617.56485107,0.01531827
4619.49365845,0.01528988
4621.42246582,0.01521819
4623.35127319,0.01516286
4625.28008057,0.01514566
4627.20888794,0.01518336
4629.13769531,0.01511322
4631.06650269,0.01502640
4632.99531006,0.01496481
4634.92411743,0.01496340
4636.85292480,0.01504552
4638.78173218,0.01483105
4640.71053955,0.01484328
4642.63934692,0.01483904
4644.56815430,0.01479272
4646.49696167,0.01487284
4648.42576904,0.01470768
4650.35457642,0.01473356
4652.28338379,0.01462194
4654.21219116,0.01455362
4656.14099853,0.01455973
4658.06980591,0.01452015
4659.99861328,0.01453792
4661.92742065,0.01440356
4663.85622803,0.01444066
4665.78503540,0.01440137
4667.71384277,0.01441542
4669.64265015,0.01430900
4671.57145752,0.01421520
4673.50026489,0.01438649
4675.42907227,0.01427296
4677.35787964,0.01420093
4679.28668701,0.01418027
4681.21549438,0.01417577
4683.14430176,0.01416813
4685.07310913,0.01411316
4687.00191650,0.01402399
4688.93072388,0.01396009
4690.85953125,0.01405790
4692.78833862,0.01395070
4694.71714600,0.01385912
4696.64595337,0.01391526
4698.57476074,0.01388271
4700.50356812,0.01379505
4702.43237549,0.01381851
4704.36118286,0.01375281
4706.28999023,0.01369585
4708.21879761,0.01372694
4710.14760498,0.01354320
4712.07641235,0.01357228
4714.00521973,0.01351749
4715.93402710,0.01345227
4717.86283447,0.01351809
4719.79164185,0.01341586
4721.72044922,0.01340272
4723.64925659,0.01332984
4725.57806396,0.01339360
4727.50687134,0.01338410
4729.43567871,0.01330133
4731.36448608,0.01329430
4733.29329346,0.01325893
4735.22210083,0.01325712
4737.15090820,0.01313194
4739.07971558,0.01319696
4741.00852295,0.01320650
4742.93733032,0.01309713
4744.86613770,0.01299720
4746.79494507,0.01301532
4748.72375244,0.01310955
4750.65255981,0.01292791
4752.58136719,0.01289612
4754.51017456,0.01293329
4756.43898193,0.01288310
4758.36778931,0.01282810
4760.29659668,0.01288911
4762.22540405,0.01286153
4764.15421143,0.01272995
4766.08301880,0.01277043
4768.01182617,0.01264327
4769.94063354,0.01265747
4771.86944092,0.01269094
4773.79824829,0.01264358
4775.72705566,0.01260592
4777.65586304,0.01251003
4779.58467041,0.01253153
4781.51347778,0.01249852
4783.44228516,0.01245402
4785.37109253,0.01233156
4787.29989990,0.01244700
4789.22870728,0.01241399
4791.15751465,0.01223188
4793.08632202,0.01234908
4795.01512939,0.01227619
4796.94393677,0.01227899
4798.87274414,0.01218183
4800.80155151,0.01213043
4802.73035889,0.01216527
4804.65916626,0.01210994
4806.58797363,0.01215223
4808.51678101,0.01204445
4810.44558838,0.01208868
4812.37439575,0.01202170
4814.30320312,0.01193274
4816.23201050,0.01196816
4818.16081787,0.01187912
4820.08962524,0.01187186
4822.01843262,0.01185106
4823.94723999,0.01180085
4825.87604736,0.01177857
4827.80485474,0.01183936
4829.73366211,0.01178219
4831.66246948,0.01170697
4833.59127686,0.01163622
4835.52008423,0.01163120
4837.44889160,0.01169192
4839.37769897,0.01158216
4841.30650635,0.01156027
4843.23531372,0.01143499
4845.16412109,0.01148027
4847.09292847,0.01154114
4849.02173584,0.01146915
4850.95054321,0.01146914
4852.87935059,0.01136104
4854.80815796,0.01144102
4856.73696533,0.01126918
4858.66577270,0.01123075
4860.59458008,0.01138607
4862.52338745,0.01124849
4864.45219482,0.01122857
4866.38100220,0.01118575
4868.30980957,0.01115707
4870.23861694,0.01105453
4872.16742432,0.01104518
4874.09623169,0.01110256
4876.02503906,0.01101700
4877.95384644,0.01097628
4879.88265381,0.01095243
4881.81146118,0.01099923
4883.74026855,0.01098257
4885.66907593,0.01094137
4887.59788330,0.01083061
4889.52669067,0.01081502
4891.45549805,0.01082776
4893.38430542,0.01076594
4895.31311279,0.01082326
4897.24192017,0.01074915
4899.17072754,0.01068077
4901.09953491,0.01065894
4903.02834228,0.01071143
4904.95714966,0.01063386
4906.88595703,0.01055031
4908.81476440,0.01062588
4910.74357178,0.01050384
4912.67237915,0.01049766
4914.60118652,0.01052354
4916.52999390,0.01053294
4918.45880127,0.01043038
4920.38760864,0.01031762
4922.31641602,0.01043273
4924.24522339,0.01042553
4926.17403076,0.01033194
4928.10283813,0.01023943
4930.03164551,0.01029465
4931.96045288,0.01025806
4933.88926025,0.01022841
4935.81806763,0.01022065
4937.74687500,0.01011344
4939.67568237,0.01023344
4941.60448975,0.01013023
4943.53329712,0.01001265
4945.46210449,0.01005042
4947.39091187,0.01005369
4949.31971924,0.01009559
4951.24852661,0.01002145
4953.17733398,0.00995018
4955.10614136,0.00994018
4957.03494873,0.00993404
4958.96375610,0.00983157
4960.89256348,0.00987357
4962.82137085,0.00992991
4964.75017822,0.00984884
4966.67898560,0.00982708
4968.60779297,0.00973849
4970.53660034,0.00973067
4972.46540771,0.00975257
4974.39421509,0.00970138
4976.32302246,0.00964395
4978.25182983,0.00965621
4980.18063721,0.00961642
4982.10944458,0.00956652
4984.03825195,0.00956127
4985.96705933,0.00948288
4987.89586670,0.00958482
4989.82467407,0.00955931
4991.75348145,0.00948455
4993.68228882,0.00948130
4995.61109619,0.00937111
4997.53990356,0.00938631
4999.46871094,0.00937695
5001.39751831,0.00933557
5003.32632568,0.00929391
5005.25513306,0.00928677
5007.18394043,0.00926279
5009.11274780,0.00922859
5011.04155518,0.00917021
5012.97036255,0.00917502
5014.89916992,0.00925060
5016.82797729,0.00912441
5018.75678467,0.00919051
5020.68559204,0.00914082
5022.61439941,0.00907954
5024.54320679,0.00915920
5026.47201416,0.00896624
5028.40082153,0.00898333
5030.32962891,0.00896215
5032.25843628,0.00892560
5034.18724365,0.00893417
5036.11605103,0.00889312
5038.04485840,0.00896674
5039.97366577,0.00886833
5041.90247314,0.00887646
5043.83128052,0.00888680
5045.76008789,0.00875764
5047.68889526,0.00878861
5049.61770264,0.00884382
5051.54651001,0.00871569
5053.47531738,0.00863874
5055.40412476,0.00866240
5057.33293213,0.00862034
5059.26173950,0.00868529
5061.19054687,0.00866097
5063.11935425,0.00859761
5065.04816162,0.00861250
5066.97696899,0.00862125
5068.90577637,0.00859869
5070.83458374,0.00848187
5072.76339111,0.00846287
5074.69219849,0.00851596
5076.62100586,0.00851576
5078.54981323,0.00842758
5080.47862061,0.00845926
5082.40742798,0.00839252
5084.33623535,0.00830495
5086.26504272,0.00843658
5088.19385010,0.00829632
5090.12265747,0.00827013
5092.05146484,0.00833277
5093.98027222,0.00827342
5095.90907959,0.00830135
5097.83788696,0.00824183
5099.76669434,0.00823398
5101.69550171,0.00817727
5103.62430908,0.00813393
5105.55311645,0.00816243
5107.48192383,0.00808612
5109.41073120,0.00804816
5111.33953857,0.00808608
5113.26834595,0.00803280
5115.19715332,0.00800290
5117.12596069,0.00804177
5119.05476807,0.00795464
5120.98357544,0.00798773
5122.91238281,0.00799289
5124.84119019,0.00788776
5126.76999756,0.00790597
5128.69880493,0.00790645
5130.62761230,0.00784095
5132.55641968,0.00781519
5134.48522705,0.00785487
5136.41403442,0.00777681
5138.34284180,0.00778616
5140.27164917,0.00775243
5142.20045654,0.00766900
5144.12926392,0.00771339
5146.05807129,0.00765083
5147.98687866,0.00775251
5149.91568603,0.00765690
5151.84449341,0.00753422
5153.77330078,0.00766438
5155.70210815,0.00757345
5157.63091553,0.00758960
5159.55972290,0.00753480
5161.48853027,0.00745461
5163.41733765,0.00754621
5165.34614502,0.00745459
5167.27495239,0.00743116
5169.20375977,0.00746181
5171.13256714,0.00738902
5173.06137451,0.00743222
5174.99018188,0.00748781
5176.91898926,0.00739800
5178.84779663,0.00737014
5180.77660400,0.00744710
5182.70541138,0.00736971
5184.63421875,0.00722322
5186.56302612,0.00722301
5188.49183350,0.00724749
5190.42064087,0.00728804
5192.34944824,0.00724657
5194.27825562,0.00718773
5196.20706299,0.00719461
5198.13587036,0.00707918
5200.06467773,0.00714514
5201.99348511,0.00718609
5203.92229248,0.00714430
5205.85109985,0.00711590
5207.77990723,0.00689953
5209.70871460,0.00695469
5211.63752197,0.00707275
5213.56632935,0.00707412
5215.49513672,0.00708090
5217.42394409,0.00706006
5219.35275146,0.00699575
5221.28155884,0.00693605
5223.21036621,0.00698949
5225.13917358,0.00677206
5227.06798096,0.00680156
5228.99678833,0.00696690
5230.92559570,0.00685197
5232.85440308,0.00692374
5234.78321045,0.00684440
5236.71201782,0.00679326
5238.64082520,0.00680859
5240.56963257,0.00678430
5242.49843994,0.00678035
5244.42724731,0.00663621
5246.35605469,0.00669563
5248.28486206,0.00661456
5250.21366943,0.00657497
5252.14247681,0.00682665
5254.07128418,0.00667113
5256.00009155,0.00660730
5257.92889893,0.00670878
5259.85770630,0.00657193
5261.78651367,0.00662423
5263.71532104,0.00645099
5265.64412842,0.00639398
5267.57293579,0.00658853
5269.50174316,0.00640755
5271.43055054,0.00655133
5273.35935791,0.00658522
5275.28816528,0.00645240
5277.21697266,0.00656724
5279.14578003,0.00648471
5281.07458740,0.00647795
5283.00339478,0.00637941
5284.93220215,0.00632411
5286.86100952,0.00641870
5288.78981689,0.00645840
5290.71862427,0.00633198
5292.64743164,0.00622680
5294.57623901,0.00645923
5296.50504639,0.00638259
5298.43385376,0.00628158
5300.36266113,0.00629800
5302.29146851,0.00623377
5304.22027588,0.00630791
5306.14908325,0.00620879
5308.07789062,0.00616360
5310.00669800,0.00622540
5311.93550537,0.00614887
5313.86431274,0.00613616
5315.79312012,0.00622981
5317.72192749,0.00610789
5319.65073486,0.00611342
5321.57954224,0.00619932
5323.50834961,0.00606507
5325.43715698,0.00610446
5327.36596436,0.00593914
5329.29477173,0.00588861
5331.22357910,0.00600004
5333.15238647,0.00590243
5335.08119385,0.00598624
5337.01000122,0.00588984
5338.93880859,0.00569578
5340.86761597,0.00587020
5342.79642334,0.00593756
5344.72523071,0.00561672
5346.65403809,0.00570511
5348.58284546,0.00581403
5350.51165283,0.00574625
5352.44046020,0.00584762
5354.36926758,0.00561678
5356.29807495,0.00572954
5358.22688232,0.00575848
5360.15568970,0.00572649
5362.08449707,0.00587382
5364.01330444,0.00562083
5365.94211182,0.00576296
5367.87091919,0.00575098
5369.79972656,0.00568616
5371.72853394,0.00579796
5373.65734131,0.00562906
5375.58614868,0.00558140
5377.51495605,0.00549576
5379.44376343,0.00556242
5381.37257080,0.00564297
5383.30137817,0.00558862
5385.23018555,0.00548020
5387.15899292,0.00546084
5389.08780029,0.00557664
5391.01660767,0.00556857
5392.94541504,0.00550463
5394.87422241,0.00529632
5396.80302978,0.00540216
5398.73183716,0.00554754
5400.66064453,0.00547070
5402.58945190,0.00549510
5404.51825928,0.00540078
5406.44706665,0.00546274
5408.37587402,0.00543330
5410.30468140,0.00528455
5412.23348877,0.00526552
5414.16229614,0.00518661
5416.09110352,0.00528421
5418.01991089,0.00535723
5419.94871826,0.00527676
5421.87752563,0.00533933
5423.80633301,0.00534048
5425.73514038,0.00531055
5427.66394775,0.00525703
5429.59275513,0.00502096
5431.52156250,0.00516612
5433.45036987,0.00528435
5435.37917725,0.00503036
5437.30798462,0.00510020
5439.23679199,0.00518763
5441.16559936,0.00508743
5443.09440674,0.00511962
5445.02321411,0.00513203
5446.95202148,0.00499388
5448.88082886,0.00503290
5450.80963623,0.00507875
5452.73844360,0.00505359
5454.66725098,0.00509437
5456.59605835,0.00497265
5458.52486572,0.00500572
5460.45367310,0.00498265
5462.38248047,0.00497803
5464.31128784,0.00501895
5466.24009521,0.00493842
5468.16890259,0.00503769
5470.09770996,0.00488574
5472.02651733,0.00491251
5473.95532471,0.00499678
5475.88413208,0.00481724
5477.81293945,0.00486266
5479.74174683,0.00490232
5481.67055420,0.00489753
5483.59936157,0.00484679
5485.52816895,0.00486895
5487.45697632,0.00477302
5489.38578369,0.00473727
5491.31459106,0.00484450
5493.24339844,0.00472771
5495.17220581,0.00478123
5497.10101318,0.00478380
5499.02982056,0.00475105
5500.95862793,0.00479297
5502.88743530,0.00480330
5504.81624268,0.00478980
5506.74505005,0.00467742
5508.67385742,0.00469529
5510.60266479,0.00467425
5512.53147217,0.00468622
5514.46027954,0.00467091
5516.38908691,0.00466184
5518.31789429,0.00469477
5520.24670166,0.00456706
5522.17550903,0.00461254
5524.10431641,0.00461256
5526.03312378,0.00458103
5527.96193115,0.00462804
5529.89073853,0.00456991
5531.81954590,0.00454467
5533.74835327,0.00451516
5535.67716064,0.00454271
5537.60596802,0.00453191
5539.53477539,0.00445053
5541.46358276,0.00451032
5543.39239014,0.00454921
5545.32119751,0.00449506
5547.25000488,0.00450132
5549.17881226,0.00443595
5551.10761963,0.00436728
5553.03642700,0.00441448
5554.96523437,0.00440177
5556.89404175,0.00437998
5558.82284912,0.00439375
5560.75165649,0.00439742
5562.68046387,0.00435845
5564.60927124,0.00435542
5566.53807861,0.00432797
5568.46688599,0.00426728
5570.39569336,0.00436567
5572.32450073,0.00437808
5574.25330811,0.00432326
5576.18211548,0.00436702
5578.11092285,0.00434188
5580.03973022,0.00432035
5581.96853760,0.00435327
5583.89734497,0.00428306
5585.82615234,0.00424813
5587.75495972,0.00420170
5589.68376709,0.00412693
5591.61257446,0.00426857
5593.54138184,0.00420449
5595.47018921,0.00415398
5597.39899658,0.00429559
5599.32780395,0.00424114
5601.25661133,0.00423874
5603.18541870,0.00420494
5605.11422607,0.00421610
5607.04303345,0.00420450
5608.97184082,0.00411629
5610.90064819,0.00416009
5612.82945557,0.00411619
5614.75826294,0.00409949
5616.68707031,0.00410914
5618.61587769,0.00410865
5620.54468506,0.00411117
5622.47349243,0.00409140
5624.40229980,0.00404296
5626.33110718,0.00398950
5628.25991455,0.00401790
5630.18872192,0.00400311
5632.11752930,0.00399993
5634.04633667,0.00396414
5635.97514404,0.00399268
5637.90395142,0.00399543
5639.83275879,0.00389770
5641.76156616,0.00392743
5643.69037353,0.00388918
5645.61918091,0.00391265
5647.54798828,0.00394324
5649.47679565,0.00387301
5651.40560303,0.00388325
5653.33441040,0.00386934
5655.26321777,0.00386998
5657.19202515,0.00389448
5659.12083252,0.00383927
5661.04963989,0.00379734
5662.97844727,0.00381656
5664.90725464,0.00380165
5666.83606201,0.00381169
5668.76486938,0.00377857
5670.69367676,0.00380601
5672.62248413,0.00381676
5674.55129150,0.00373320
5676.48009888,0.00381223
5678.40890625,0.00373349
5680.33771362,0.00367805
5682.26652100,0.00368902
5684.19532837,0.00367588
5686.12413574,0.00376708
5688.05294311,0.00366840
5689.98175049,0.00367279
5691.91055786,0.00369945
5693.83936523,0.00363340
5695.76817261,0.00362658
5697.69697998,0.00363656
5699.62578735,0.00365879
5701.55459473,0.00360705
5703.48340210,0.00357767
5705.41220947,0.00354417
5707.34101685,0.00359724
5709.26982422,0.00355939
5711.19863159,0.00355790
5713.12743896,0.00363585
5715.05624634,0.00350831
5716.98505371,0.00351681
5718.91386108,0.00349191
5720.84266846,0.00346326
5722.77147583,0.00348443
5724.70028320,0.00347677
5726.62909058,0.00350055
5728.55789795,0.00342823
5730.48670532,0.00344198
5732.41551270,0.00346331
5734.34432007,0.00350883
5736.27312744,0.00347150
5738.20193481,0.00341635
5740.13074219,0.00346403
5742.05954956,0.00343037
5743.98835693,0.00345581
5745.91716431,0.00341857
5747.84597168,0.00336776
5749.77477905,0.00339281
5751.70358643,0.00344639
5753.63239380,0.00340677
5755.56120117,0.00334027
5757.49000854,0.00338691
5759.41881592,0.00336135
5761.34762329,0.00339389
5763.27643066,0.00334941
5765.20523804,0.00329969
5767.13404541,0.00331928
5769.06285278,0.00323948
5770.99166016,0.00323674
5772.92046753,0.00325731
5774.84927490,0.00324842
5776.77808228,0.00321334
5778.70688965,0.00324277
5780.63569702,0.00324161
5782.56450439,0.00321445
5784.49331177,0.00322043
5786.42211914,0.00315517
5788.35092651,0.00318366
5790.27973389,0.00319058
5792.20854126,0.00312470
5794.13734863,0.00310308
5796.06615601,0.00312871
5797.99496338,0.00311222
5799.92377075,0.00313456
5801.85257812,0.00315596
5803.78138550,0.00306589
5805.71019287,0.00309935
5807.63900024,0.00309122
5809.56780762,0.00306553
5811.49661499,0.00307690
5813.42542236,0.00307918
5815.35422974,0.00306309
5817.28303711,0.00301276
5819.21184448,0.00309211
5821.14065186,0.00307710
5823.06945923,0.00308083
5824.99826660,0.00304987
5826.92707397,0.00298251
5828.85588135,0.00302396
5830.78468872,0.00300202
5832.71349609,0.00303450
5834.64230347,0.00296222
5836.57111084,0.00293811
5838.49991821,0.00294089
5840.42872559,0.00289406
5842.35753296,0.00293891
5844.28634033,0.00288781
5846.21514770,0.00289050
5848.14395508,0.00290397
5850.07276245,0.00289276
5852.00156982,0.00285925
5853.93037720,0.00286409
5855.85918457,0.00286590
5857.78799194,0.00280900
5859.71679932,0.00288772
5861.64560669,0.00283836
5863.57441406,0.00274832
5865.50322144,0.00279320
5867.43202881,0.00284403
5869.36083618,0.00278625
5871.28964355,0.00273739
5873.21845093,0.00278316
5875.14725830,0.00276512
5877.07606567,0.00280803
5879.00487305,0.00276332
5880.93368042,0.00274015
5882.86248779,0.00277418
5884.79129517,0.00272634
5886.72010254,0.00277156
5888.64890991,0.00272924
5890.57771728,0.00268307
5892.50652466,0.00272847
5894.43533203,0.00274695
5896.36413940,0.00270321
5898.29294678,0.00267450
5900.22175415,0.00268802
5902.15056152,0.00267169
5904.07936890,0.00265444
5906.00817627,0.00261827
5907.93698364,0.00259926
5909.86579102,0.00255719
5911.79459839,0.00263027
5913.72340576,0.00265918
5915.65221313,0.00259017
5917.58102051,0.00264094
5919.50982788,0.00258064
5921.43863525,0.00256638
5923.36744263,0.00255844
5925.29625000,0.00254430
5927.22505737,0.00263565
5929.15386475,0.00258588
5931.08267212,0.00252855
5933.01147949,0.00255472
5934.94028686,0.00255884
5936.86909424,0.00253974
5938.79790161,0.00257162
5940.72670898,0.00252977
5942.65551636,0.00249760
5944.58432373,0.00253296
5946.51313110,0.00249745
5948.44193848,0.00253044
5950.37074585,0.00249361
5952.29955322,0.00243411
5954.22836060,0.00247345
5956.15716797,0.00250811
5958.08597534,0.00244904
5960.01478271,0.00239099
5961.94359009,0.00247962
5963.87239746,0.00246760
5965.80120483,0.00243128
5967.73001221,0.00242075
5969.65881958,0.00237320
5971.58762695,0.00239307
5973.51643433,0.00242776
5975.44524170,0.00241796
5977.37404907,0.00237507
5979.30285645,0.00238463
5981.23166382,0.00234934
5983.16047119,0.00233776
5985.08927856,0.00234800
5987.01808594,0.00234901
5988.94689331,0.00239776
5990.87570068,0.00234034
5992.80450806,0.00231700
5994.73331543,0.00229046
5996.66212280,0.00223912
5998.59093018,0.00233501
6000.51973755,0.00238291
