399.26312622,0.00217846
401.19193359,0.00257192
403.12074097,0.00217637
405.04954834,0.00226681
406.97835571,0.00272922
408.90716309,0.00306372
410.83597046,0.00353804
412.76477783,0.00344507
414.69358521,0.00362081
416.62239258,0.00345880
418.55119995,0.00285320
420.48000732,0.00318752
422.40881470,0.00347644
424.33762207,0.00303510
426.26642944,0.00312267
428.19523682,0.00341557
430.12404419,0.00335139
432.05285156,0.00376456
433.98165894,0.00372738
435.91046631,0.00314804
437.83927368,0.00326615
439.76808105,0.00348891
441.69688843,0.00309023
443.62569580,0.00309711
445.55450317,0.00325268
447.48331055,0.00300448
449.41211792,0.00319287
451.34092529,0.00253915
453.26973267,0.00239906
455.19854004,0.00280358
457.12734741,0.00198829
459.05615479,0.00239026
460.98496216,0.00259595
462.91376953,0.00233847
464.84257690,0.00266587
466.77138428,0.00198701
468.70019165,0.00167144
470.62899902,0.00173786
472.55780640,0.00151530
474.48661377,0.00159640
476.41542114,0.00164696
478.34422852,0.00133592
480.27303589,0.00118014
482.20184326,0.00141224
484.13065063,0.00131852
486.05945801,0.00071507
487.98826538,0.00038474
489.91707275,0.00072038
491.84588013,0.00071730
493.77468750,0.00061404
495.70349487,0.00054304
497.63230225,0.00023935
499.56110962,0.00033661
501.48991699,0.00057878
503.41872437,0.00065746
505.34753174,0.00058715
507.27633911,0.00052072
509.20514648,0.00015395
511.13395386,0.00013232
513.06276123,0.00031180
514.99156860,0.00042463
516.92037598,0.00069510
518.84918335,0.00019309
520.77799072,0.00028290
522.70679810,0.00063592
524.63560547,0.00072649
526.56441284,0.00091536
528.49322021,0.00043412
530.42202759,0.00052898
532.35083496,0.00024467
534.27964233,0.00021327
536.20844971,0.00067407
538.13725708,0.00027819
540.06606445,0.00074165
541.99487183,0.00037960
543.92367920,0.00000523
545.85248657,0.00036696
547.78129395,-0.00021411
549.71010132,-0.00002785
551.63890869,0.00008627
553.56771606,0.00013035
555.49652344,0.00033183
557.42533081,0.00034939
559.35413818,0.00062621
561.28294556,0.00036140
563.21175293,0.00038257
565.14056030,0.00024364
567.06936768,-0.00000638
568.99817505,0.00018253
570.92698242,0.00018980
572.85578979,0.00053883
574.78459717,0.00051585
576.71340454,0.00030758
578.64221191,0.00045124
580.57101929,0.00016568
582.49982666,0.00002870
584.42863403,0.00034730
586.35744141,0.00025012
588.28624878,-0.00005094
590.21505615,0.00029021
592.14386353,0.00032978
594.07267090,0.00025020
596.00147827,0.00033061
597.93028564,0.00009847
599.85909302,0.00014993
601.78790039,0.00024319
603.71670776,0.00022039
605.64551514,0.00035953
607.57432251,0.00053804
609.50312988,0.00014266
611.43193726,0.00002753
613.36074463,0.00029791
615.28955200,0.00016102
617.21835938,0.00029306
619.14716675,0.00027483
621.07597412,0.00012169
623.00478149,0.00025196
624.93358887,0.00011187
626.86239624,-0.00006980
628.79120361,0.00044870
630.72001099,0.00079759
632.64881836,0.00175067
634.57762573,0.00265805
636.50643311,0.00220017
638.43524048,0.00259104
640.36404785,0.00278998
642.29285522,0.00301071
644.22166260,0.00366448
646.15046997,0.00354551
648.07927734,0.00377116
650.00808472,0.00392454
651.93689209,0.00405864
653.86569946,0.00408411
655.79450684,0.00432358
657.72331421,0.00476752
659.65212158,0.00472433
661.58092896,0.00493389
663.50973633,0.00542394
665.43854370,0.00540254
667.36735107,0.00463767
669.29615845,0.00517725
671.22496582,0.00593721
673.15377319,0.00598017
675.08258057,0.00640444
677.01138794,0.00637726
678.94019531,0.00647049
680.86900269,0.00634166
682.79781006,0.00661857
684.72661743,0.00661817
686.65542480,0.00639200
688.58423218,0.00711649
690.51303955,0.00681618
692.44184692,0.00707883
694.37065430,0.00762018
696.29946167,0.00830319
698.22826904,0.00996188
700.15707642,0.01043516
702.08588379,0.01032681
704.01469116,0.00966448
705.94349854,0.00838627
707.87230591,0.00702555
709.80111328,0.00563925
711.72992065,0.00403894
713.65872803,0.00269488
715.58753540,0.00188437
717.51634277,0.00075889
719.44515015,0.00080168
721.37395752,0.00089066
723.30276489,0.00035599
725.23157227,0.00052727
727.16037964,0.00053485
729.08918701,0.00040664
731.01799438,0.00012577
732.94680176,0.00009306
734.87560913,0.00020346
736.80441650,0.00029813
738.73322388,0.00023717
740.66203125,0.00026985
742.59083862,0.00053193
744.51964600,0.00014082
746.44845337,0.00011647
748.37726074,0.00022560
750.30606812,0.00014870
752.23487549,0.00012298
754.16368286,0.00031972
756.09249023,0.00049071
758.02129761,0.00010263
759.95010498,0.00031078
761.87891235,0.00074280
763.80771973,0.00067087
765.73652710,0.00058690
767.66533447,0.00070490
769.59414185,0.00071734
771.52294922,0.00050202
773.45175659,0.00049174
775.38056396,0.00060263
777.30937134,0.00055453
779.23817871,0.00048170
781.16698608,0.00071293
783.09579346,0.00078554
785.02460083,0.00046553
786.95340820,0.00037918
788.88221558,0.00057807
790.81102295,0.00082623
792.73983032,0.00088970
794.66863770,0.00092361
796.59744507,0.00101808
798.52625244,0.00128763
800.45505981,0.00155843
802.38386719,0.00126947
804.31267456,0.00105304
806.24148193,0.00108589
808.17028931,0.00070423
810.09909668,0.00054830
812.02790405,0.00097492
813.95671143,0.00087895
815.88551880,0.00037114
817.81432617,0.00026516
819.74313354,0.00046927
821.67194092,0.00066272
823.60074829,0.00070806
825.52955566,0.00077669
827.45836304,0.00090335
829.38717041,0.00125486
831.31597778,0.00150831
833.24478516,0.00176978
835.17359253,0.00233258
837.10239990,0.00254874
839.03120728,0.00260021
840.96001465,0.00218205
842.88882202,0.00171806
844.81762939,0.00189696
846.74643677,0.00179614
848.67524414,0.00160088
850.60405151,0.00162494
852.53285889,0.00150011
854.46166626,0.00127833
856.39047363,0.00122503
858.31928101,0.00095897
860.24808838,0.00095625
862.17689575,0.00111055
864.10570313,0.00058791
866.03451050,0.00077492
867.96331787,0.00087414
869.89212524,0.00058269
871.82093262,0.00072747
873.74973999,0.00044285
875.67854736,0.00040052
877.60735474,0.00060286
879.53616211,0.00079560
881.46496948,0.00069057
883.39377686,0.00050046
885.32258423,0.00063115
887.25139160,0.00059021
889.18019897,0.00033523
891.10900635,0.00031763
893.03781372,0.00067365
894.96662109,0.00036179
896.89542847,0.00031179
898.82423584,0.00054165
900.75304321,0.00071591
902.68185059,0.00102021
904.61065796,0.00059359
906.53946533,0.00061573
908.46827271,0.00075425
910.39708008,0.00076157
912.32588745,0.00094636
914.25469482,0.00114403
916.18350220,0.00139128
918.11230957,0.00144053
920.04111694,0.00170984
921.96992432,0.00151475
923.89873169,0.00170987
925.82753906,0.00205990
927.75634644,0.00189748
929.68515381,0.00245802
931.61396118,0.00259703
933.54276855,0.00253322
935.47157593,0.00276715
937.40038330,0.00290895
939.32919067,0.00340364
941.25799805,0.00356429
943.18680542,0.00330431
945.11561279,0.00320089
947.04442017,0.00326400
948.97322754,0.00331595
950.90203491,0.00319509
952.83084229,0.00307157
954.75964966,0.00316004
956.68845703,0.00321211
958.61726440,0.00309343
960.54607178,0.00293644
962.47487915,0.00321959
964.40368652,0.00342029
966.33249390,0.00311651
968.26130127,0.00342753
970.19010864,0.00357563
972.11891602,0.00372664
974.04772339,0.00424143
975.97653076,0.00422173
977.90533813,0.00466071
979.83414551,0.00519461
981.76295288,0.00554656
983.69176025,0.00600775
985.62056763,0.00648864
987.54937500,0.00740457
989.47818237,0.00839777
991.40698975,0.00930104
993.33579712,0.01024857
995.26460449,0.01118078
997.19341187,0.01190353
999.12221924,0.01298622
1001.05102661,0.01387056
1002.97983398,0.01473975
1004.90864136,0.01626575
1006.83744873,0.01684170
1008.76625610,0.01779363
1010.69506348,0.01927320
1012.62387085,0.02001340
1014.55267822,0.02104115
1016.48148560,0.02213353
1018.41029297,0.02316663
1020.33910034,0.02414388
1022.26790771,0.02537534
1024.19671509,0.02647020
1026.12552246,0.02714293
1028.05432983,0.02817335
1029.98313721,0.02909332
1031.91194458,0.02987323
1033.84075195,0.03039986
1035.76955933,0.03078451
1037.69836670,0.03108019
1039.62717407,0.03107732
1041.55598145,0.03124090
1043.48478882,0.03106341
1045.41359619,0.03058909
1047.34240356,0.03025987
1049.27121094,0.02986965
1051.20001831,0.02934935
1053.12882568,0.02880894
1055.05763306,0.02824592
1056.98644043,0.02757182
1058.91524780,0.02700980
1060.84405518,0.02615902
1062.77286255,0.02528158
1064.70166992,0.02481117
1066.63047729,0.02373834
1068.55928467,0.02258136
1070.48809204,0.02171755
1072.41689941,0.02053379
1074.34570679,0.01972251
1076.27451416,0.01888689
1078.20332153,0.01799789
1080.13212891,0.01731505
1082.06093628,0.01631501
1083.98974365,0.01559602
1085.91855103,0.01490160
1087.84735840,0.01417482
1089.77616577,0.01349446
1091.70497314,0.01279508
1093.63378052,0.01239618
1095.56258789,0.01187830
1097.49139526,0.01147832
1099.42020264,0.01093246
1101.34901001,0.01064265
1103.27781738,0.01083383
1105.20662476,0.01043784
1107.13543213,0.01001198
1109.06423950,0.01004213
1110.99304687,0.01016230
1112.92185425,0.01006197
1114.85066162,0.00997740
1116.77946899,0.00976062
1118.70827637,0.00961473
1120.63708374,0.00978421
1122.56589111,0.00960187
1124.49469849,0.00985414
1126.42350586,0.01010958
1128.35231323,0.01004828
1130.28112061,0.01042678
1132.20992798,0.01072330
1134.13873535,0.01110804
1136.06754272,0.01161927
1137.99635010,0.01220469
1139.92515747,0.01284401
1141.85396484,0.01376222
1143.78277222,0.01481626
1145.71157959,0.01559114
1147.64038696,0.01662735
1149.56919434,0.01728354
1151.49800171,0.01807710
1153.42680908,0.01924558
1155.35561646,0.01995983
1157.28442383,0.02094213
1159.21323120,0.02173891
1161.14203857,0.02252821
1163.07084595,0.02328802
1164.99965332,0.02402595
1166.92846069,0.02532354
1168.85726807,0.02602983
1170.78607544,0.02698388
1172.71488281,0.02789140
1174.64369019,0.02881072
1176.57249756,0.03050924
1178.50130493,0.03109794
1180.43011230,0.03217418
1182.35891968,0.03380048
1184.28772705,0.03515583
1186.21653442,0.03704108
1188.14534180,0.03842181
1190.07414917,0.04031012
1192.00295654,0.04230514
1193.93176392,0.04415901
1195.86057129,0.04637747
1197.78937866,0.04836616
1199.71818604,0.05062451
1201.64699341,0.05273052
1203.57580078,0.05496268
1205.50460815,0.05709706
1207.43341553,0.05903481
1209.36222290,0.06103691
1211.29103027,0.06303282
1213.21983765,0.06503659
1215.14864502,0.06642345
1217.07745239,0.06796941
1219.00625977,0.06903657
1220.93506714,0.06999587
1222.86387451,0.07115205
1224.79268188,0.07162102
1226.72148926,0.07239932
1228.65029663,0.07272898
1230.57910400,0.07301976
1232.50791138,0.07321106
1234.43671875,0.07302606
1236.36552612,0.07325950
1238.29433350,0.07297945
1240.22314087,0.07280480
1242.15194824,0.07263339
1244.08075562,0.07227091
1246.00956299,0.07206060
1247.93837036,0.07163674
1249.86717773,0.07117563
1251.79598511,0.07041474
1253.72479248,0.06953497
1255.65359985,0.06866856
1257.58240723,0.06770145
1259.51121460,0.06646270
1261.44002197,0.06547369
1263.36882935,0.06482496
1265.29763672,0.06383303
1267.22644409,0.06318212
1269.15525146,0.06240061
1271.08405884,0.06119609
1273.01286621,0.06029043
1274.94167358,0.05912089
1276.87048096,0.05787878
1278.79928833,0.05689664
1280.72809570,0.05566960
1282.65690308,0.05467643
1284.58571045,0.05387601
1286.51451782,0.05264337
1288.44332520,0.05163740
1290.37213257,0.05095775
1292.30093994,0.05036395
1294.22974731,0.05006012
1296.15855469,0.04973603
1298.08736206,0.04956479
1300.01616943,0.04985294
1301.94497681,0.05005751
1303.87378418,0.05037421
1305.80259155,0.05095352
1307.73139893,0.05141399
1309.66020630,0.05247019
1311.58901367,0.05331454
1313.51782104,0.05400515
1315.44662842,0.05557349
1317.37543579,0.05657507
1319.30424316,0.05788551
1321.23305054,0.06023265
1323.16185791,0.06209285
1325.09066528,0.06365316
1327.01947266,0.06561388
1328.94828003,0.06737323
1330.87708740,0.06887695
1332.80589478,0.07077549
1334.73470215,0.07203051
1336.66350952,0.07243736
1338.59231689,0.07178843
1340.52112427,0.07266254
1342.44993164,0.07591973
1344.37873901,0.07622399
1346.30754639,0.07607719
1348.23635376,0.07636824
1350.16516113,0.07543081
1352.09396851,0.07560018
1354.02277588,0.07463042
1355.95158325,0.07393373
1357.88039062,0.07368290
1359.80919800,0.07240428
1361.73800537,0.06913377
1363.66681274,0.06772028
1365.59562012,0.07168123
1367.52442749,0.07009236
1369.45323486,0.06900505
1371.38204224,0.07051367
1373.31084961,0.06618567
1375.23965698,0.06668974
1377.16846436,0.06867200
1379.09727173,0.06849116
1381.02607910,0.06858157
1382.95488647,0.06813319
1384.88369385,0.06861175
1386.81250122,0.06512281
1388.74130859,0.06560688
1390.67011597,0.07170765
1392.59892334,0.06981526
1394.52773071,0.06492436
1396.45653809,0.06830370
1398.38534546,0.06824161
1400.31415283,0.06752050
1402.24296021,0.07349561
1404.17176758,0.06945318
1406.10057495,0.06953450
1408.02938232,0.07261543
1409.95818970,0.06967726
1411.88699707,0.07143659
1413.81580444,0.06882994
1415.74461182,0.06999488
1417.67341919,0.06333814
1419.60222656,0.05578497
1421.53103394,0.06499711
1423.45984131,0.06327009
1425.38864868,0.06087837
1427.31745605,0.06205366
1429.24626343,0.05727382
1431.17507080,0.05558781
1433.10387817,0.05655760
1435.03268555,0.05152077
1436.96149292,0.04296446
1438.89030029,0.04915747
1440.81910767,0.05083285
1442.74791504,0.04674995
1444.67672241,0.04940332
1446.60552979,0.04499114
1448.53433716,0.04543293
1450.46314453,0.04724469
1452.39195190,0.04811027
1454.32075928,0.05004400
1456.24956665,0.04077061
1458.17837402,0.04205932
1460.10718140,0.05689118
1462.03598877,0.06125230
1463.96479614,0.06054135
1465.89360352,0.06277128
1467.82241089,0.07202750
1469.75121826,0.07793771
1471.68002563,0.06879836
1473.60883301,0.07196926
1475.53764038,0.08269420
1477.46644775,0.08929800
1479.39525513,0.09878634
1481.32406250,0.10011332
1483.25286987,0.10650863
1485.18167725,0.11037509
1487.11048462,0.10831903
1489.03929199,0.10769599
1490.96809937,0.10773922
1492.89690674,0.12649104
1494.82571411,0.12419303
1496.75452148,0.11037561
1498.68332886,0.12569466
1500.61213623,0.13005456
1502.54094360,0.13958398
1504.46975098,0.13269958
1506.39855835,0.09442583
1508.32736572,0.11527379
1510.25617310,0.13805473
1512.18498047,0.13334659
1514.11378784,0.14534034
1516.04259521,0.13040908
1517.97140259,0.13524911
1519.90020996,0.13187331
1521.82901733,0.11229462
1523.75782471,0.13873723
1525.68663208,0.13719428
1527.61543945,0.13583440
1529.54424683,0.15178593
1531.47305420,0.14587583
1533.40186157,0.13270640
1535.33066895,0.14034039
1537.25947632,0.15229484
1539.18828369,0.10746648
1541.11709106,0.11039822
1543.04589844,0.13524139
1544.97470581,0.12875995
1546.90351318,0.15435094
1548.83232056,0.14403532
1550.76112793,0.14772981
1552.68993530,0.14826798
1554.61874268,0.13276991
1556.54755005,0.14345969
1558.47635742,0.09969965
1560.40516479,0.10578655
1562.33397217,0.15536371
1564.26277954,0.14702851
1566.19158691,0.15090904
1568.12039429,0.14989960
1570.04920166,0.13143367
1571.97800903,0.15244594
1573.90681641,0.15592611
1575.83562378,0.12158570
1577.76443115,0.13742152
1579.69323853,0.15759978
1581.62204590,0.15007859
1583.55085327,0.15405916
1585.47966064,0.15183944
1587.40846802,0.15295854
1589.33727539,0.15182742
1591.26608276,0.15155819
1593.19489014,0.15203479
1595.12369751,0.15000965
1597.05250488,0.15220097
1598.98131226,0.15104966
1600.91011963,0.15206969
1602.83892700,0.14922193
1604.76773437,0.15199426
1606.69654175,0.14983119
1608.62534912,0.14908656
1610.55415649,0.14932586
1612.48296387,0.14992209
1614.41177124,0.15278080
1616.34057861,0.12357352
1618.26938599,0.13331509
1620.19819336,0.15785317
1622.12700073,0.13903037
1624.05580811,0.13919538
1625.98461548,0.14682269
1627.91342285,0.14605559
1629.84223022,0.14508288
1631.77103760,0.15552978
1633.69984497,0.14358565
1635.62865234,0.11620460
1637.55745972,0.13601995
1639.48626709,0.15148282
1641.41507446,0.14771390
1643.34388184,0.15200919
1645.27268921,0.13653246
1647.20149658,0.11803661
1649.13030396,0.14837542
1651.05911133,0.14267707
1652.98791870,0.08841188
1654.91672607,0.12068916
1656.84553345,0.15557724
1658.77434082,0.14815232
1660.70314819,0.15271825
1662.63195557,0.13816658
1664.56076294,0.14524251
1666.48957031,0.15775861
1668.41837769,0.13677922
1670.34718506,0.13174596
1672.27599243,0.15088660
1674.20479980,0.13917109
1676.13360718,0.13215227
1678.06241455,0.15378603
1679.99122192,0.14818421
1681.92002930,0.14626876
1683.84883667,0.11825870
1685.77764404,0.11525656
1687.70645142,0.16182967
1689.63525879,0.14007145
1691.56406616,0.15344620
1693.49287354,0.15870927
1695.42168091,0.11297265
1697.35048828,0.14032850
1699.27929565,0.12396749
1701.20810303,0.10883573
1703.13691040,0.15225160
1705.06571777,0.13985303
1706.99452515,0.13988894
1708.92333252,0.15345079
1710.85213989,0.14704265
1712.78094727,0.14994904
1714.70975464,0.13869268
1716.63856201,0.12362342
1718.56736938,0.12092400
1720.49617676,0.14453483
1722.42498413,0.15179315
1724.35379150,0.13966225
1726.28259888,0.15269601
1728.21140625,0.14103702
1730.14021362,0.14128661
1732.06902100,0.13871875
1733.99782837,0.10335308
1735.92663574,0.12928089
1737.85544312,0.14521435
1739.78425049,0.12799722
1741.71305786,0.13965409
1743.64186523,0.14184260
1745.57067261,0.14199838
1747.49947998,0.14335205
1749.42828735,0.13683918
1751.35709473,0.13016614
1753.28590210,0.14483726
1755.21470947,0.15275931
1757.14351685,0.13810848
1759.07232422,0.15278172
1761.00113159,0.14381996
1762.92993896,0.13736507
1764.85874634,0.15913969
1766.78755371,0.14277756
1768.71636108,0.14330480
1770.64516846,0.14320737
1772.57397583,0.12746520
1774.50278320,0.14240752
1776.43159058,0.15153812
1778.36039795,0.14940590
1780.28920532,0.14728680
1782.21801270,0.14869261
1784.14682007,0.14846466
1786.07562744,0.14504403
1788.00443481,0.15326020
1789.93324219,0.14951433
1791.86204956,0.13398911
1793.79085693,0.13982107
1795.71966431,0.15107849
1797.64847168,0.14902009
1799.57727905,0.14658767
1801.50608643,0.14384079
1803.43489380,0.14862925
1805.36370117,0.15232283
1807.29250854,0.15006095
1809.22131592,0.15067956
1811.15012329,0.14624517
1813.07893066,0.15103929
1815.00773804,0.15203018
1816.93654541,0.14975452
1818.86535278,0.15132713
1820.79416016,0.15056241
1822.72296753,0.15319142
1824.65177490,0.14264175
1826.58058228,0.14743012
1828.50938965,0.14838183
1830.43819702,0.13808572
1832.36700439,0.15106618
1834.29581177,0.15051608
1836.22461914,0.15000975
1838.15342651,0.14970145
1840.08223389,0.15033650
1842.01104126,0.15111145
1843.93984863,0.13285629
1845.86865601,0.14168108
1847.79746338,0.15070695
1849.72627075,0.14685744
1851.65507812,0.15158525
1853.58388550,0.14838473
1855.51269287,0.14995712
1857.44150024,0.14921595
1859.37030762,0.14793038
1861.29911499,0.14926539
1863.22792236,0.14746109
1865.15672974,0.14917681
1867.08553711,0.14406794
1869.01434448,0.13741189
1870.94315186,0.14310153
1872.87195923,0.14919408
1874.80076660,0.14664195
1876.72957397,0.14753747
1878.65838135,0.14713272
1880.58718872,0.14603335
1882.51599609,0.14765757
1884.44480347,0.14494079
1886.37361084,0.14711273
1888.30241821,0.14394942
1890.23122559,0.14058445
1892.16003296,0.14639276
1894.08884033,0.14431414
1896.01764771,0.14334616
1897.94645508,0.14535519
1899.87526245,0.14457515
1901.80406982,0.14485240
1903.73287720,0.14406781
1905.66168457,0.14458293
1907.59049194,0.14301832
1909.51929932,0.14214492
1911.44810669,0.14306927
1913.37691406,0.14311250
1915.30572144,0.14472869
1917.23452881,0.13819253
1919.16333618,0.13768969
1921.09214355,0.14359617
1923.02095093,0.13886547
1924.94975830,0.14166148
1926.87856567,0.14364316
1928.80737305,0.14154086
1930.73618042,0.14343816
1932.66498779,0.14117157
1934.59379517,0.14276028
1936.52260254,0.14174204
1938.45140991,0.14197211
1940.38021729,0.14243108
1942.30902466,0.13716504
1944.23783203,0.13990298
1946.16663940,0.14149706
1948.09544678,0.14099157
1950.02425415,0.14172065
1951.95306152,0.14108860
1953.88186890,0.14138333
1955.81067627,0.14058948
1957.73948364,0.14118956
1959.66829102,0.14092526
1961.59709839,0.14047214
1963.52590576,0.14106250
1965.45471313,0.14012030
1967.38352051,0.13863789
1969.31232788,0.13967299
1971.24113525,0.14079574
1973.16994263,0.13962355
1975.09875000,0.14027518
1977.02755737,0.13980147
1978.95636475,0.13983053
1980.88517212,0.14002703
1982.81397949,0.13915934
1984.74278687,0.13957804
1986.67159424,0.13828732
1988.60040161,0.13871381
1990.52920898,0.13765928
1992.45801636,0.13581738
1994.38682373,0.13795951
1996.31563110,0.13836336
1998.24443848,0.13764563
2000.17324585,0.13771886
2002.10205322,0.13735947
2004.03086060,0.13701716
2005.95966797,0.13694572
2007.88847534,0.13654265
2009.81728271,0.13637288
2011.74609009,0.13612825
2013.67489746,0.13592504
2015.60370483,0.13523446
2017.53251221,0.13383244
2019.46131958,0.13475260
2021.39012695,0.13500406
2023.31893433,0.13445142
2025.24774170,0.13448128
2027.17654907,0.13393922
2029.10535645,0.13401535
2031.03416382,0.13345847
2032.96297119,0.13325480
2034.89177856,0.13297053
2036.82058594,0.13259174
2038.74939331,0.13266133
2040.67820068,0.13181362
2042.60700806,0.13161910
2044.53581543,0.13175613
2046.46462280,0.13140796
2048.39343018,0.13103537
2050.32223755,0.13096239
2052.25104492,0.13085777
2054.17985229,0.13055146
2056.10865967,0.13028973
2058.03746704,0.13006574
2059.96627441,0.12981009
2061.89508179,0.12959382
2063.82388916,0.12913865
2065.75269653,0.12842740
2067.68150391,0.12888262
2069.61031128,0.12869744
2071.53911865,0.12831807
2073.46792603,0.12836927
2075.39673340,0.12770915
2077.32554077,0.12793475
2079.25434814,0.12748301
2081.18315552,0.12721685
2083.11196289,0.12726834
2085.04077026,0.12683681
2086.96957764,0.12694561
2088.89838501,0.12632185
2090.82719238,0.12600915
2092.75599976,0.12601733
2094.68480713,0.12582174
2096.61361450,0.12559327
2098.54242187,0.12547040
2100.47122925,0.12528059
2102.40003662,0.12491086
2104.32884399,0.12480009
2106.25765137,0.12455146
2108.18645874,0.12454723
2110.11526611,0.12408215
2112.04407349,0.12401890
2113.97288086,0.12394588
2115.90168823,0.12348869
2117.83049561,0.12366466
2119.75930298,0.12326963
2121.68811035,0.12318560
2123.61691772,0.12297606
2125.54572510,0.12273130
2127.47453247,0.12266441
2129.40333984,0.12242688
2131.33214722,0.12237851
2133.26095459,0.12213744
2135.18976196,0.12222588
2137.11856934,0.12178816
2139.04737671,0.12165023
2140.97618408,0.12156871
2142.90499146,0.12134160
2144.83379883,0.12147850
2146.76260620,0.12110822
2148.69141357,0.12111947
2150.62022095,0.12080728
2152.54902832,0.12069143
2154.47783569,0.12057036
2156.40664307,0.12020247
2158.33545044,0.12032755
2160.26425781,0.12014572
2162.19306519,0.12003230
2164.12187256,0.11984456
2166.05067993,0.11988807
2167.97948730,0.11957908
2169.90829468,0.11931745
2171.83710205,0.11943464
2173.76590942,0.11911207
2175.69471680,0.11904378
2177.62352417,0.11885524
2179.55233154,0.11878045
2181.48113892,0.11872323
2183.40994629,0.11863595
2185.33875366,0.11840582
2187.26756104,0.11813822
2189.19636841,0.11814112
2191.12517578,0.11798938
2193.05398315,0.11793937
2194.98279053,0.11754762
2196.91159790,0.11752573
2198.84040527,0.11743276
2200.76921265,0.11716674
2202.69802002,0.11724332
2204.62682739,0.11695836
2206.55563477,0.11691900
2208.48444214,0.11677573
2210.41324951,0.11668728
2212.34205688,0.11649184
2214.27086426,0.11635044
2216.19967163,0.11637846
2218.12847900,0.11601201
2220.05728638,0.11592019
2221.98609375,0.11581303
2223.91490112,0.11570933
2225.84370850,0.11547212
2227.77251587,0.11532608
2229.70132324,0.11519231
2231.63013062,0.11494049
2233.55893799,0.11485840
2235.48774536,0.11458529
2237.41655273,0.11451727
2239.34536011,0.11429256
2241.27416748,0.11411253
2243.20297485,0.11392420
2245.13178223,0.11365581
2247.06058960,0.11354570
2248.98939697,0.11343606
2250.91820435,0.11339954
2252.84701172,0.11308227
2254.77581909,0.11294170
2256.70462646,0.11269562
2258.63343384,0.11259516
2260.56224121,0.11243902
2262.49104858,0.11221985
2264.41985596,0.11235212
2266.34866333,0.11202222
2268.27747070,0.11191509
2270.20627808,0.11165931
2272.13508545,0.11153512
2274.06389282,0.11157405
2275.99270020,0.11138839
2277.92150757,0.11134352
2279.85031494,0.11103998
2281.77912231,0.11106084
2283.70792969,0.11103476
2285.63673706,0.11090750
2287.56554443,0.11047170
2289.49435181,0.11015324
2291.42315918,0.10996570
2293.35196655,0.10951428
2295.28077393,0.10944030
2297.20958130,0.10881039
2299.13838867,0.10855195
2301.06719604,0.10828035
2302.99600342,0.10764606
2304.92481079,0.10714035
2306.85361816,0.10626876
2308.78242554,0.10567507
2310.71123291,0.10465346
2312.64004028,0.10356565
2314.56884766,0.10249940
2316.49765503,0.10133246
2318.42646240,0.09986193
2320.35526978,0.09840319
2322.28407715,0.09727493
2324.21288452,0.09560360
2326.14169189,0.09459584
2328.07049927,0.09335326
2329.99930664,0.09201114
2331.92811401,0.09137745
2333.85692139,0.09091200
2335.78572876,0.09061742
2337.71453613,0.09036215
2339.64334351,0.09047296
2341.57215088,0.09063542
2343.50095825,0.09204534
2345.42976562,0.09382054
2347.35857300,0.09784983
2349.28738037,0.10169297
2351.21618774,0.09805866
2353.14499512,0.09279646
2355.07380249,0.08911359
2357.00260986,0.08605593
2358.93141724,0.08456899
2360.86022461,0.08335475
2362.78903198,0.08322819
2364.71783936,0.08364374
2366.64664673,0.08491696
2368.57545410,0.08684491
2370.50426147,0.08896811
2372.43306885,0.09164751
2374.36187622,0.09435047
2376.29068359,0.09718845
2378.21949097,0.09935647
2380.14829834,0.10111737
2382.07710571,0.10253234
2384.00591309,0.10327347
2385.93472046,0.10352321
2387.86352783,0.10364738
2389.79233521,0.10370379
2391.72114258,0.10351583
2393.64994995,0.10351762
2395.57875732,0.10336044
2397.50756470,0.10332700
2399.43637207,0.10312796
2401.36517944,0.10293442
2403.29398682,0.10298009
2405.22279419,0.10272691
2407.15160156,0.10265304
2409.08040894,0.10241471
2411.00921631,0.10228678
2412.93802368,0.10226551
2414.86683105,0.10210280
2416.79563843,0.10198830
2418.72444580,0.10176028
2420.65325317,0.10159720
2422.58206055,0.10155018
2424.51086792,0.10150559
2426.43967529,0.10118160
2428.36848267,0.10106166
2430.29729004,0.10102829
2432.22609741,0.10092980
2434.15490479,0.10080760
2436.08371216,0.10055699
2438.01251953,0.10056695
2439.94132690,0.10042876
2441.87013428,0.10032964
2443.79894165,0.10019123
2445.72774902,0.10001246
2447.65655640,0.09990443
2449.58536377,0.09975236
2451.51417114,0.09971975
2453.44297852,0.09943561
2455.37178589,0.09934035
2457.30059326,0.09932519
2459.22940063,0.09926619
2461.15820801,0.09912281
2463.08701538,0.09887786
2465.01582275,0.09888147
2466.94463013,0.09867044
2468.87343750,0.09847641
2470.80224487,0.09833571
2472.73105225,0.09818646
2474.65985962,0.09813097
2476.58866699,0.09806718
2478.51747437,0.09790767
2480.44628174,0.09773920
2482.37508911,0.09762454
2484.30389648,0.09741729
2486.23270386,0.09749550
2488.16151123,0.09739709
2490.09031860,0.09723312
2492.01912598,0.09712969
2493.94793335,0.09693269
2495.87674072,0.09688415
2497.80554810,0.09654118
2499.73435547,0.09643953
2501.66316284,0.09646741
2503.59197021,0.09631474
2505.52077759,0.09613955
2507.44958496,0.09603012
2509.37839233,0.09596184
2511.30719971,0.09572201
2513.23600708,0.09571445
2515.16481445,0.09555434
2517.09362183,0.09548978
2519.02242920,0.09541975
2520.95123657,0.09520699
2522.88004395,0.09515171
2524.80885132,0.09486096
2526.73765869,0.09492160
2528.66646606,0.09479778
2530.59527344,0.09459987
2532.52408081,0.09469336
2534.45288818,0.09436296
2536.38169556,0.09417848
2538.31050293,0.09409880
2540.23931030,0.09397382
2542.16811768,0.09394734
2544.09692505,0.09381738
2546.02573242,0.09371348
2547.95453979,0.09358922
2549.88334717,0.09334213
2551.81215454,0.09330359
2553.74096191,0.09334093
2555.66976929,0.09313308
2557.59857666,0.09297928
2559.52738403,0.09290491
2561.45619141,0.09276888
2563.38499878,0.09257635
2565.31380615,0.09247400
2567.24261353,0.09231526
2569.17142090,0.09225468
2571.10022827,0.09224212
2573.02903564,0.09198064
2574.95784302,0.09188328
2576.88665039,0.09176265
2578.81545776,0.09174895
2580.74426514,0.09160537
2582.67307251,0.09135123
2584.60187988,0.09132111
2586.53068726,0.09113403
2588.45949463,0.09115187
2590.38830200,0.09094687
2592.31710937,0.09071823
2594.24591675,0.09072660
2596.17472412,0.09059300
2598.10353149,0.09050958
2600.03233887,0.09031084
2601.96114624,0.09017132
2603.88995361,0.09005804
2605.81876099,0.09006101
2607.74756836,0.08994345
2609.67637573,0.08978233
2611.60518311,0.08976920
2613.53399048,0.08955675
2615.46279785,0.08943766
2617.39160522,0.08927086
2619.32041260,0.08922681
2621.24921997,0.08912294
2623.17802734,0.08891894
2625.10683472,0.08885753
2627.03564209,0.08874966
2628.96444946,0.08873782
2630.89325684,0.08854701
2632.82206421,0.08838303
2634.75087158,0.08826325
2636.67967895,0.08815338
2638.60848633,0.08805650
2640.53729370,0.08787093
2642.46610107,0.08771245
2644.39490845,0.08765820
2646.32371582,0.08770917
2648.25252319,0.08741195
2650.18133057,0.08732727
2652.11013794,0.08726475
2654.03894531,0.08711160
2655.96775269,0.08712228
2657.89656006,0.08688755
2659.82536743,0.08683988
2661.75417480,0.08660945
2663.68298218,0.08649745
2665.61178955,0.08642679
2667.54059692,0.08621565
2669.46940430,0.08627288
2671.39821167,0.08600843
2673.32701904,0.08589016
2675.25582642,0.08588005
2677.18463379,0.08576146
2679.11344116,0.08561366
2681.04224854,0.08538529
2682.97105591,0.08527093
2684.89986328,0.08518864
2686.82867065,0.08514024
2688.75747803,0.08501378
2690.68628540,0.08492998
2692.61509277,0.08475140
2694.54390015,0.08464639
2696.47270752,0.08456586
2698.40151489,0.08445094
2700.33032227,0.08433568
2702.25912964,0.08408623
2704.18793701,0.08417076
2706.11674438,0.08401714
2708.04555176,0.08377683
2709.97435913,0.08373167
2711.90316650,0.08360533
2713.83197388,0.08346589
2715.76078125,0.08325916
2717.68958862,0.08324315
2719.61839600,0.08308571
2721.54720337,0.08296373
2723.47601074,0.08283825
2725.40481812,0.08280791
2727.33362549,0.08274279
2729.26243286,0.08241752
2731.19124023,0.08245994
2733.12004761,0.08223337
2735.04885498,0.08216624
2736.97766235,0.08219068
2738.90646973,0.08184001
2740.83527710,0.08177522
2742.76408447,0.08164463
2744.69289185,0.08149774
2746.62169922,0.08142750
2748.55050659,0.08129609
2750.47931396,0.08113714
2752.40812134,0.08110707
2754.33692871,0.08101474
2756.26573608,0.08083982
2758.19454346,0.08070998
2760.12335083,0.08060043
2762.05215820,0.08052595
2763.98096558,0.08017632
2765.90977295,0.08015048
2767.83858032,0.08002168
2769.76738770,0.07982008
2771.69619507,0.07978083
2773.62500244,0.07949716
2775.55380981,0.07962395
2777.48261719,0.07943086
2779.41142456,0.07933047
2781.34023193,0.07932871
2783.26903931,0.07893978
2785.19784668,0.07889196
2787.12665405,0.07872844
2789.05546143,0.07861829
2790.98426880,0.07848379
2792.91307617,0.07824646
2794.84188354,0.07814704
2796.77069092,0.07814842
2798.69949829,0.07793741
2800.62830566,0.07775795
2802.55711304,0.07783557
2804.48592041,0.07747446
2806.41472778,0.07736024
2808.34353516,0.07724731
2810.27234253,0.07709118
2812.20114990,0.07701087
2814.12995728,0.07674258
2816.05876465,0.07675536
2817.98757202,0.07648136
2819.91637939,0.07641628
2821.84518677,0.07631293
2823.77399414,0.07608806
2825.70280151,0.07602970
2827.63160889,0.07573512
2829.56041626,0.07574120
2831.48922363,0.07560016
2833.41803101,0.07540998
2835.34683838,0.07524464
2837.27564575,0.07504985
2839.20445312,0.07489793
2841.13326050,0.07461102
2843.06206787,0.07441428
2844.99087524,0.07407492
2846.91968262,0.07363757
2848.84848999,0.07315387
2850.77729736,0.07303086
2852.70610474,0.07293701
2854.63491211,0.07290730
2856.56371948,0.07300694
2858.49252686,0.07272581
2860.42133423,0.07271809
2862.35014160,0.07251175
2864.27894897,0.07243565
2866.20775635,0.07251567
2868.13656372,0.07229384
2870.06537109,0.07220386
2871.99417847,0.07202510
2873.92298584,0.07206210
2875.85179321,0.07186593
2877.78060059,0.07163714
2879.70940796,0.07167095
2881.63821533,0.07159060
2883.56702270,0.07147174
2885.49583008,0.07131769
2887.42463745,0.07126804
2889.35344482,0.07102733
2891.28225220,0.07102139
2893.21105957,0.07088400
2895.13986694,0.07054029
2897.06867432,0.07056155
2898.99748169,0.07032980
2900.92628906,0.07011607
2902.85509644,0.06999455
2904.78390381,0.06979820
2906.71271118,0.06960182
2908.64151855,0.06939105
2910.57032593,0.06904144
2912.49913330,0.06859323
2914.42794067,0.06830395
2916.35674805,0.06804179
2918.28555542,0.06785479
2920.21436279,0.06767687
2922.14317017,0.06763028
2924.07197754,0.06752344
2926.00078491,0.06747735
2927.92959229,0.06748759
2929.85839966,0.06733979
2931.78720703,0.06742637
2933.71601440,0.06730916
2935.64482178,0.06731275
2937.57362915,0.06733627
2939.50243652,0.06725011
2941.43124390,0.06738703
2943.36005127,0.06726138
2945.28885864,0.06721643
2947.21766602,0.06714808
2949.14647339,0.06706084
2951.07528076,0.06686674
2953.00408813,0.06659032
2954.93289551,0.06659611
2956.86170288,0.06637740
2958.79051025,0.06609362
2960.71931763,0.06593569
2962.64812500,0.06588741
2964.57693237,0.06577873
2966.50573975,0.06565482
2968.43454712,0.06566384
2970.36335449,0.06577653
2972.29216187,0.06590828
2974.22096924,0.06572108
2976.14977661,0.06577761
2978.07858398,0.06587826
2980.00739136,0.06581468
2981.93619873,0.06583270
2983.86500610,0.06568925
2985.79381348,0.06575043
2987.72262085,0.06573240
2989.65142822,0.06557977
2991.58023560,0.06551743
2993.50904297,0.06529264
2995.43785034,0.06516112
2997.36665771,0.06512799
2999.29546509,0.06502192
3001.22427246,0.06496240
3003.15307983,0.06483804
3005.08188721,0.06471217
3007.01069458,0.06474429
3008.93950195,0.06461394
3010.86830933,0.06432176
3012.79711670,0.06408468
3014.72592407,0.06405596
3016.65473145,0.06404674
3018.58353882,0.06389460
3020.51234619,0.06376735
3022.44115356,0.06357946
3024.36996094,0.06348757
3026.29876831,0.06340808
3028.22757568,0.06333800
3030.15638306,0.06308563
3032.08519043,0.06280933
3034.01399780,0.06286874
3035.94280518,0.06268454
3037.87161255,0.06256770
3039.80041992,0.06249096
3041.72922729,0.06235244
3043.65803467,0.06231095
3045.58684204,0.06218845
3047.51564941,0.06207462
3049.44445679,0.06177286
3051.37326416,0.06178568
3053.30207153,0.06184995
3055.23087891,0.06155524
3057.15968628,0.06135663
3059.08849365,0.06136905
3061.01730103,0.06134280
3062.94610840,0.06107084
3064.87491577,0.06095136
3066.80372314,0.06077614
3068.73253052,0.06073720
3070.66133789,0.06072059
3072.59014526,0.06046344
3074.51895264,0.06044517
3076.44776001,0.06037284
3078.37656738,0.06023359
3080.30537476,0.05999745
3082.23418213,0.05994090
3084.16298950,0.05992550
3086.09179687,0.05980219
3088.02060425,0.05975468
3089.94941162,0.05948274
3091.87821899,0.05942480
3093.80702637,0.05926947
3095.73583374,0.05910945
3097.66464111,0.05906328
3099.59344849,0.05885626
3101.52225586,0.05878473
3103.45106323,0.05865653
3105.37987061,0.05864450
3107.30867798,0.05851796
3109.23748535,0.05831935
3111.16629272,0.05820986
3113.09510010,0.05801790
3115.02390747,0.05781367
3116.95271484,0.05762133
3118.88152222,0.05757110
3120.81032959,0.05744138
3122.73913696,0.05739633
3124.66794434,0.05724769
3126.59675171,0.05706702
3128.52555908,0.05708369
3130.45436645,0.05693284
3132.38317383,0.05670647
3134.31198120,0.05650265
3136.24078857,0.05643066
3138.16959595,0.05629083
3140.09840332,0.05621868
3142.02721069,0.05601969
3143.95601807,0.05579990
3145.88482544,0.05584054
3147.81363281,0.05563955
3149.74244019,0.05553453
3151.67124756,0.05528905
3153.60005493,0.05515245
3155.52886230,0.05514098
3157.45766968,0.05486807
3159.38647705,0.05485065
3161.31528442,0.05469175
3163.24409180,0.05448511
3165.17289917,0.05433759
3167.10170654,0.05417338
3169.03051392,0.05404863
3170.95932129,0.05388195
3172.88812866,0.05378833
3174.81693604,0.05368523
3176.74574341,0.05348261
3178.67455078,0.05320688
3180.60335815,0.05323300
3182.53216553,0.05312570
3184.46097290,0.05289953
3186.38978027,0.05285881
3188.31858765,0.05276357
3190.24739502,0.05266735
3192.17620239,0.05247750
3194.10500977,0.05245587
3196.03381714,0.05228778
3197.96262451,0.05206595
3199.89143188,0.05195750
3201.82023926,0.05188574
3203.74904663,0.05191497
3205.67785400,0.05168283
3207.60666138,0.05155931
3209.53546875,0.05138974
3211.46427612,0.05129958
3213.39308350,0.05124354
3215.32189087,0.05111381
3217.25069824,0.05109946
3219.17950562,0.05083731
3221.10831299,0.05083235
3223.03712036,0.05087610
3224.96592773,0.05079557
3226.89473511,0.05056892
3228.82354248,0.05038289
3230.75234985,0.05046885
3232.68115723,0.05034593
3234.60996460,0.05024845
3236.53877197,0.05012597
3238.46757935,0.05014595
3240.39638672,0.05006470
3242.32519409,0.04994970
3244.25400146,0.04988395
3246.18280884,0.04965410
3248.11161621,0.04977190
3250.04042358,0.04971723
3251.96923096,0.04971462
3253.89803833,0.04960478
3255.82684570,0.04933222
3257.75565308,0.04943147
3259.68446045,0.04942396
3261.61326782,0.04936746
3263.54207520,0.04924974
3265.47088257,0.04921449
3267.39968994,0.04912155
3269.32849731,0.04904367
3271.25730469,0.04903530
3273.18611206,0.04893023
3275.11491943,0.04879948
3277.04372681,0.04865874
3278.97253418,0.04881329
3280.90134155,0.04870027
3282.83014893,0.04865494
3284.75895630,0.04873565
3286.68776367,0.04862397
3288.61657104,0.04856488
3290.54537842,0.04836969
3292.47418579,0.04835688
3294.40299316,0.04829518
3296.33180054,0.04830717
3298.26060791,0.04818346
3300.18941528,0.04807858
3302.11822266,0.04815046
3304.04703003,0.04794082
3305.97583740,0.04791301
3307.90464478,0.04772742
3309.83345215,0.04773398
3311.76225952,0.04776791
3313.69106689,0.04762026
3315.61987427,0.04761527
3317.54868164,0.04752795
3319.47748901,0.04764546
3321.40629639,0.04750806
3323.33510376,0.04742175
3325.26391113,0.04736113
3327.19271851,0.04719771
3329.12152588,0.04725064
3331.05033325,0.04717890
3332.97914062,0.04711062
3334.90794800,0.04694598
3336.83675537,0.04681806
3338.76556274,0.04686768
3340.69437012,0.04687506
3342.62317749,0.04663479
3344.55198486,0.04664311
3346.48079224,0.04664518
3348.40959961,0.04640756
3350.33840698,0.04642763
3352.26721436,0.04628889
3354.19602173,0.04628789
3356.12482910,0.04608613
3358.05363647,0.04600810
3359.98244385,0.04605737
3361.91125122,0.04583455
3363.84005859,0.04588307
3365.76886597,0.04564910
3367.69767334,0.04569000
3369.62648071,0.04563393
3371.55528809,0.04553580
3373.48409546,0.04560486
3375.41290283,0.04536135
3377.34171020,0.04537196
3379.27051758,0.04525988
3381.19932495,0.04523231
3383.12813232,0.04502556
3385.05693970,0.04490159
3386.98574707,0.04485299
3388.91455444,0.04482461
3390.84336182,0.04480965
3392.77216919,0.04437221
3394.70097656,0.04461427
3396.62978394,0.04440427
3398.55859131,0.04412493
3400.48739868,0.04424926
3402.41620605,0.04409987
3404.34501343,0.04420000
3406.27382080,0.04405484
3408.20262817,0.04410636
3410.13143555,0.04401034
3412.06024292,0.04394672
3413.98905029,0.04380356
3415.91785767,0.04369284
3417.84666504,0.04374496
3419.77547241,0.04329149
3421.70427979,0.04333298
3423.63308716,0.04326804
3425.56189453,0.04329149
3427.49070190,0.04322647
3429.41950928,0.04309153
3431.34831665,0.04308278
3433.27712402,0.04277103
3435.20593140,0.04294071
3437.13473877,0.04267398
3439.06354614,0.04277493
3440.99235352,0.04260452
3442.92116089,0.04226819
3444.84996826,0.04257964
3446.77877563,0.04182734
3448.70758301,0.04193025
3450.63639038,0.04258057
3452.56519775,0.04242554
3454.49400513,0.04228036
3456.42281250,0.04218271
3458.35161987,0.04214194
3460.28042725,0.04198270
3462.20923462,0.04182387
3464.13804199,0.04187615
3466.06684937,0.04192270
3467.99565674,0.04172675
3469.92446411,0.04188370
3471.85327148,0.04183664
3473.78207886,0.04169135
3475.71088623,0.04163897
3477.63969360,0.04163155
3479.56850098,0.04166513
3481.49730835,0.04101009
3483.42611572,0.04131931
3485.35492310,0.04151092
3487.28373047,0.04118760
3489.21253784,0.04130654
3491.14134521,0.04128328
3493.07015259,0.04150505
3494.99895996,0.04112133
3496.92776733,0.04103822
3498.85657471,0.04125404
3500.78538208,0.04121023
3502.71418945,0.04052387
3504.64299683,0.04042356
3506.57180420,0.04146839
3508.50061157,0.04080845
3510.42941895,0.04068806
3512.35822632,0.04103010
3514.28703369,0.04103286
3516.21584106,0.04122207
3518.14464844,0.04077920
3520.07345581,0.04114623
3522.00226318,0.04071322
3523.93107056,0.04013376
3525.85987793,0.04035372
3527.78868530,0.04025709
3529.71749268,0.04041251
3531.64630005,0.04075090
3533.57510742,0.04106395
3535.50391479,0.04061937
3537.43272217,0.04037520
3539.36152954,0.04083458
3541.29033691,0.04087421
3543.21914429,0.04055584
3545.14795166,0.03968151
3547.07675903,0.03896025
3549.00556641,0.04034608
3550.93437378,0.04070949
3552.86318115,0.03951472
3554.79198853,0.04046464
3556.72079590,0.04073097
3558.64960327,0.04048994
3560.57841064,0.04017281
3562.50721802,0.03988629
3564.43602539,0.04026023
3566.36483276,0.03746922
3568.29364014,0.03646576
3570.22244751,0.03957160
3572.15125488,0.04076009
3574.08006226,0.04018863
3576.00886963,0.04027539
3577.93767700,0.04019543
3579.86648437,0.04003982
3581.79529175,0.04007762
3583.72409912,0.04014007
3585.65290649,0.03934713
3587.58171387,0.03609094
3589.51052124,0.03712218
3591.43932861,0.04053995
3593.36813599,0.03930382
3595.29694336,0.03856076
3597.22575073,0.03926736
3599.15455811,0.03969232
3601.08336548,0.03925456
3603.01217285,0.03951734
3604.94098022,0.04047032
3606.86978760,0.03893433
3608.79859497,0.03653888
3610.72740234,0.03747926
3612.65620972,0.03820845
3614.58501709,0.03708748
3616.51382446,0.03992365
3618.44263184,0.03682456
3620.37143921,0.03550232
3622.30024658,0.04024259
3624.22905395,0.03901999
3626.15786133,0.04085992
3628.08666870,0.03462529
3630.01547607,0.03120792
3631.94428345,0.03960216
3633.87309082,0.03864427
3635.80189819,0.03908639
3637.73070557,0.04007680
3639.65951294,0.03958898
3641.58832031,0.03991592
3643.51712769,0.03940050
3645.44593506,0.03975648
3647.37474243,0.03556506
3649.30354980,0.03256379
3651.23235718,0.03275906
3653.16116455,0.03918599
3655.08997192,0.03896470
3657.01877930,0.03460349
3658.94758667,0.04004197
3660.87639404,0.03924672
3662.80520142,0.03973426
3664.73400879,0.03962782
3666.66281616,0.03913597
3668.59162354,0.03815165
3670.52043091,0.03075650
3672.44923828,0.03739258
3674.37804565,0.03586089
3676.30685303,0.02926234
3678.23566040,0.03712829
3680.16446777,0.03817455
3682.09327515,0.03818305
3684.02208252,0.03932423
3685.95088989,0.03863749
3687.87969727,0.03488164
3689.80850464,0.03176625
3691.73731201,0.03624813
3693.66611938,0.03743817
3695.59492676,0.03833152
3697.52373413,0.03845953
3699.45254150,0.03810881
3701.38134888,0.03713844
3703.31015625,0.03558371
3705.23896362,0.03921662
3707.16777100,0.03736584
3709.09657837,0.03631175
3711.02538574,0.03417215
3712.95419312,0.03187999
3714.88300049,0.03758410
3716.81180786,0.03709503
3718.74061523,0.03731452
3720.66942261,0.03660064
3722.59822998,0.03516994
3724.52703735,0.03661327
3726.45584473,0.03399375
3728.38465210,0.03677402
3730.31345947,0.03641578
3732.24226685,0.03339392
3734.17107422,0.03253638
3736.09988159,0.03077253
3738.02868896,0.03273441
3739.95749634,0.03558283
3741.88630371,0.03730754
3743.81511108,0.02889106
3745.74391846,0.02695562
3747.67272583,0.03540663
3749.60153320,0.03051896
3751.53034058,0.02781885
3753.45914795,0.03217842
3755.38795532,0.03474256
3757.31676270,0.03605373
3759.24557007,0.03331917
3761.17437744,0.03460261
3763.10318481,0.03691620
3765.03199219,0.03436162
3766.96079956,0.03504687
3768.88960693,0.03474846
3770.81841431,0.03297909
3772.74722168,0.03568746
3774.67602905,0.03587503
3776.60483643,0.03589326
3778.53364380,0.03495494
3780.46245117,0.03352603
3782.39125854,0.03583847
3784.32006592,0.03500535
3786.24887329,0.03470890
3788.17768066,0.03548814
3790.10648804,0.03535239
3792.03529541,0.03519420
3793.96410278,0.03566968
3795.89291016,0.03349944
3797.82171753,0.03299037
3799.75052490,0.03490335
3801.67933228,0.02759613
3803.60813965,0.03216724
3805.53694702,0.03515876
3807.46575439,0.02848242
3809.39456177,0.03472169
3811.32336914,0.03416877
3813.25217651,0.03520331
3815.18098389,0.03181130
3817.10979126,0.02772263
3819.03859863,0.03523308
3820.96740601,0.02835709
3822.89621338,0.02981350
3824.82502075,0.03507439
3826.75382812,0.03161310
3828.68263550,0.03409358
3830.61144287,0.03271295
3832.54025024,0.03160409
3834.46905762,0.03226340
3836.39786499,0.03066196
3838.32667236,0.02772255
3840.25547974,0.02994791
3842.18428711,0.03227492
3844.11309448,0.03081239
3846.04190186,0.03356051
3847.97070923,0.03300751
3849.89951660,0.03305331
3851.82832397,0.02974999
3853.75713135,0.02203047
3855.68593872,0.02614432
3857.61474609,0.03310046
3859.54355347,0.03227085
3861.47236084,0.03174839
3863.40116821,0.03117513
3865.32997559,0.02885923
3867.25878296,0.03225376
3869.18759033,0.02953390
3871.11639770,0.02717305
3873.04520508,0.03248500
3874.97401245,0.02974518
3876.90281982,0.03213748
3878.83162720,0.03286645
3880.76043457,0.02792107
3882.68924194,0.03226195
3884.61804932,0.03021850
3886.54685669,0.02760112
3888.47566406,0.03242392
3890.40447144,0.03067598
3892.33327881,0.02865236
3894.26208618,0.03158563
3896.19089355,0.03211338
3898.11970093,0.03049154
3900.04850830,0.02886171
3901.97731567,0.02838983
3903.90612305,0.02820187
3905.83493042,0.02867040
3907.76373779,0.03142980
3909.69254517,0.03143614
3911.62135254,0.03099061
3913.55015991,0.03168027
3915.47896728,0.03067008
3917.40777466,0.02978509
3919.33658203,0.02950273
3921.26538940,0.03059939
3923.19419678,0.03048873
3925.12300415,0.02988891
3927.05181152,0.03041434
3928.98061890,0.03072293
3930.90942627,0.03013214
3932.83823364,0.02904287
3934.76704102,0.03036195
3936.69584839,0.03059759
3938.62465576,0.03031647
3940.55346313,0.03069633
3942.48227051,0.02935253
3944.41107788,0.02971559
3946.33988525,0.03026522
3948.26869263,0.02944022
3950.19750000,0.02944680
3952.12630737,0.02996708
3954.05511475,0.03002458
3955.98392212,0.02989877
3957.91272949,0.02989674
3959.84153687,0.02978890
3961.77034424,0.02952343
3963.69915161,0.02948170
3965.62795898,0.02982969
3967.55676636,0.02956545
3969.48557373,0.02949765
3971.41438110,0.02947300
3973.34318848,0.02938348
3975.27199585,0.02935899
3977.20080322,0.02906903
3979.12961060,0.02937228
3981.05841797,0.02918786
3982.98722534,0.02915696
3984.91603271,0.02914163
3986.84484009,0.02904310
3988.77364746,0.02913865
3990.70245483,0.02876460
3992.63126221,0.02891124
3994.56006958,0.02876376
3996.48887695,0.02880713
3998.41768433,0.02883760
4000.34649170,0.02862292
4002.27529907,0.02864141
4004.20410645,0.02851393
4006.13291382,0.02868132
4008.06172119,0.02838592
4009.99052856,0.02836715
4011.91933594,0.02841211
4013.84814331,0.02825365
4015.77695068,0.02830397
4017.70575806,0.02818351
4019.63456543,0.02809104
4021.56337280,0.02798870
4023.49218018,0.02811911
4025.42098755,0.02788278
4027.34979492,0.02787640
4029.27860229,0.02787328
4031.20740967,0.02775167
4033.13621704,0.02783637
4035.06502441,0.02763197
4036.99383179,0.02775439
4038.92263916,0.02751340
4040.85144653,0.02749420
4042.78025391,0.02748124
4044.70906128,0.02731492
4046.63786865,0.02741435
4048.56667603,0.02721299
4050.49548340,0.02731912
4052.42429077,0.02718201
4054.35309814,0.02715837
4056.28190552,0.02712621
4058.21071289,0.02699216
4060.13952026,0.02701719
4062.06832764,0.02694369
4063.99713501,0.02697170
4065.92594238,0.02679659
4067.85474976,0.02686119
4069.78355713,0.02666707
4071.71236450,0.02665971
4073.64117187,0.02669661
4075.56997925,0.02652346
4077.49878662,0.02659358
4079.42759399,0.02629772
4081.35640137,0.02634830
4083.28520874,0.02628583
4085.21401611,0.02633926
4087.14282349,0.02632672
4089.07163086,0.02608160
4091.00043823,0.02623621
4092.92924561,0.02609449
4094.85805298,0.02604798
4096.78686035,0.02592975
4098.71566772,0.02596533
4100.64447510,0.02591004
4102.57328247,0.02577871
4104.50208984,0.02581768
4106.43089722,0.02565403
4108.35970459,0.02569740
4110.28851196,0.02550441
4112.21731934,0.02550467
4114.14612671,0.02549987
4116.07493408,0.02545593
4118.00374145,0.02540429
4119.93254883,0.02521170
4121.86135620,0.02534328
4123.79016357,0.02522139
4125.71897095,0.02521485
4127.64777832,0.02511875
4129.57658569,0.02501367
4131.50539307,0.02497146
4133.43420044,0.02492883
4135.36300781,0.02498563
4137.29181519,0.02481389
4139.22062256,0.02488316
4141.14942993,0.02473268
4143.07823730,0.02470620
4145.00704468,0.02464084
4146.93585205,0.02454199
4148.86465942,0.02465759
4150.79346680,0.02448023
4152.72227417,0.02455022
4154.65108154,0.02444438
4156.57988892,0.02439904
4158.50869629,0.02434923
4160.43750366,0.02429103
4162.36631103,0.02428865
4164.29511841,0.02412570
4166.22392578,0.02419689
4168.15273315,0.02395819
4170.08154053,0.02398470
4172.01034790,0.02403312
4173.93915527,0.02393694
4175.86796265,0.02398347
4177.79677002,0.02379075
4179.72557739,0.02375876
4181.65438477,0.02371902
4183.58319214,0.02371020
4185.51199951,0.02365357
4187.44080688,0.02358837
4189.36961426,0.02354101
4191.29842163,0.02349572
4193.22722900,0.02341234
4195.15603638,0.02335295
4197.08484375,0.02335329
4199.01365112,0.02311778
4200.94245850,0.02323319
4202.87126587,0.02321001
4204.80007324,0.02314520
4206.72888062,0.02314305
4208.65768799,0.02296517
4210.58649536,0.02298900
4212.51530273,0.02288761
4214.44411011,0.02293113
4216.37291748,0.02279324
4218.30172485,0.02283857
4220.23053223,0.02281207
4222.15933960,0.02261554
4224.08814697,0.02274135
4226.01695435,0.02253828
4227.94576172,0.02261256
4229.87456909,0.02251478
4231.80337646,0.02237355
4233.73218384,0.02242684
4235.66099121,0.02234826
4237.58979858,0.02232063
4239.51860596,0.02221375
4241.44741333,0.02232828
4243.37622070,0.02210555
4245.30502808,0.02212157
4247.23383545,0.02220896
4249.16264282,0.02202639
4251.09145020,0.02201848
4253.02025757,0.02187036
4254.94906494,0.02192708
4256.87787231,0.02184751
4258.80667969,0.02190204
4260.73548706,0.02187087
4262.66429443,0.02172069
4264.59310181,0.02172487
4266.52190918,0.02163210
4268.45071655,0.02169862
4270.37952393,0.02148439
4272.30833130,0.02149094
4274.23713867,0.02146050
4276.16594604,0.02135554
4278.09475342,0.02143687
4280.02356079,0.02131494
4281.95236816,0.02136725
4283.88117554,0.02125666
4285.80998291,0.02116670
4287.73879028,0.02113180
4289.66759766,0.02115522
4291.59640503,0.02112728
4293.52521240,0.02102323
4295.45401978,0.02110017
4297.38282715,0.02095669
4299.31163452,0.02090820
4301.24044189,0.02086906
4303.16924927,0.02083005
4305.09805664,0.02076583
4307.02686401,0.02073509
4308.95567139,0.02070233
4310.88447876,0.02053646
4312.81328613,0.02066041
4314.74209351,0.02054665
4316.67090088,0.02046857
4318.59970825,0.02049615
4320.52851562,0.02038653
4322.45732300,0.02042576
4324.38613037,0.02035638
4326.31493774,0.02026735
4328.24374512,0.02022997
4330.17255249,0.02024189
4332.10135986,0.02020098
4334.03016724,0.02014822
4335.95897461,0.02011085
4337.88778198,0.02007420
4339.81658936,0.01997542
4341.74539673,0.01993469
4343.67420410,0.01993323
4345.60301147,0.01979208
4347.53181885,0.01988104
4349.46062622,0.01981807
4351.38943359,0.01973016
4353.31824097,0.01972148
4355.24704834,0.01970190
4357.17585571,0.01965181
4359.10466309,0.01948548
4361.03347046,0.01958612
4362.96227783,0.01942260
4364.89108520,0.01948261
4366.81989258,0.01949007
4368.74869995,0.01924388
4370.67750732,0.01933733
4372.60631470,0.01922647
4374.53512207,0.01926219
4376.46392944,0.01921347
4378.39273682,0.01924775
4380.32154419,0.01921730
4382.25035156,0.01910038
4384.17915894,0.01915731
4386.10796631,0.01892603
4388.03677368,0.01899940
4389.96558105,0.01890979
4391.89438843,0.01888825
4393.82319580,0.01893887
4395.75200317,0.01874210
4397.68081055,0.01877946
4399.60961792,0.01868919
4401.53842529,0.01870105
4403.46723267,0.01870953
4405.39604004,0.01865137
4407.32484741,0.01850035
4409.25365478,0.01847102
4411.18246216,0.01842671
4413.11126953,0.01830921
4415.04007690,0.01846516
4416.96888428,0.01829774
4418.89769165,0.01829300
4420.82649902,0.01828571
4422.75530640,0.01821274
4424.68411377,0.01823545
4426.61292114,0.01813227
4428.54172852,0.01818682
4430.47053589,0.01807268
4432.39934326,0.01804947
4434.32815063,0.01796237
4436.25695801,0.01794318
4438.18576538,0.01791321
4440.11457275,0.01781998
4442.04338013,0.01790098
4443.97218750,0.01776588
4445.90099487,0.01780919
4447.82980225,0.01768541
4449.75860962,0.01769397
4451.68741699,0.01773216
4453.61622437,0.01754985
4455.54503174,0.01763695
4457.47383911,0.01756620
4459.40264648,0.01756416
4461.33145386,0.01742024
4463.26026123,0.01735659
4465.18906860,0.01737858
4467.11787598,0.01731911
4469.04668335,0.01736022
4470.97549072,0.01717635
4472.90429810,0.01723637
4474.83310547,0.01719564
4476.76191284,0.01707445
4478.69072021,0.01711080
4480.61952759,0.01708237
4482.54833496,0.01710758
4484.47714233,0.01700546
4486.40594971,0.01697823
4488.33475708,0.01700982
4490.26356445,0.01696537
4492.19237183,0.01689181
4494.12117920,0.01687500
4496.04998657,0.01676969
4497.97879395,0.01669634
4499.90760132,0.01672568
4501.83640869,0.01664888
4503.76521606,0.01667120
4505.69402344,0.01657573
4507.62283081,0.01654056
4509.55163818,0.01654155
4511.48044556,0.01642650
4513.40925293,0.01643516
4515.33806030,0.01643503
4517.26686768,0.01633060
4519.19567505,0.01623584
4521.12448242,0.01636240
4523.05328979,0.01631516
4524.98209717,0.01623064
4526.91090454,0.01617296
4528.83971191,0.01604143
4530.76851929,0.01615765
4532.69732666,0.01611814
4534.62613403,0.01602131
4536.55494141,0.01601879
4538.48374878,0.01597435
4540.41255615,0.01590682
4542.34136353,0.01586214
4544.27017090,0.01580449
4546.19897827,0.01578254
4548.12778564,0.01581495
4550.05659302,0.01575949
4551.98540039,0.01580012
4553.91420776,0.01568276
4555.84301514,0.01567801
4557.77182251,0.01570757
4559.70062988,0.01552602
4561.62943726,0.01553454
4563.55824463,0.01549381
4565.48705200,0.01546706
4567.41585937,0.01536050
4569.34466675,0.01538162
4571.27347412,0.01543081
4573.20228149,0.01533040
4575.13108887,0.01532812
4577.05989624,0.01526827
4578.98870361,0.01527432
4580.91751099,0.01511168
4582.84631836,0.01515948
4584.77512573,0.01518521
4586.70393311,0.01507407
4588.63274048,0.01512853
4590.56154785,0.01492890
4592.49035522,0.01499832
4594.41916260,0.01494424
4596.34796997,0.01484699
4598.27677734,0.01487031
4600.20558472,0.01473767
4602.13439209,0.01491448
4604.06319946,0.01480712
4605.99200684,0.01459839
4607.92081421,0.01468145
4609.84962158,0.01467149
4611.77842895,0.01459172
4613.70723633,0.01460634
4615.63604370,0.01459045
4617.56485107,0.01453456
4619.49365845,0.01457575
4621.42246582,0.01454939
4623.35127319,0.01447118
4625.28008057,0.01433384
4627.20888794,0.01432665
4629.13769531,0.01430883
4631.06650269,0.01427628
4632.99531006,0.01431373
4634.92411743,0.01425113
4636.85292480,0.01426571
4638.78173218,0.01413981
4640.71053955,0.01411182
4642.63934692,0.01410227
4644.56815430,0.01405048
4646.49696167,0.01405817
4648.42576904,0.01396824
4650.35457642,0.01404406
4652.28338379,0.01401339
4654.21219116,0.01400111
4656.14099853,0.01392466
4658.06980591,0.01383069
4659.99861328,0.01383620
4661.92742065,0.01378972
4663.85622803,0.01387396
4665.78503540,0.01372639
4667.71384277,0.01368462
4669.64265015,0.01369646
4671.57145752,0.01359469
4673.50026489,0.01362871
4675.42907227,0.01361886
4677.35787964,0.01355990
4679.28668701,0.01348534
4681.21549438,0.01355471
4683.14430176,0.01346606
4685.07310913,0.01341052
4687.00191650,0.01341951
4688.93072388,0.01339235
4690.85953125,0.01343729
4692.78833862,0.01330908
4694.71714600,0.01331032
4696.64595337,0.01319433
4698.57476074,0.01320578
4700.50356812,0.01329697
4702.43237549,0.01317762
4704.36118286,0.01323163
4706.28999023,0.01311922
4708.21879761,0.01308026
4710.14760498,0.01309637
4712.07641235,0.01302506
4714.00521973,0.01301326
4715.93402710,0.01294191
4717.86283447,0.01293511
4719.79164185,0.01293824
4721.72044922,0.01289492
4723.64925659,0.01281282
4725.57806396,0.01277109
4727.50687134,0.01272463
4729.43567871,0.01277663
4731.36448608,0.01280713
4733.29329346,0.01272275
4735.22210083,0.01272399
4737.15090820,0.01262710
4739.07971558,0.01256748
4741.00852295,0.01258108
4742.93733032,0.01256327
4744.86613770,0.01254548
4746.79494507,0.01253793
4748.72375244,0.01248277
4750.65255981,0.01243330
4752.58136719,0.01243159
4754.51017456,0.01236041
4756.43898193,0.01236723
4758.36778931,0.01232531
4760.29659668,0.01231202
4762.22540405,0.01228850
4764.15421143,0.01225440
4766.08301880,0.01227946
4768.01182617,0.01217880
4769.94063354,0.01220176
4771.86944092,0.01213106
4773.79824829,0.01207433
4775.72705566,0.01211136
4777.65586304,0.01209641
4779.58467041,0.01210015
4781.51347778,0.01204124
4783.44228516,0.01204096
4785.37109253,0.01195165
4787.29989990,0.01193862
4789.22870728,0.01193913
4791.15751465,0.01196931
4793.08632202,0.01194547
4795.01512939,0.01176705
4796.94393677,0.01178402
4798.87274414,0.01173075
4800.80155151,0.01180858
4802.73035889,0.01179090
4804.65916626,0.01170742
4806.58797363,0.01174683
4808.51678101,0.01161347
4810.44558838,0.01161547
4812.37439575,0.01158147
4814.30320312,0.01155598
4816.23201050,0.01144389
4818.16081787,0.01145671
4820.08962524,0.01155440
4822.01843262,0.01140159
4823.94723999,0.01144907
4825.87604736,0.01137127
4827.80485474,0.01134444
4829.73366211,0.01144315
4831.66246948,0.01136954
4833.59127686,0.01133471
4835.52008423,0.01132046
4837.44889160,0.01125469
4839.37769897,0.01118230
4841.30650635,0.01118128
4843.23531372,0.01109526
4845.16412109,0.01115130
4847.09292847,0.01114099
4849.02173584,0.01101903
4850.95054321,0.01103227
4852.87935059,0.01106106
4854.80815796,0.01114542
4856.73696533,0.01096855
4858.66577270,0.01093358
4860.59458008,0.01099993
4862.52338745,0.01089822
4864.45219482,0.01090362
4866.38100220,0.01085870
4868.30980957,0.01081639
4870.23861694,0.01083430
4872.16742432,0.01093555
4874.09623169,0.01077513
4876.02503906,0.01068317
4877.95384644,0.01078348
4879.88265381,0.01069444
4881.81146118,0.01070369
4883.74026855,0.01061664
4885.66907593,0.01062869
4887.59788330,0.01063727
4889.52669067,0.01054594
4891.45549805,0.01058178
4893.38430542,0.01051833
4895.31311279,0.01048898
4897.24192017,0.01047240
4899.17072754,0.01049551
4901.09953491,0.01047633
4903.02834228,0.01043666
4904.95714966,0.01038151
4906.88595703,0.01025732
4908.81476440,0.01031914
4910.74357178,0.01039114
4912.67237915,0.01032755
4914.60118652,0.01023734
4916.52999390,0.01025262
4918.45880127,0.01023446
4920.38760864,0.01020013
4922.31641602,0.01018436
4924.24522339,0.01012431
4926.17403076,0.01014348
4928.10283813,0.01012905
4930.03164551,0.01014651
4931.96045288,0.01007150
4933.88926025,0.01000204
4935.81806763,0.01004543
4937.74687500,0.00996766
4939.67568237,0.00995301
4941.60448975,0.00993762
4943.53329712,0.00985280
4945.46210449,0.00987481
4947.39091187,0.00990919
4949.31971924,0.00981436
4951.24852661,0.00978809
4953.17733398,0.00982891
4955.10614136,0.00983514
4957.03494873,0.00979582
4958.96375610,0.00968849
4960.89256348,0.00966462
4962.82137085,0.00957887
4964.75017822,0.00958321
4966.67898560,0.00964130
4968.60779297,0.00958616
4970.53660034,0.00958880
4972.46540771,0.00952060
4974.39421509,0.00949038
4976.32302246,0.00953084
4978.25182983,0.00952005
4980.18063721,0.00942513
4982.10944458,0.00941686
4984.03825195,0.00945173
4985.96705933,0.00937718
4987.89586670,0.00933541
4989.82467407,0.00933333
4991.75348145,0.00935187
4993.68228882,0.00923815
4995.61109619,0.00924360
4997.53990356,0.00927457
4999.46871094,0.00924234
5001.39751831,0.00926112
5003.32632568,0.00914189
5005.25513306,0.00918560
5007.18394043,0.00909403
5009.11274780,0.00905576
5011.04155518,0.00918032
5012.97036255,0.00907580
5014.89916992,0.00902784
5016.82797729,0.00898084
5018.75678467,0.00897382
5020.68559204,0.00895822
5022.61439941,0.00898101
5024.54320679,0.00896414
5026.47201416,0.00894032
5028.40082153,0.00895394
5030.32962891,0.00883425
5032.25843628,0.00883179
5034.18724365,0.00880494
5036.11605103,0.00887728
5038.04485840,0.00881469
5039.97366577,0.00873391
5041.90247314,0.00877794
5043.83128052,0.00865684
5045.76008789,0.00876899
5047.68889526,0.00872425
5049.61770264,0.00870609
5051.54651001,0.00871357
5053.47531738,0.00862307
5055.40412476,0.00870889
5057.33293213,0.00860296
5059.26173950,0.00862257
5061.19054687,0.00860400
5063.11935425,0.00854484
5065.04816162,0.00855738
5066.97696899,0.00842189
5068.90577637,0.00839335
5070.83458374,0.00846729
5072.76339111,0.00850349
5074.69219849,0.00845063
5076.62100586,0.00847118
5078.54981323,0.00841251
5080.47862061,0.00837507
5082.40742798,0.00833245
5084.33623535,0.00823751
5086.26504272,0.00833310
5088.19385010,0.00833607
5090.12265747,0.00829795
5092.05146484,0.00823885
5093.98027222,0.00830159
5095.90907959,0.00826501
5097.83788696,0.00809587
5099.76669434,0.00817090
5101.69550171,0.00817798
5103.62430908,0.00818765
5105.55311645,0.00814162
5107.48192383,0.00812647
5109.41073120,0.00811945
5111.33953857,0.00802220
5113.26834595,0.00803705
5115.19715332,0.00803378
5117.12596069,0.00799254
5119.05476807,0.00789386
5120.98357544,0.00796550
5122.91238281,0.00794549
5124.84119019,0.00786225
5126.76999756,0.00791932
5128.69880493,0.00788791
5130.62761230,0.00790782
5132.55641968,0.00780147
5134.48522705,0.00780435
5136.41403442,0.00779830
5138.34284180,0.00774068
5140.27164917,0.00781167
5142.20045654,0.00772811
5144.12926392,0.00775308
5146.05807129,0.00769923
5147.98687866,0.00766339
5149.91568603,0.00770108
5151.84449341,0.00764860
5153.77330078,0.00770810
5155.70210815,0.00760120
5157.63091553,0.00749717
5159.55972290,0.00755323
5161.48853027,0.00757626
5163.41733765,0.00756081
5165.34614502,0.00755879
5167.27495239,0.00754045
5169.20375977,0.00745625
5171.13256714,0.00743891
5173.06137451,0.00741117
5174.99018188,0.00740330
5176.91898926,0.00748410
5178.84779663,0.00743792
5180.77660400,0.00738946
5182.70541138,0.00739071
5184.63421875,0.00726565
5186.56302612,0.00727931
5188.49183350,0.00736855
5190.42064087,0.00735381
5192.34944824,0.00736872
5194.27825562,0.00731008
5196.20706299,0.00720000
5198.13587036,0.00712618
5200.06467773,0.00721005
5201.99348511,0.00730417
5203.92229248,0.00721005
5205.85109985,0.00703784
5207.77990723,0.00693878
5209.70871460,0.00700153
5211.63752197,0.00706547
5213.56632935,0.00714684
5215.49513672,0.00710158
5217.42394409,0.00704395
5219.35275146,0.00704520
5221.28155884,0.00699131
5223.21036621,0.00703974
5225.13917358,0.00690145
5227.06798096,0.00691566
5228.99678833,0.00702403
5230.92559570,0.00692962
5232.85440308,0.00694288
5234.78321045,0.00692020
5236.71201782,0.00692077
5238.64082520,0.00685736
5240.56963257,0.00686396
5242.49843994,0.00685481
5244.42724731,0.00672013
5246.35605469,0.00675785
5248.28486206,0.00665310
5250.21366943,0.00666932
5252.14247681,0.00686075
5254.07128418,0.00677737
5256.00009155,0.00666632
5257.92889893,0.00672406
5259.85770630,0.00675187
5261.78651367,0.00665080
5263.71532104,0.00652239
5265.64412842,0.00651050
5267.57293579,0.00665809
5269.50174316,0.00670314
5271.43055054,0.00663303
5273.35935791,0.00661969
5275.28816528,0.00664387
5277.21697266,0.00658863
5279.14578003,0.00649483
5281.07458740,0.00654299
5283.00339478,0.00658252
5284.93220215,0.00649842
5286.86100952,0.00650128
5288.78981689,0.00655260
5290.71862427,0.00634053
5292.64743164,0.00633467
5294.57623901,0.00649177
5296.50504639,0.00638757
5298.43385376,0.00641123
5300.36266113,0.00637167
5302.29146851,0.00637413
5304.22027588,0.00643135
5306.14908325,0.00634148
5308.07789062,0.00629092
5310.00669800,0.00626121
5311.93550537,0.00632833
5313.86431274,0.00627260
5315.79312012,0.00621817
5317.72192749,0.00625436
5319.65073486,0.00630439
5321.57954224,0.00625675
5323.50834961,0.00618631
5325.43715698,0.00623855
5327.36596436,0.00607247
5329.29477173,0.00609476
5331.22357910,0.00615637
5333.15238647,0.00613126
5335.08119385,0.00616231
5337.01000122,0.00594268
5338.93880859,0.00585072
5340.86761597,0.00603610
5342.79642334,0.00607872
5344.72523071,0.00575748
5346.65403809,0.00588205
5348.58284546,0.00605263
5350.51165283,0.00587608
5352.44046020,0.00594689
5354.36926758,0.00588208
5356.29807495,0.00599805
5358.22688232,0.00601241
5360.15568970,0.00599022
5362.08449707,0.00601683
5364.01330444,0.00581165
5365.94211182,0.00591977
5367.87091919,0.00590558
5369.79972656,0.00590829
5371.72853394,0.00582524
5373.65734131,0.00575504
5375.58614868,0.00580326
5377.51495605,0.00559264
5379.44376343,0.00572619
5381.37257080,0.00586989
5383.30137817,0.00585028
5385.23018555,0.00569950
5387.15899292,0.00561674
5389.08780029,0.00575261
5391.01660767,0.00573232
5392.94541504,0.00566333
5394.87422241,0.00553072
5396.80302978,0.00560763
5398.73183716,0.00565593
5400.66064453,0.00566213
5402.58945190,0.00568984
5404.51825928,0.00556923
5406.44706665,0.00563704
5408.37587402,0.00554450
5410.30468140,0.00544934
5412.23348877,0.00547850
5414.16229614,0.00538168
5416.09110352,0.00543750
5418.01991089,0.00557517
5419.94871826,0.00553927
5421.87752563,0.00552337
5423.80633301,0.00550919
5425.73514038,0.00541365
5427.66394775,0.00543086
5429.59275513,0.00526857
5431.52156250,0.00536049
5433.45036987,0.00550719
5435.37917725,0.00523590
5437.30798462,0.00539557
5439.23679199,0.00548599
5441.16559936,0.00524725
5443.09440674,0.00526538
5445.02321411,0.00521987
5446.95202148,0.00515625
5448.88082886,0.00528489
5450.80963623,0.00523682
5452.73844360,0.00525214
5454.66725098,0.00532587
5456.59605835,0.00515813
5458.52486572,0.00523204
5460.45367310,0.00519600
5462.38248047,0.00515094
5464.31128784,0.00520153
5466.24009521,0.00512628
5468.16890259,0.00519769
5470.09770996,0.00507977
5472.02651733,0.00517797
5473.95532471,0.00515242
5475.88413208,0.00497431
5477.81293945,0.00512822
5479.74174683,0.00509517
5481.67055420,0.00515122
5483.59936157,0.00510447
5485.52816895,0.00499346
5487.45697632,0.00497649
5489.38578369,0.00500134
5491.31459106,0.00506028
5493.24339844,0.00489293
5495.17220581,0.00496931
5497.10101318,0.00501767
5499.02982056,0.00496742
5500.95862793,0.00501875
5502.88743530,0.00495511
5504.81624268,0.00496118
5506.74505005,0.00489917
5508.67385742,0.00486903
5510.60266479,0.00493332
5512.53147217,0.00491833
5514.46027954,0.00494465
5516.38908691,0.00488582
5518.31789429,0.00477627
5520.24670166,0.00489334
5522.17550903,0.00483916
5524.10431641,0.00475270
5526.03312378,0.00490324
5527.96193115,0.00483713
5529.89073853,0.00484052
5531.81954590,0.00482756
5533.74835327,0.00475332
5535.67716064,0.00482178
5537.60596802,0.00474472
5539.53477539,0.00475215
5541.46358276,0.00481147
5543.39239014,0.00468836
5545.32119751,0.00462292
5547.25000488,0.00472140
5549.17881226,0.00465907
5551.10761963,0.00467087
5553.03642700,0.00471818
5554.96523437,0.00457143
5556.89404175,0.00463742
5558.82284912,0.00460765
5560.75165649,0.00458571
5562.68046387,0.00458878
5564.60927124,0.00454932
5566.53807861,0.00464747
5568.46688599,0.00459459
5570.39569336,0.00459116
5572.32450073,0.00450477
5574.25330811,0.00449250
5576.18211548,0.00453135
5578.11092285,0.00444449
5580.03973022,0.00447973
5581.96853760,0.00444937
5583.89734497,0.00451436
5585.82615234,0.00446525
5587.75495972,0.00441284
5589.68376709,0.00450264
5591.61257446,0.00444803
5593.54138184,0.00447463
5595.47018921,0.00445914
5597.39899658,0.00442517
5599.32780395,0.00443905
5601.25661133,0.00440089
5603.18541870,0.00436151
5605.11422607,0.00436574
5607.04303345,0.00436424
5608.97184082,0.00434588
5610.90064819,0.00441560
5612.82945557,0.00439671
5614.75826294,0.00432145
5616.68707031,0.00432828
5618.61587769,0.00433986
5620.54468506,0.00429673
5622.47349243,0.00429371
5624.40229980,0.00430295
5626.33110718,0.00424849
5628.25991455,0.00424683
5630.18872192,0.00423982
5632.11752930,0.00424665
5634.04633667,0.00422445
5635.97514404,0.00420177
5637.90395142,0.00422167
5639.83275879,0.00422083
5641.76156616,0.00418931
5643.69037353,0.00413118
5645.61918091,0.00418811
5647.54798828,0.00414643
5649.47679565,0.00407892
5651.40560303,0.00408208
5653.33441040,0.00405932
5655.26321777,0.00410252
5657.19202515,0.00404157
5659.12083252,0.00404083
5661.04963989,0.00410987
5662.97844727,0.00407573
5664.90725464,0.00407422
5666.83606201,0.00410678
5668.76486938,0.00405738
5670.69367676,0.00404597
5672.62248413,0.00408432
5674.55129150,0.00399247
5676.48009888,0.00397941
5678.40890625,0.00397798
5680.33771362,0.00395819
5682.26652100,0.00395440
5684.19532837,0.00392833
5686.12413574,0.00396032
5688.05294311,0.00394558
5689.98175049,0.00399852
5691.91055786,0.00395853
5693.83936523,0.00392852
5695.76817261,0.00392617
5697.69697998,0.00385822
5699.62578735,0.00393413
5701.55459473,0.00383516
5703.48340210,0.00381989
5705.41220947,0.00388888
5707.34101685,0.00379142
5709.26982422,0.00383542
5711.19863159,0.00385536
5713.12743896,0.00380156
5715.05624634,0.00383204
5716.98505371,0.00384279
5718.91386108,0.00377435
5720.84266846,0.00373320
5722.77147583,0.00370503
5724.70028320,0.00375041
5726.62909058,0.00378852
5728.55789795,0.00374358
5730.48670532,0.00372377
5732.41551270,0.00365949
5734.34432007,0.00366242
5736.27312744,0.00366841
5738.20193481,0.00369824
5740.13074219,0.00369322
5742.05954956,0.00365932
5743.98835693,0.00370678
5745.91716431,0.00363504
5747.84597168,0.00364486
5749.77477905,0.00359734
5751.70358643,0.00357164
5753.63239380,0.00362104
5755.56120117,0.00352104
5757.49000854,0.00356205
5759.41881592,0.00360217
5761.34762329,0.00357597
5763.27643066,0.00353502
5765.20523804,0.00354485
5767.13404541,0.00353784
5769.06285278,0.00348700
5770.99166016,0.00351870
5772.92046753,0.00345932
5774.84927490,0.00350753
5776.77808228,0.00350513
5778.70688965,0.00349625
5780.63569702,0.00357095
5782.56450439,0.00342861
5784.49331177,0.00344804
5786.42211914,0.00348659
5788.35092651,0.00337013
5790.27973389,0.00341207
5792.20854126,0.00342790
5794.13734863,0.00338675
5796.06615601,0.00342469
5797.99496338,0.00337837
5799.92377075,0.00339799
5801.85257812,0.00346922
5803.78138550,0.00336691
5805.71019287,0.00336321
5807.63900024,0.00338704
5809.56780762,0.00335609
5811.49661499,0.00332612
5813.42542236,0.00328467
5815.35422974,0.00330828
5817.28303711,0.00329228
5819.21184448,0.00332251
5821.14065186,0.00330398
5823.06945923,0.00325752
5824.99826660,0.00326478
5826.92707397,0.00321373
5828.85588135,0.00323532
5830.78468872,0.00319439
5832.71349609,0.00313562
5834.64230347,0.00318337
5836.57111084,0.00316454
5838.49991821,0.00318096
5840.42872559,0.00317576
5842.35753296,0.00312739
5844.28634033,0.00321157
5846.21514770,0.00318699
5848.14395508,0.00316639
5850.07276245,0.00314932
5852.00156982,0.00301375
5853.93037720,0.00308916
5855.85918457,0.00308365
5857.78799194,0.00306962
5859.71679932,0.00307126
5861.64560669,0.00301374
5863.57441406,0.00313137
5865.50322144,0.00303992
5867.43202881,0.00303063
5869.36083618,0.00306261
5871.28964355,0.00295256
5873.21845093,0.00299945
5875.14725830,0.00303990
5877.07606567,0.00306662
5879.00487305,0.00300552
5880.93368042,0.00302271
5882.86248779,0.00302381
5884.79129517,0.00297608
5886.72010254,0.00299857
5888.64890991,0.00291777
5890.57771728,0.00295551
5892.50652466,0.00299255
5894.43533203,0.00298748
5896.36413940,0.00294535
5898.29294678,0.00292695
5900.22175415,0.00299359
5902.15056152,0.00293146
5904.07936890,0.00291391
5906.00817627,0.00291691
5907.93698364,0.00290303
5909.86579102,0.00289982
5911.79459839,0.00288818
5913.72340576,0.00287283
5915.65221313,0.00289473
5917.58102051,0.00289407
5919.50982788,0.00283525
5921.43863525,0.00290191
5923.36744263,0.00285757
5925.29625000,0.00279527
5927.22505737,0.00282382
5929.15386475,0.00285265
5931.08267212,0.00286840
5933.01147949,0.00285116
5934.94028686,0.00289205
5936.86909424,0.00280995
5938.79790161,0.00282340
5940.72670898,0.00280883
5942.65551636,0.00279908
5944.58432373,0.00284403
5946.51313110,0.00266873
5948.44193848,0.00273589
5950.37074585,0.00274253
5952.29955322,0.00273201
5954.22836060,0.00276360
5956.15716797,0.00265660
5958.08597534,0.00278838
5960.01478271,0.00270778
5961.94359009,0.00266444
5963.87239746,0.00275480
5965.80120483,0.00265623
5967.73001221,0.00268811
5969.65881958,0.00269591
5971.58762695,0.00268539
5973.51643433,0.00266770
5975.44524170,0.00263687
5977.37404907,0.00267171
5979.30285645,0.00262595
5981.23166382,0.00262955
5983.16047119,0.00266523
5985.08927856,0.00262358
5987.01808594,0.00265419
5988.94689331,0.00268101
5990.87570068,0.00262973
5992.80450806,0.00261069
5994.73331543,0.00260468
5996.66212280,0.00258616
5998.59093018,0.00253497
6000.51973755,0.00253510
