399.26312622,0.00180406
401.19193359,0.00178704
403.12074097,0.00142092
405.04954834,0.00179823
406.97835571,0.00207225
408.90716309,0.00215862
410.83597046,0.00269456
412.76477783,0.00271282
414.69358521,0.00240322
416.62239258,0.00265976
418.55119995,0.00215018
420.48000732,0.00211432
422.40881470,0.00301755
424.33762207,0.00322888
426.26642944,0.00322393
428.19523682,0.00294418
430.12404419,0.00284299
432.05285156,0.00295912
433.98165894,0.00282779
435.91046631,0.00270238
437.83927368,0.00243393
439.76808105,0.00262700
441.69688843,0.00270285
443.62569580,0.00219481
445.55450317,0.00232366
447.48331055,0.00241096
449.41211792,0.00226231
451.34092529,0.00265941
453.26973267,0.00273194
455.19854004,0.00268081
457.12734741,0.00224330
459.05615479,0.00166847
460.98496216,0.00173688
462.91376953,0.00132609
464.84257690,0.00146413
466.77138428,0.00145372
468.70019165,0.00103229
470.62899902,0.00160131
472.55780640,0.00105725
474.48661377,0.00083774
476.41542114,0.00156365
478.34422852,0.00084098
480.27303589,0.00032612
482.20184326,0.00067258
484.13065063,0.00087852
486.05945801,0.00095151
487.98826538,0.00069657
489.91707275,0.00055696
491.84588013,0.00060058
493.77468750,0.00072975
495.70349487,0.00116771
497.63230225,0.00076189
499.56110962,0.00015311
501.48991699,0.00039627
503.41872437,0.00035068
505.34753174,0.00047932
507.27633911,0.00058425
509.20514648,0.00034768
511.13395386,0.00043682
513.06276123,0.00041352
514.99156860,0.00072413
516.92037598,0.00075628
518.84918335,0.00019301
520.77799072,0.00000392
522.70679810,0.00046375
524.63560547,0.00071274
526.56441284,0.00019617
528.49322021,0.00052974
530.42202759,0.00068187
532.35083496,0.00041327
534.27964233,0.00075671
536.20844971,0.00030796
538.13725708,0.00049659
540.06606445,0.00060374
541.99487183,0.00002568
543.92367920,0.00062206
545.85248657,0.00065380
547.78129395,0.00061015
549.71010132,0.00060728
551.63890869,0.00039548
553.56771606,0.00053142
555.49652344,0.00003383
557.42533081,0.00030796
559.35413818,0.00044643
561.28294556,0.00035443
563.21175293,0.00067616
565.14056030,-0.00004287
567.06936768,-0.00003614
568.99817505,0.00049930
570.92698242,0.00025143
572.85578979,0.00051885
574.78459717,0.00073849
576.71340454,0.00037837
578.64221191,0.00068486
580.57101929,0.00049532
582.49982666,-0.00005684
584.42863403,0.00036333
586.35744141,0.00012396
588.28624878,0.00006007
590.21505615,0.00047828
592.14386353,0.00006900
594.07267090,0.00000626
596.00147827,0.00030083
597.93028564,0.00031431
599.85909302,0.00033924
601.78790039,0.00050120
603.71670776,0.00049735
605.64551514,0.00009507
607.57432251,-0.00027885
609.50312988,0.00027378
611.43193726,0.00061798
613.36074463,0.00021122
615.28955200,-0.00006923
617.21835938,0.00036801
619.14716675,0.00031066
621.07597412,-0.00013501
623.00478149,0.00038913
624.93358887,0.00018133
626.86239624,0.00031702
628.79120361,0.00040457
630.72001099,0.00062326
632.64881836,0.00203695
634.57762573,0.00189173
636.50643311,0.00194877
638.43524048,0.00231837
640.36404785,0.00230033
642.29285522,0.00282425
644.22166260,0.00305031
646.15046997,0.00337125
648.07927734,0.00320790
650.00808472,0.00350991
651.93689209,0.00358385
653.86569946,0.00343149
655.79450684,0.00421725
657.72331421,0.00399515
659.65212158,0.00424685
661.58092896,0.00450202
663.50973633,0.00461809
665.43854370,0.00495295
667.36735107,0.00407200
669.29615845,0.00454595
671.22496582,0.00516373
673.15377319,0.00515444
675.08258057,0.00576033
677.01138794,0.00573888
678.94019531,0.00591329
680.86900269,0.00599007
682.79781006,0.00548036
684.72661743,0.00546222
686.65542480,0.00576020
688.58423218,0.00562738
690.51303955,0.00581637
692.44184692,0.00625735
694.37065430,0.00649919
696.29946167,0.00757702
698.22826904,0.00855074
700.15707642,0.00891628
702.08588379,0.00890147
704.01469116,0.00835709
705.94349854,0.00738773
707.87230591,0.00611641
709.80111328,0.00511422
711.72992065,0.00357629
713.65872803,0.00201107
715.58753540,0.00144718
717.51634277,0.00106657
719.44515015,0.00042339
721.37395752,0.00030535
723.30276489,0.00049948
725.23157227,0.00017258
727.16037964,0.00048070
729.08918701,0.00055531
731.01799438,0.00020097
732.94680176,0.00031943
734.87560913,0.00002149
736.80441650,-0.00007220
738.73322388,0.00013171
740.66203125,0.00023352
742.59083862,0.00036165
744.51964600,0.00024635
746.44845337,-0.00002624
748.37726074,0.00027841
750.30606812,0.00038540
752.23487549,0.00013606
754.16368286,0.00061201
756.09249023,0.00053665
758.02129761,0.00026964
759.95010498,0.00052038
761.87891235,0.00030681
763.80771973,0.00040973
765.73652710,0.00055214
767.66533447,0.00019626
769.59414185,0.00036548
771.52294922,0.00082976
773.45175659,0.00049093
775.38056396,0.00034042
777.30937134,0.00083422
779.23817871,0.00080117
781.16698608,0.00066919
783.09579346,0.00053509
785.02460083,0.00066523
786.95340820,0.00081005
788.88221558,0.00044707
790.81102295,0.00039927
792.73983032,0.00069396
794.66863770,0.00077062
796.59744507,0.00048323
798.52625244,0.00097163
800.45505981,0.00126956
802.38386719,0.00082411
804.31267456,0.00071522
806.24148193,0.00051631
808.17028931,0.00083616
810.09909668,0.00084214
812.02790405,0.00067424
813.95671143,0.00072218
815.88551880,0.00035409
817.81432617,0.00050447
819.74313354,0.00047165
821.67194092,0.00062041
823.60074829,0.00096481
825.52955566,0.00103694
827.45836304,0.00116618
829.38717041,0.00108331
831.31597778,0.00157139
833.24478516,0.00192129
835.17359253,0.00178088
837.10239990,0.00193876
839.03120728,0.00200950
840.96001465,0.00174677
842.88882202,0.00155977
844.81762939,0.00148064
846.74643677,0.00142424
848.67524414,0.00150301
850.60405151,0.00132455
852.53285889,0.00147416
854.46166626,0.00150472
856.39047363,0.00093889
858.31928101,0.00080068
860.24808838,0.00082872
862.17689575,0.00084488
864.10570313,0.00072567
866.03451050,0.00056060
867.96331787,0.00040219
869.89212524,0.00026552
871.82093262,0.00066168
873.74973999,0.00081796
875.67854736,0.00065270
877.60735474,0.00067694
879.53616211,0.00068502
881.46496948,0.00049129
883.39377686,0.00031401
885.32258423,0.00041923
887.25139160,0.00043730
889.18019897,0.00042156
891.10900635,0.00038867
893.03781372,0.00046336
894.96662109,0.00058798
896.89542847,0.00059398
898.82423584,0.00065191
900.75304321,0.00053819
902.68185059,0.00066942
904.61065796,0.00074694
906.53946533,0.00062257
908.46827271,0.00096055
910.39708008,0.00089097
912.32588745,0.00075847
914.25469482,0.00119283
916.18350220,0.00115966
918.11230957,0.00124249
920.04111694,0.00139816
921.96992432,0.00138642
923.89873169,0.00151455
925.82753906,0.00150343
927.75634644,0.00201870
929.68515381,0.00209194
931.61396118,0.00202995
933.54276855,0.00245192
935.47157593,0.00235060
937.40038330,0.00255773
939.32919067,0.00286384
941.25799805,0.00293942
943.18680542,0.00309758
945.11561279,0.00322727
947.04442017,0.00310943
948.97322754,0.00298524
950.90203491,0.00288541
952.83084229,0.00251713
954.75964966,0.00277062
956.68845703,0.00289182
958.61726440,0.00276797
960.54607178,0.00285635
962.47487915,0.00293554
964.40368652,0.00311844
966.33249390,0.00297057
968.26130127,0.00324471
970.19010864,0.00331647
972.11891602,0.00325261
974.04772339,0.00370988
975.97653076,0.00387258
977.90533813,0.00425418
979.83414551,0.00476088
981.76295288,0.00512031
983.69176025,0.00545106
985.62056763,0.00604173
987.54937500,0.00686018
989.47818237,0.00756823
991.40698975,0.00827308
993.33579712,0.00915769
995.26460449,0.00996601
997.19341187,0.01040306
999.12221924,0.01139913
1001.05102661,0.01238657
1002.97983398,0.01310001
1004.90864136,0.01391806
1006.83744873,0.01479538
1008.76625610,0.01596535
1010.69506348,0.01671961
1012.62387085,0.01758039
1014.55267822,0.01843966
1016.48148560,0.01943408
1018.41029297,0.02050046
1020.33910034,0.02119925
1022.26790771,0.02230299
1024.19671509,0.02311714
1026.12552246,0.02394707
1028.05432983,0.02471341
1029.98313721,0.02547855
1031.91194458,0.02626673
1033.84075195,0.02654568
1035.76955933,0.02713632
1037.69836670,0.02736520
1039.62717407,0.02738334
1041.55598145,0.02732915
1043.48478882,0.02714197
1045.41359619,0.02698712
1047.34240356,0.02638461
1049.27121094,0.02600420
1051.20001831,0.02573295
1053.12882568,0.02521688
1055.05763306,0.02463019
1056.98644043,0.02432232
1058.91524780,0.02380166
1060.84405518,0.02291313
1062.77286255,0.02219567
1064.70166992,0.02148431
1066.63047729,0.02071312
1068.55928467,0.01965759
1070.48809204,0.01899431
1072.41689941,0.01825196
1074.34570679,0.01720828
1076.27451416,0.01651021
1078.20332153,0.01566921
1080.13212891,0.01495076
1082.06093628,0.01428952
1083.98974365,0.01373797
1085.91855103,0.01301201
1087.84735840,0.01232641
1089.77616577,0.01200293
1091.70497314,0.01137288
1093.63378052,0.01075713
1095.56258789,0.01039725
1097.49139526,0.01032130
1099.42020264,0.01001780
1101.34901001,0.00961653
1103.27781738,0.00951959
1105.20662476,0.00949400
1107.13543213,0.00913553
1109.06423950,0.00878547
1110.99304687,0.00900892
1112.92185425,0.00878811
1114.85066162,0.00869895
1116.77946899,0.00852964
1118.70827637,0.00850585
1120.63708374,0.00907941
1122.56589111,0.00883291
1124.49469849,0.00892900
1126.42350586,0.00899657
1128.35231323,0.00910233
1130.28112061,0.00940466
1132.20992798,0.00937638
1134.13873535,0.01009922
1136.06754272,0.01029962
1137.99635010,0.01085059
1139.92515747,0.01176879
1141.85396484,0.01199485
1143.78277222,0.01301517
1145.71157959,0.01378680
1147.64038696,0.01419328
1149.56919434,0.01537783
1151.49800171,0.01633259
1153.42680908,0.01677201
1155.35561646,0.01753092
1157.28442383,0.01816572
1159.21323120,0.01890278
1161.14203857,0.01989098
1163.07084595,0.02025549
1164.99965332,0.02113594
1166.92846069,0.02217167
1168.85726807,0.02265459
1170.78607544,0.02365871
1172.71488281,0.02455457
1174.64369019,0.02541396
1176.57249756,0.02663071
1178.50130493,0.02740807
1180.43011230,0.02844513
1182.35891968,0.02993517
1184.28772705,0.03109012
1186.21653442,0.03237645
1188.14534180,0.03380381
1190.07414917,0.03540606
1192.00295654,0.03717672
1193.93176392,0.03868839
1195.86057129,0.04046883
1197.78937866,0.04249489
1199.71818604,0.04442988
1201.64699341,0.04604477
1203.57580078,0.04769168
1205.50460815,0.04972745
1207.43341553,0.05140722
1209.36222290,0.05313291
1211.29103027,0.05486408
1213.21983765,0.05619232
1215.14864502,0.05780463
1217.07745239,0.05902131
1219.00625977,0.05972079
1220.93506714,0.06072295
1222.86387451,0.06158728
1224.79268188,0.06207161
1226.72148926,0.06246423
1228.65029663,0.06298240
1230.57910400,0.06321943
1232.50791138,0.06321517
1234.43671875,0.06339568
1236.36552612,0.06323893
1238.29433350,0.06318934
1240.22314087,0.06319266
1242.15194824,0.06278747
1244.08075562,0.06246813
1246.00956299,0.06218432
1247.93837036,0.06199013
1249.86717773,0.06133323
1251.79598511,0.06066917
1253.72479248,0.06057969
1255.65359985,0.05981682
1257.58240723,0.05883306
1259.51121460,0.05804269
1261.44002197,0.05701209
1263.36882935,0.05620120
1265.29763672,0.05548276
1267.22644409,0.05501134
1269.15525146,0.05445556
1271.08405884,0.05323239
1273.01286621,0.05250981
1274.94167358,0.05179204
1276.87048096,0.05054878
1278.79928833,0.04965783
1280.72809570,0.04859563
1282.65690308,0.04764996
1284.58571045,0.04676029
1286.51451782,0.04589161
1288.44332520,0.04536884
1290.37213257,0.04463913
1292.30093994,0.04418548
1294.22974731,0.04383321
1296.15855469,0.04367001
1298.08736206,0.04367141
1300.01616943,0.04349676
1301.94497681,0.04380468
1303.87378418,0.04419431
1305.80259155,0.04429304
1307.73139893,0.04481133
1309.66020630,0.04599785
1311.58901367,0.04654819
1313.51782104,0.04729125
1315.44662842,0.04890560
1317.37543579,0.04950982
1319.30424316,0.05051006
1321.23305054,0.05266241
1323.16185791,0.05420360
1325.09066528,0.05553242
1327.01947266,0.05735822
1328.94828003,0.05881134
1330.87708740,0.06022808
1332.80589478,0.06179944
1334.73470215,0.06265245
1336.66350952,0.06316553
1338.59231689,0.06248931
1340.52112427,0.06327124
1342.44993164,0.06611519
1344.37873901,0.06649768
1346.30754639,0.06648490
1348.23635376,0.06628962
1350.16516113,0.06562745
1352.09396851,0.06579380
1354.02277588,0.06488179
1355.95158325,0.06446068
1357.88039062,0.06401670
1359.80919800,0.06287855
1361.73800537,0.06025461
1363.66681274,0.05926969
1365.59562012,0.06225570
1367.52442749,0.06081778
1369.45323486,0.06008258
1371.38204224,0.06105735
1373.31084961,0.05786435
1375.23965698,0.05831528
1377.16846436,0.05973363
1379.09727173,0.05956891
1381.02607910,0.05963352
1382.95488647,0.05957457
1384.88369385,0.05943019
1386.81250122,0.05667567
1388.74130859,0.05756612
1390.67011597,0.06212219
1392.59892334,0.06047002
1394.52773071,0.05649864
1396.45653809,0.05936398
1398.38534546,0.05934256
1400.31415283,0.05909891
1402.24296021,0.06389856
1404.17176758,0.06014984
1406.10057495,0.06084944
1408.02938232,0.06326407
1409.95818970,0.06049723
1411.88699707,0.06188514
1413.81580444,0.05979498
1415.74461182,0.06074379
1417.67341919,0.05479375
1419.60222656,0.04919410
1421.53103394,0.05658876
1423.45984131,0.05456764
1425.38864868,0.05310503
1427.31745605,0.05396046
1429.24626343,0.04971596
1431.17507080,0.04837828
1433.10387817,0.04925195
1435.03268555,0.04464454
1436.96149292,0.03784277
1438.89030029,0.04325984
1440.81910767,0.04414067
1442.74791504,0.04105966
1444.67672241,0.04303186
1446.60552979,0.03935545
1448.53433716,0.04005892
1450.46314453,0.04137700
1452.39195190,0.04220517
1454.32075928,0.04335537
1456.24956665,0.03582825
1458.17837402,0.03781087
1460.10718140,0.04990368
1462.03598877,0.05323184
1463.96479614,0.05298319
1465.89360352,0.05509888
1467.82241089,0.06287213
1469.75121826,0.06717935
1471.68002563,0.05973998
1473.60883301,0.06328052
1475.53764038,0.07203189
1477.46644775,0.07769226
1479.39525513,0.08529122
1481.32406250,0.08614255
1483.25286987,0.09168181
1485.18167725,0.09451788
1487.11048462,0.09304186
1489.03929199,0.09239931
1490.96809937,0.09346911
1492.89690674,0.10890979
1494.82571411,0.10510983
1496.75452148,0.09516753
1498.68332886,0.10797996
1500.61213623,0.11089291
1502.54094360,0.11942019
1504.46975098,0.11180763
1506.39855835,0.08158259
1508.32736572,0.10048735
1510.25617310,0.11709313
1512.18498047,0.11383124
1514.11378784,0.12316781
1516.04259521,0.11084457
1517.97140259,0.11602614
1519.90020996,0.11130598
1521.82901733,0.09685230
1523.75782471,0.11882646
1525.68663208,0.11614156
1527.61543945,0.11625956
1529.54424683,0.12845406
1531.47305420,0.12302506
1533.40186157,0.11278627
1535.33066895,0.12011400
1537.25947632,0.12765622
1539.18828369,0.09073534
1541.11709106,0.09628206
1543.04589844,0.11479679
1544.97470581,0.11028402
1546.90351318,0.13076130
1548.83232056,0.12147109
1550.76112793,0.12571934
1552.68993530,0.12431532
1554.61874268,0.11348303
1556.54755005,0.12093338
1558.47635742,0.08456713
1560.40516479,0.09311293
1562.33397217,0.13159233
1564.26277954,0.12411629
1566.19158691,0.12796968
1568.12039429,0.12588830
1570.04920166,0.11177162
1571.97800903,0.12953162
1573.90681641,0.13021502
1575.83562378,0.10298109
1577.76443115,0.11764041
1579.69323853,0.13274829
1581.62204590,0.12666515
1583.55085327,0.12976563
1585.47966064,0.12784156
1587.40846802,0.12875909
1589.33727539,0.12754193
1591.26608276,0.12778357
1593.19489014,0.12777831
1595.12369751,0.12635756
1597.05250488,0.12805535
1598.98131226,0.12711641
1600.91011963,0.12781313
1602.83892700,0.12529430
1604.76773437,0.12757953
1606.69654175,0.12567163
1608.62534912,0.12551683
1610.55415649,0.12525249
1612.48296387,0.12624077
1614.41177124,0.12748522
1616.34057861,0.10401775
1618.26938599,0.11403339
1620.19819336,0.13168709
1622.12700073,0.11641511
1624.05580811,0.11756422
1625.98461548,0.12316309
1627.91342285,0.12258376
1629.84223022,0.12194401
1631.77103760,0.13023077
1633.69984497,0.11925591
1635.62865234,0.09860195
1637.55745972,0.11555716
1639.48626709,0.12665421
1641.41507446,0.12360933
1643.34388184,0.12683816
1645.27268921,0.11353973
1647.20149658,0.10014784
1649.13030396,0.12545139
1651.05911133,0.11712204
1652.98791870,0.07518544
1654.91672607,0.10428575
1656.84553345,0.12958437
1658.77434082,0.12382532
1660.70314819,0.12733020
1662.63195557,0.11542208
1664.56076294,0.12244928
1666.48957031,0.13100182
1668.41837769,0.11375959
1670.34718506,0.11131741
1672.27599243,0.12621745
1674.20479980,0.11589369
1676.13360718,0.11194645
1678.06241455,0.12852076
1679.99122192,0.12333633
1681.92002930,0.12185380
1683.84883667,0.09837084
1685.77764404,0.09910814
1687.70645142,0.13493219
1689.63525879,0.11635549
1691.56406616,0.12944868
1693.49287354,0.13004497
1695.42168091,0.09517962
1697.35048828,0.11827007
1699.27929565,0.10259602
1701.20810303,0.09381219
1703.13691040,0.12739763
1705.06571777,0.11593615
1706.99452515,0.11785660
1708.92333252,0.12782808
1710.85213989,0.12269790
1712.78094727,0.12467095
1714.70975464,0.11515249
1716.63856201,0.10336088
1718.56736938,0.10229447
1720.49617676,0.12152149
1722.42498413,0.12528738
1724.35379150,0.11671004
1726.28259888,0.12700155
1728.21140625,0.11660781
1730.14021362,0.11808303
1732.06902100,0.11409485
1733.99782837,0.08708158
1735.92663574,0.10953680
1737.85544312,0.12010202
1739.78425049,0.10711575
1741.71305786,0.11675287
1743.64186523,0.11804324
1745.57067261,0.11830056
1747.49947998,0.11897187
1749.42828735,0.11359743
1751.35709473,0.10902852
1753.28590210,0.12141700
1755.21470947,0.12604314
1757.14351685,0.11517262
1759.07232422,0.12694407
1761.00113159,0.11842910
1762.92993896,0.11528199
1764.85874634,0.13134234
1766.78755371,0.11792410
1768.71636108,0.11957071
1770.64516846,0.11795817
1772.57397583,0.10645688
1774.50278320,0.11914528
1776.43159058,0.12551418
1778.36039795,0.12360230
1780.28920532,0.12211606
1782.21801270,0.12327258
1784.14682007,0.12282901
1786.07562744,0.12061439
1788.00443481,0.12694445
1789.93324219,0.12319253
1791.86204956,0.11132453
1793.79085693,0.11663822
1795.71966431,0.12489705
1797.64847168,0.12298484
1799.57727905,0.12132742
1801.50608643,0.11918813
1803.43489380,0.12327872
1805.36370117,0.12564836
1807.29250854,0.12399568
1809.22131592,0.12456416
1811.15012329,0.12092099
1813.07893066,0.12495390
1815.00773804,0.12543710
1816.93654541,0.12398338
1818.86535278,0.12498219
1820.79416016,0.12460189
1822.72296753,0.12612614
1824.65177490,0.11755435
1826.58058228,0.12240246
1828.50938965,0.12210241
1830.43819702,0.11482975
1832.36700439,0.12533011
1834.29581177,0.12395941
1836.22461914,0.12402254
1838.15342651,0.12345406
1840.08223389,0.12433091
1842.01104126,0.12400045
1843.93984863,0.10985725
1845.86865601,0.11777446
1847.79746338,0.12396793
1849.72627075,0.12139841
1851.65507812,0.12473144
1853.58388550,0.12211274
1855.51269287,0.12359497
1857.44150024,0.12249305
1859.37030762,0.12189989
1861.29911499,0.12279372
1863.22792236,0.12127683
1865.15672974,0.12246902
1867.08553711,0.11815247
1869.01434448,0.11345549
1870.94315186,0.11806177
1872.87195923,0.12240560
1874.80076660,0.12042132
1876.72957397,0.12100389
1878.65838135,0.12046799
1880.58718872,0.11995449
1882.51599609,0.12080558
1884.44480347,0.11872872
1886.37361084,0.12060957
1888.30241821,0.11750308
1890.23122559,0.11537896
1892.16003296,0.11986262
1894.08884033,0.11795907
1896.01764771,0.11749338
1897.94645508,0.11874347
1899.87526245,0.11833386
1901.80406982,0.11848731
1903.73287720,0.11761963
1905.66168457,0.11823693
1907.59049194,0.11701300
1909.51929932,0.11622586
1911.44810669,0.11686465
1913.37691406,0.11722150
1915.30572144,0.11791798
1917.23452881,0.11242557
1919.16333618,0.11284514
1921.09214355,0.11701980
1923.02095093,0.11330441
1924.94975830,0.11578913
1926.87856567,0.11689955
1928.80737305,0.11542154
1930.73618042,0.11669292
1932.66498779,0.11500198
1934.59379517,0.11616080
1936.52260254,0.11528235
1938.45140991,0.11577138
1940.38021729,0.11539812
1942.30902466,0.11151786
1944.23783203,0.11405748
1946.16663940,0.11498236
1948.09544678,0.11474603
1950.02425415,0.11518782
1951.95306152,0.11466013
1953.88186890,0.11471844
1955.81067627,0.11405698
1957.73948364,0.11467873
1959.66829102,0.11434317
1961.59709839,0.11421794
1963.52590576,0.11446818
1965.45471313,0.11344068
1967.38352051,0.11256355
1969.31232788,0.11341171
1971.24113525,0.11414610
1973.16994263,0.11314748
1975.09875000,0.11370011
1977.02755737,0.11323775
1978.95636475,0.11294374
1980.88517212,0.11303389
1982.81397949,0.11251517
1984.74278687,0.11300556
1986.67159424,0.11195941
1988.60040161,0.11208406
1990.52920898,0.11115107
1992.45801636,0.10980229
1994.38682373,0.11154118
1996.31563110,0.11165720
1998.24443848,0.11106436
2000.17324585,0.11111832
2002.10205322,0.11075942
2004.03086060,0.11040592
2005.95966797,0.11014747
2007.88847534,0.10998620
2009.81728271,0.10975619
2011.74609009,0.10949244
2013.67489746,0.10951436
2015.60370483,0.10870434
2017.53251221,0.10767673
2019.46131958,0.10850733
2021.39012695,0.10849229
2023.31893433,0.10782096
2025.24774170,0.10784338
2027.17654907,0.10754551
2029.10535645,0.10728221
2031.03416382,0.10695564
2032.96297119,0.10691781
2034.89177856,0.10646613
2036.82058594,0.10625007
2038.74939331,0.10601760
2040.67820068,0.10527819
2042.60700806,0.10537329
2044.53581543,0.10525827
2046.46462280,0.10501219
2048.39343018,0.10480161
2050.32223755,0.10464536
2052.25104492,0.10458989
2054.17985229,0.10406118
2056.10865967,0.10391683
2058.03746704,0.10387622
2059.96627441,0.10342246
2061.89508179,0.10333775
2063.82388916,0.10286278
2065.75269653,0.10225539
2067.68150391,0.10265118
2069.61031128,0.10238872
2071.53911865,0.10217305
2073.46792603,0.10207181
2075.39673340,0.10158494
2077.32554077,0.10177509
2079.25434814,0.10123686
2081.18315552,0.10107808
2083.11196289,0.10106007
2085.04077026,0.10055281
2086.96957764,0.10063069
2088.89838501,0.10022473
2090.82719238,0.09996927
2092.75599976,0.09997379
2094.68480713,0.09973690
2096.61361450,0.09960376
2098.54242187,0.09946427
2100.47122925,0.09902353
2102.40003662,0.09888966
2104.32884399,0.09890901
2106.25765137,0.09858836
2108.18645874,0.09854417
2110.11526611,0.09821784
2112.04407349,0.09822229
2113.97288086,0.09800881
2115.90168823,0.09756207
2117.83049561,0.09770896
2119.75930298,0.09734426
2121.68811035,0.09723287
2123.61691772,0.09710261
2125.54572510,0.09683889
2127.47453247,0.09676670
2129.40333984,0.09662554
2131.33214722,0.09660402
2133.26095459,0.09645727
2135.18976196,0.09623631
2137.11856934,0.09597602
2139.04737671,0.09599124
2140.97618408,0.09578475
2142.90499146,0.09572846
2144.83379883,0.09562662
2146.76260620,0.09540339
2148.69141357,0.09548067
2150.62022095,0.09503644
2152.54902832,0.09510107
2154.47783569,0.09504718
2156.40664307,0.09479199
2158.33545044,0.09478579
2160.26425781,0.09447062
2162.19306519,0.09444681
2164.12187256,0.09440292
2166.05067993,0.09439090
2167.97948730,0.09406642
2169.90829468,0.09387411
2171.83710205,0.09380384
2173.76590942,0.09364922
2175.69471680,0.09365944
2177.62352417,0.09335059
2179.55233154,0.09340435
2181.48113892,0.09317335
2183.40994629,0.09303419
2185.33875366,0.09311102
2187.26756104,0.09284043
2189.19636841,0.09280262
2191.12517578,0.09258139
2193.05398315,0.09247494
2194.98279053,0.09239064
2196.91159790,0.09221864
2198.84040527,0.09199618
2200.76921265,0.09195559
2202.69802002,0.09191323
2204.62682739,0.09164732
2206.55563477,0.09173557
2208.48444214,0.09161396
2210.41324951,0.09143533
2212.34205688,0.09116012
2214.27086426,0.09102949
2216.19967163,0.09110738
2218.12847900,0.09085102
2220.05728638,0.09067610
2221.98609375,0.09060724
2223.91490112,0.09060375
2225.84370850,0.09033147
2227.77251587,0.09019846
2229.70132324,0.09008408
2231.63013062,0.08989763
2233.55893799,0.08985425
2235.48774536,0.08955945
2237.41655273,0.08950134
2239.34536011,0.08930148
2241.27416748,0.08912006
2243.20297485,0.08904316
2245.13178223,0.08884577
2247.06058960,0.08866775
2248.98939697,0.08844122
2250.91820435,0.08837982
2252.84701172,0.08819133
2254.77581909,0.08812135
2256.70462646,0.08789093
2258.63343384,0.08767874
2260.56224121,0.08770242
2262.49104858,0.08758038
2264.41985596,0.08744313
2266.34866333,0.08722556
2268.27747070,0.08729577
2270.20627808,0.08716160
2272.13508545,0.08694091
2274.06389282,0.08680020
2275.99270020,0.08657770
2277.92150757,0.08655807
2279.85031494,0.08642936
2281.77912231,0.08640809
2283.70792969,0.08630541
2285.63673706,0.08612937
2287.56554443,0.08592087
2289.49435181,0.08581433
2291.42315918,0.08559239
2293.35196655,0.08508287
2295.28077393,0.08493602
2297.20958130,0.08477496
2299.13838867,0.08459270
2301.06719604,0.08410202
2302.99600342,0.08363079
2304.92481079,0.08333723
2306.85361816,0.08262672
2308.78242554,0.08201739
2310.71123291,0.08127463
2312.64004028,0.08051762
2314.56884766,0.07982858
2316.49765503,0.07881520
2318.42646240,0.07768042
2320.35526978,0.07672305
2322.28407715,0.07555680
2324.21288452,0.07445331
2326.14169189,0.07378343
2328.07049927,0.07279581
2329.99930664,0.07191363
2331.92811401,0.07126518
2333.85692139,0.07108460
2335.78572876,0.07092886
2337.71453613,0.07065085
2339.64334351,0.07060328
2341.57215088,0.07068413
2343.50095825,0.07197188
2345.42976562,0.07334447
2347.35857300,0.07632892
2349.28738037,0.07881998
2351.21618774,0.07589522
2353.14499512,0.07205857
2355.07380249,0.06932843
2357.00260986,0.06707927
2358.93141724,0.06590879
2360.86022461,0.06512381
2362.78903198,0.06508981
2364.71783936,0.06542739
2366.64664673,0.06636328
2368.57545410,0.06780560
2370.50426147,0.06935123
2372.43306885,0.07119945
2374.36187622,0.07333161
2376.29068359,0.07528205
2378.21949097,0.07684278
2380.14829834,0.07827481
2382.07710571,0.07905206
2384.00591309,0.07940541
2385.93472046,0.07972212
2387.86352783,0.07993760
2389.79233521,0.07973877
2391.72114258,0.07958598
2393.64994995,0.07975768
2395.57875732,0.07953365
2397.50756470,0.07933807
2399.43637207,0.07911280
2401.36517944,0.07900403
2403.29398682,0.07907882
2405.22279419,0.07888543
2407.15160156,0.07874003
2409.08040894,0.07870951
2411.00921631,0.07858989
2412.93802368,0.07841381
2414.86683105,0.07836716
2416.79563843,0.07820787
2418.72444580,0.07809353
2420.65325317,0.07788956
2422.58206055,0.07777467
2424.51086792,0.07775357
2426.43967529,0.07752550
2428.36848267,0.07762249
2430.29729004,0.07746166
2432.22609741,0.07729703
2434.15490479,0.07711772
2436.08371216,0.07693556
2438.01251953,0.07701957
2439.94132690,0.07671119
2441.87013428,0.07670234
2443.79894165,0.07665886
2445.72774902,0.07641673
2447.65655640,0.07633536
2449.58536377,0.07629362
2451.51417114,0.07617898
2453.44297852,0.07597012
2455.37178589,0.07597215
2457.30059326,0.07574179
2459.22940063,0.07563800
2461.15820801,0.07549383
2463.08701538,0.07534434
2465.01582275,0.07538536
2466.94463013,0.07524472
2468.87343750,0.07514707
2470.80224487,0.07491772
2472.73105225,0.07489666
2474.65985962,0.07474571
2476.58866699,0.07470387
2478.51747437,0.07468521
2480.44628174,0.07439736
2482.37508911,0.07433027
2484.30389648,0.07406466
2486.23270386,0.07412729
2488.16151123,0.07396840
2490.09031860,0.07383843
2492.01912598,0.07387650
2493.94793335,0.07347098
2495.87674072,0.07359912
2497.80554810,0.07350120
2499.73435547,0.07325482
2501.66316284,0.07330190
2503.59197021,0.07311033
2505.52077759,0.07284687
2507.44958496,0.07284988
2509.37839233,0.07282757
2511.30719971,0.07262628
2513.23600708,0.07270016
2515.16481445,0.07249498
2517.09362183,0.07241596
2519.02242920,0.07238396
2520.95123657,0.07214740
2522.88004395,0.07206610
2524.80885132,0.07187527
2526.73765869,0.07189257
2528.66646606,0.07171655
2530.59527344,0.07166567
2532.52408081,0.07161312
2534.45288818,0.07139038
2536.38169556,0.07140552
2538.31050293,0.07117986
2540.23931030,0.07105926
2542.16811768,0.07096212
2544.09692505,0.07090746
2546.02573242,0.07078743
2547.95453979,0.07063042
2549.88334717,0.07058622
2551.81215454,0.07048906
2553.74096191,0.07049903
2555.66976929,0.07027455
2557.59857666,0.07018487
2559.52738403,0.07001606
2561.45619141,0.06992164
2563.38499878,0.06997325
2565.31380615,0.06969769
2567.24261353,0.06971013
2569.17142090,0.06958510
2571.10022827,0.06940499
2573.02903564,0.06937362
2574.95784302,0.06929500
2576.88665039,0.06919022
2578.81545776,0.06899363
2580.74426514,0.06890105
2582.67307251,0.06875385
2584.60187988,0.06875961
2586.53068726,0.06867215
2588.45949463,0.06856059
2590.38830200,0.06850272
2592.31710937,0.06824538
2594.24591675,0.06821189
2596.17472412,0.06811300
2598.10353149,0.06798303
2600.03233887,0.06789549
2601.96114624,0.06767610
2603.88995361,0.06761687
2605.81876099,0.06762042
2607.74756836,0.06752478
2609.67637573,0.06741402
2611.60518311,0.06728801
2613.53399048,0.06716045
2615.46279785,0.06704620
2617.39160522,0.06695507
2619.32041260,0.06694493
2621.24921997,0.06674735
2623.17802734,0.06658883
2625.10683472,0.06654367
2627.03564209,0.06645746
2628.96444946,0.06641870
2630.89325684,0.06621282
2632.82206421,0.06622405
2634.75087158,0.06615929
2636.67967895,0.06590898
2638.60848633,0.06588733
2640.53729370,0.06576246
2642.46610107,0.06564249
2644.39490845,0.06560554
2646.32371582,0.06551649
2648.25252319,0.06529458
2650.18133057,0.06525458
2652.11013794,0.06525947
2654.03894531,0.06506506
2655.96775269,0.06492880
2657.89656006,0.06478824
2659.82536743,0.06473221
2661.75417480,0.06460790
2663.68298218,0.06463386
2665.61178955,0.06451447
2667.54059692,0.06420496
2669.46940430,0.06425633
2671.39821167,0.06414491
2673.32701904,0.06402069
2675.25582642,0.06388907
2677.18463379,0.06380881
2679.11344116,0.06376705
2681.04224854,0.06357285
2682.97105591,0.06361617
2684.89986328,0.06343898
2686.82867065,0.06328189
2688.75747803,0.06331168
2690.68628540,0.06311377
2692.61509277,0.06297250
2694.54390015,0.06288567
2696.47270752,0.06271590
2698.40151489,0.06265988
2700.33032227,0.06272049
2702.25912964,0.06251097
2704.18793701,0.06230342
2706.11674438,0.06230792
2708.04555176,0.06217622
2709.97435913,0.06197893
2711.90316650,0.06189145
2713.83197388,0.06184064
2715.76078125,0.06174908
2717.68958862,0.06168042
2719.61839600,0.06158917
2721.54720337,0.06150186
2723.47601074,0.06134479
2725.40481812,0.06115868
2727.33362549,0.06114273
2729.26243286,0.06108679
2731.19124023,0.06084840
2733.12004761,0.06071488
2735.04885498,0.06077398
2736.97766235,0.06071134
2738.90646973,0.06060988
2740.83527710,0.06047418
2742.76408447,0.06037625
2744.69289185,0.06030132
2746.62169922,0.06008967
2748.55050659,0.06001269
2750.47931396,0.05988500
2752.40812134,0.05982330
2754.33692871,0.05972604
2756.26573608,0.05945734
2758.19454346,0.05938401
2760.12335083,0.05939093
2762.05215820,0.05931333
2763.98096558,0.05907866
2765.90977295,0.05906864
2767.83858032,0.05898157
2769.76738770,0.05876453
2771.69619507,0.05879483
2773.62500244,0.05863744
2775.55380981,0.05852940
2777.48261719,0.05840614
2779.41142456,0.05823861
2781.34023193,0.05822048
2783.26903931,0.05810530
2785.19784668,0.05794774
2787.12665405,0.05785844
2789.05546143,0.05775391
2790.98426880,0.05758020
2792.91307617,0.05756857
2794.84188354,0.05744355
2796.77069092,0.05733497
2798.69949829,0.05735051
2800.62830566,0.05708920
2802.55711304,0.05687809
2804.48592041,0.05681583
2806.41472778,0.05676405
2808.34353516,0.05669509
2810.27234253,0.05660173
2812.20114990,0.05634036
2814.12995728,0.05624491
2816.05876465,0.05622438
2817.98757202,0.05597228
2819.91637939,0.05598619
2821.84518677,0.05577617
2823.77399414,0.05562611
2825.70280151,0.05569070
2827.63160889,0.05551967
2829.56041626,0.05544733
2831.48922363,0.05517796
2833.41803101,0.05501669
2835.34683838,0.05496461
2837.27564575,0.05480627
2839.20445312,0.05468421
2841.13326050,0.05446057
2843.06206787,0.05431848
2844.99087524,0.05408612
2846.91968262,0.05370674
2848.84848999,0.05334810
2850.77729736,0.05321594
2852.70610474,0.05324507
2854.63491211,0.05319260
2856.56371948,0.05306305
2858.49252686,0.05300802
2860.42133423,0.05298615
2862.35014160,0.05280702
2864.27894897,0.05283667
2866.20775635,0.05276603
2868.13656372,0.05256825
2870.06537109,0.05253627
2871.99417847,0.05231696
2873.92298584,0.05221810
2875.85179321,0.05220611
2877.78060059,0.05209645
2879.70940796,0.05206196
2881.63821533,0.05197054
2883.56702270,0.05186211
2885.49583008,0.05192135
2887.42463745,0.05173492
2889.35344482,0.05152615
2891.28225220,0.05162796
2893.21105957,0.05137423
2895.13986694,0.05119600
2897.06867432,0.05105868
2898.99748169,0.05082934
2900.92628906,0.05078569
2902.85509644,0.05053336
2904.78390381,0.05050231
2906.71271118,0.05038110
2908.64151855,0.05008165
2910.57032593,0.04994712
2912.49913330,0.04969956
2914.42794067,0.04943027
2916.35674805,0.04915570
2918.28555542,0.04907055
2920.21436279,0.04896632
2922.14317017,0.04884265
2924.07197754,0.04886882
2926.00078491,0.04878469
2927.92959229,0.04871638
2929.85839966,0.04870398
2931.78720703,0.04861482
2933.71601440,0.04858020
2935.64482178,0.04860081
2937.57362915,0.04842937
2939.50243652,0.04845598
2941.43124390,0.04854838
2943.36005127,0.04843784
2945.28885864,0.04835113
2947.21766602,0.04827144
2949.14647339,0.04835384
2951.07528076,0.04819816
2953.00408813,0.04802465
2954.93289551,0.04796134
2956.86170288,0.04784359
2958.79051025,0.04773390
2960.71931763,0.04737096
2962.64812500,0.04742634
2964.57693237,0.04741555
2966.50573975,0.04712110
2968.43454712,0.04721448
2970.36335449,0.04723804
2972.29216187,0.04720907
2974.22096924,0.04727449
2976.14977661,0.04729650
2978.07858398,0.04718871
2980.00739136,0.04725932
2981.93619873,0.04725201
2983.86500610,0.04718098
2985.79381348,0.04723543
2987.72262085,0.04692566
2989.65142822,0.04700079
2991.58023560,0.04699907
2993.50904297,0.04670439
2995.43785034,0.04679020
2997.36665771,0.04659449
2999.29546509,0.04650230
3001.22427246,0.04650986
3003.15307983,0.04630989
3005.08188721,0.04627081
3007.01069458,0.04625545
3008.93950195,0.04611047
3010.86830933,0.04589472
3012.79711670,0.04577993
3014.72592407,0.04567454
3016.65473145,0.04566181
3018.58353882,0.04567630
3020.51234619,0.04558643
3022.44115356,0.04544871
3024.36996094,0.04518440
3026.29876831,0.04517747
3028.22757568,0.04520222
3030.15638306,0.04489359
3032.08519043,0.04480261
3034.01399780,0.04475147
3035.94280518,0.04457422
3037.87161255,0.04466427
3039.80041992,0.04453649
3041.72922729,0.04434919
3043.65803467,0.04439544
3045.58684204,0.04415863
3047.51564941,0.04406373
3049.44445679,0.04405850
3051.37326416,0.04391194
3053.30207153,0.04390551
3055.23087891,0.04371808
3057.15968628,0.04356173
3059.08849365,0.04354724
3061.01730103,0.04343272
3062.94610840,0.04334207
3064.87491577,0.04319087
3066.80372314,0.04307067
3068.73253052,0.04310922
3070.66133789,0.04307112
3072.59014526,0.04290510
3074.51895264,0.04285797
3076.44776001,0.04281902
3078.37656738,0.04252119
3080.30537476,0.04238376
3082.23418213,0.04245619
3084.16298950,0.04234125
3086.09179687,0.04229680
3088.02060425,0.04222894
3089.94941162,0.04211844
3091.87821899,0.04208606
3093.80702637,0.04188789
3095.73583374,0.04186898
3097.66464111,0.04183929
3099.59344849,0.04155631
3101.52225586,0.04142991
3103.45106323,0.04147132
3105.37987061,0.04146778
3107.30867798,0.04123294
3109.23748535,0.04108212
3111.16629272,0.04107735
3113.09510010,0.04095764
3115.02390747,0.04076415
3116.95271484,0.04054526
3118.88152222,0.04050005
3120.81032959,0.04042859
3122.73913696,0.04029657
3124.66794434,0.04025850
3126.59675171,0.04004251
3128.52555908,0.03996072
3130.45436645,0.04000404
3132.38317383,0.03971468
3134.31198120,0.03961765
3136.24078857,0.03967074
3138.16959595,0.03944781
3140.09840332,0.03934796
3142.02721069,0.03928400
3143.95601807,0.03921185
3145.88482544,0.03914191
3147.81363281,0.03897479
3149.74244019,0.03886148
3151.67124756,0.03862547
3153.60005493,0.03850362
3155.52886230,0.03850340
3157.45766968,0.03835344
3159.38647705,0.03823764
3161.31528442,0.03816171
3163.24409180,0.03804906
3165.17289917,0.03794161
3167.10170654,0.03785981
3169.03051392,0.03767956
3170.95932129,0.03754429
3172.88812866,0.03747328
3174.81693604,0.03733472
3176.74574341,0.03720899
3178.67455078,0.03713820
3180.60335815,0.03711785
3182.53216553,0.03696063
3184.46097290,0.03683128
3186.38978027,0.03666672
3188.31858765,0.03655311
3190.24739502,0.03667513
3192.17620239,0.03644764
3194.10500977,0.03627982
3196.03381714,0.03637514
3197.96262451,0.03617185
3199.89143188,0.03601432
3201.82023926,0.03594444
3203.74904663,0.03578334
3205.67785400,0.03578379
3207.60666138,0.03572317
3209.53546875,0.03560365
3211.46427612,0.03554210
3213.39308350,0.03532385
3215.32189087,0.03537307
3217.25069824,0.03540573
3219.17950562,0.03516237
3221.10831299,0.03518287
3223.03712036,0.03512780
3224.96592773,0.03496429
3226.89473511,0.03493851
3228.82354248,0.03486405
3230.75234985,0.03469945
3232.68115723,0.03462104
3234.60996460,0.03463932
3236.53877197,0.03461995
3238.46757935,0.03454763
3240.39638672,0.03447514
3242.32519409,0.03454171
3244.25400146,0.03431647
3246.18280884,0.03410826
3248.11161621,0.03427511
3250.04042358,0.03422020
3251.96923096,0.03415740
3253.89803833,0.03413669
3255.82684570,0.03408566
3257.75565308,0.03402586
3259.68446045,0.03393645
3261.61326782,0.03392615
3263.54207520,0.03381948
3265.47088257,0.03375670
3267.39968994,0.03381570
3269.32849731,0.03380998
3271.25730469,0.03361969
3273.18611206,0.03354157
3275.11491943,0.03352720
3277.04372681,0.03346627
3278.97253418,0.03355125
3280.90134155,0.03348169
3282.83014893,0.03341835
3284.75895630,0.03340150
3286.68776367,0.03337304
3288.61657104,0.03340030
3290.54537842,0.03327699
3292.47418579,0.03314818
3294.40299316,0.03320633
3296.33180054,0.03318493
3298.26060791,0.03297573
3300.18941528,0.03301437
3302.11822266,0.03297327
3304.04703003,0.03286941
3305.97583740,0.03286261
3307.90464478,0.03272475
3309.83345215,0.03265576
3311.76225952,0.03257797
3313.69106689,0.03269792
3315.61987427,0.03257412
3317.54868164,0.03246851
3319.47748901,0.03265243
3321.40629639,0.03245825
3323.33510376,0.03235807
3325.26391113,0.03226412
3327.19271851,0.03228276
3329.12152588,0.03234836
3331.05033325,0.03219621
3332.97914062,0.03214122
3334.90794800,0.03209623
3336.83675537,0.03202492
3338.76556274,0.03189474
3340.69437012,0.03196593
3342.62317749,0.03188119
3344.55198486,0.03181540
3346.48079224,0.03186245
3348.40959961,0.03165836
3350.33840698,0.03164002
3352.26721436,0.03164838
3354.19602173,0.03164461
3356.12482910,0.03146695
3358.05363647,0.03144626
3359.98244385,0.03143044
3361.91125122,0.03120620
3363.84005859,0.03133447
3365.76886597,0.03126501
3367.69767334,0.03110242
3369.62648071,0.03095731
3371.55528809,0.03104096
3373.48409546,0.03108743
3375.41290283,0.03082144
3377.34171020,0.03086081
3379.27051758,0.03084570
3381.19932495,0.03081227
3383.12813232,0.03066419
3385.05693970,0.03053841
3386.98574707,0.03052350
3388.91455444,0.03054729
3390.84336182,0.03044324
3392.77216919,0.03014929
3394.70097656,0.03034108
3396.62978394,0.03019430
3398.55859131,0.02998826
3400.48739868,0.03002630
3402.41620605,0.02991866
3404.34501343,0.02993732
3406.27382080,0.02982581
3408.20262817,0.02988751
3410.13143555,0.02980682
3412.06024292,0.02973965
3413.98905029,0.02971149
3415.91785767,0.02957594
3417.84666504,0.02954504
3419.77547241,0.02938545
3421.70427979,0.02939325
3423.63308716,0.02934224
3425.56189453,0.02943186
3427.49070190,0.02934157
3429.41950928,0.02906211
3431.34831665,0.02913117
3433.27712402,0.02912606
3435.20593140,0.02898050
3437.13473877,0.02884670
3439.06354614,0.02901213
3440.99235352,0.02881190
3442.92116089,0.02866361
3444.84996826,0.02870377
3446.77877563,0.02833438
3448.70758301,0.02843899
3450.63639038,0.02862673
3452.56519775,0.02865496
3454.49400513,0.02853767
3456.42281250,0.02841998
3458.35161987,0.02848830
3460.28042725,0.02834461
3462.20923462,0.02824654
3464.13804199,0.02825318
3466.06684937,0.02825475
3467.99565674,0.02812535
3469.92446411,0.02808559
3471.85327148,0.02806793
3473.78207886,0.02798473
3475.71088623,0.02793018
3477.63969360,0.02807536
3479.56850098,0.02803877
3481.49730835,0.02756378
3483.42611572,0.02779115
3485.35492310,0.02782485
3487.28373047,0.02755612
3489.21253784,0.02773800
3491.14134521,0.02779904
3493.07015259,0.02789045
3494.99895996,0.02772520
3496.92776733,0.02753477
3498.85657471,0.02763472
3500.78538208,0.02766753
3502.71418945,0.02713434
3504.64299683,0.02724454
3506.57180420,0.02784475
3508.50061157,0.02733359
3510.42941895,0.02729025
3512.35822632,0.02751426
3514.28703369,0.02752712
3516.21584106,0.02756932
3518.14464844,0.02747491
3520.07345581,0.02763562
3522.00226318,0.02728222
3523.93107056,0.02700343
3525.85987793,0.02705223
3527.78868530,0.02703855
3529.71749268,0.02702798
3531.64630005,0.02720778
3533.57510742,0.02747642
3535.50391479,0.02717976
3537.43272217,0.02705408
3539.36152954,0.02729495
3541.29033691,0.02724789
3543.21914429,0.02701240
3545.14795166,0.02657410
3547.07675903,0.02615793
3549.00556641,0.02694656
3550.93437378,0.02716238
3552.86318115,0.02652611
3554.79198853,0.02710387
3556.72079590,0.02704518
3558.64960327,0.02694431
3560.57841064,0.02684436
3562.50721802,0.02669667
3564.43602539,0.02685416
3566.36483276,0.02499072
3568.29364014,0.02456322
3570.22244751,0.02650852
3572.15125488,0.02704727
3574.08006226,0.02669257
3576.00886963,0.02683781
3577.93767700,0.02684614
3579.86648437,0.02671540
3581.79529175,0.02676516
3583.72409912,0.02683978
3585.65290649,0.02608409
3587.58171387,0.02399918
3589.51052124,0.02484978
3591.43932861,0.02685353
3593.36813599,0.02608725
3595.29694336,0.02578722
3597.22575073,0.02624408
3599.15455811,0.02648687
3601.08336548,0.02617897
3603.01217285,0.02629793
3604.94098022,0.02680389
3606.86978760,0.02588950
3608.79859497,0.02438803
3610.72740234,0.02502635
3612.65620972,0.02547868
3614.58501709,0.02473766
3616.51382446,0.02647962
3618.44263184,0.02433973
3620.37143921,0.02378367
3622.30024658,0.02670393
3624.22905395,0.02585178
3626.15786133,0.02708858
3628.08666870,0.02283468
3630.01547607,0.02105889
3631.94428345,0.02639082
3633.87309082,0.02558462
3635.80189819,0.02608623
3637.73070557,0.02657329
3639.65951294,0.02615293
3641.58832031,0.02641767
3643.51712769,0.02624843
3645.44593506,0.02634108
3647.37474243,0.02359444
3649.30354980,0.02169450
3651.23235718,0.02206695
3653.16116455,0.02627561
3655.08997192,0.02557516
3657.01877930,0.02304812
3658.94758667,0.02649687
3660.87639404,0.02581250
3662.80520142,0.02634369
3664.73400879,0.02608683
3666.66281616,0.02601192
3668.59162354,0.02514114
3670.52043091,0.02054183
3672.44923828,0.02495295
3674.37804565,0.02352234
3676.30685303,0.01978460
3678.23566040,0.02475380
3680.16446777,0.02519304
3682.09327515,0.02527584
3684.02208252,0.02594588
3685.95088989,0.02553179
3687.87969727,0.02290333
3689.80850464,0.02121030
3691.73731201,0.02413004
3693.66611938,0.02478638
3695.59492676,0.02543868
3697.52373413,0.02530124
3699.45254150,0.02509440
3701.38134888,0.02444812
3703.31015625,0.02365427
3705.23896362,0.02595605
3707.16777100,0.02457706
3709.09657837,0.02392973
3711.02538574,0.02244193
3712.95419312,0.02122186
3714.88300049,0.02481789
3716.81180786,0.02443590
3718.74061523,0.02466046
3720.66942261,0.02405685
3722.59822998,0.02325468
3724.52703735,0.02408739
3726.45584473,0.02243549
3728.38465210,0.02424884
3730.31345947,0.02392273
3732.24226685,0.02200387
3734.17107422,0.02146066
3736.09988159,0.02047313
3738.02868896,0.02157670
3739.95749634,0.02342668
3741.88630371,0.02446442
3743.81511108,0.01896457
3745.74391846,0.01813438
3747.67272583,0.02330384
3749.60153320,0.01998183
3751.53034058,0.01847834
3753.45914795,0.02117663
3755.38795532,0.02284620
3757.31676270,0.02366685
3759.24557007,0.02190361
3761.17437744,0.02271847
3763.10318481,0.02404320
3765.03199219,0.02252829
3766.96079956,0.02300886
3768.88960693,0.02270760
3770.81841431,0.02175289
3772.74722168,0.02352825
3774.67602905,0.02349871
3776.60483643,0.02338382
3778.53364380,0.02276461
3780.46245117,0.02196397
3782.39125854,0.02343372
3784.32006592,0.02291778
3786.24887329,0.02266766
3788.17768066,0.02315393
3790.10648804,0.02304465
3792.03529541,0.02283267
3793.96410278,0.02318542
3795.89291016,0.02180023
3797.82171753,0.02162024
3799.75052490,0.02256939
3801.67933228,0.01796322
3803.60813965,0.02126853
3805.53694702,0.02273077
3807.46575439,0.01875019
3809.39456177,0.02284985
3811.32336914,0.02218430
3813.25217651,0.02294830
3815.18098389,0.02059980
3817.10979126,0.01824510
3819.03859863,0.02285550
3820.96740601,0.01841569
3822.89621338,0.01970497
3824.82502075,0.02264928
3826.75382812,0.02052898
3828.68263550,0.02220974
3830.61144287,0.02119191
3832.54025024,0.02060455
3834.46905762,0.02094379
3836.39786499,0.01994016
3838.32667236,0.01815604
3840.25547974,0.01963255
3842.18428711,0.02103217
3844.11309448,0.01997481
3846.04190186,0.02166683
3847.97070923,0.02128246
3849.89951660,0.02133664
3851.82832397,0.01912741
3853.75713135,0.01435740
3855.68593872,0.01724192
3857.61474609,0.02135954
3859.54355347,0.02070788
3861.47236084,0.02066232
3863.40116821,0.02012037
3865.32997559,0.01869342
3867.25878296,0.02095262
3869.18759033,0.01905954
3871.11639770,0.01776279
3873.04520508,0.02094966
3874.97401245,0.01917861
3876.90281982,0.02076601
3878.83162720,0.02092747
3880.76043457,0.01813196
3882.68924194,0.02085441
3884.61804932,0.01934506
3886.54685669,0.01793715
3888.47566406,0.02077902
3890.40447144,0.01967548
3892.33327881,0.01854162
3894.26208618,0.02021437
3896.19089355,0.02058630
3898.11970093,0.01958755
3900.04850830,0.01860003
3901.97731567,0.01835559
3903.90612305,0.01810870
3905.83493042,0.01847645
3907.76373779,0.02022255
3909.69254517,0.02012324
3911.62135254,0.01985270
3913.55015991,0.02023125
3915.47896728,0.01960016
3917.40777466,0.01902738
3919.33658203,0.01887729
3921.26538940,0.01961375
3923.19419678,0.01953809
3925.12300415,0.01921200
3927.05181152,0.01946425
3928.98061890,0.01959272
3930.90942627,0.01923158
3932.83823364,0.01859114
3934.76704102,0.01932921
3936.69584839,0.01941942
3938.62465576,0.01940340
3940.55346313,0.01952245
3942.48227051,0.01863050
3944.41107788,0.01891639
3946.33988525,0.01917982
3948.26869263,0.01877378
3950.19750000,0.01880772
3952.12630737,0.01909021
3954.05511475,0.01912730
3955.98392212,0.01895371
3957.91272949,0.01894185
3959.84153687,0.01893380
3961.77034424,0.01879897
3963.69915161,0.01878242
3965.62795898,0.01889867
3967.55676636,0.01869979
3969.48557373,0.01869858
3971.41438110,0.01864735
3973.34318848,0.01860168
3975.27199585,0.01853449
3977.20080322,0.01841289
3979.12961060,0.01867362
3981.05841797,0.01846520
3982.98722534,0.01849622
3984.91603271,0.01847278
3986.84484009,0.01840939
3988.77364746,0.01844335
3990.70245483,0.01809806
3992.63126221,0.01828531
3994.56006958,0.01819675
3996.48887695,0.01810153
3998.41768433,0.01813376
4000.34649170,0.01812253
4002.27529907,0.01814254
4004.20410645,0.01796214
4006.13291382,0.01803683
4008.06172119,0.01788560
4009.99052856,0.01789387
4011.91933594,0.01782855
4013.84814331,0.01770013
4015.77695068,0.01778244
4017.70575806,0.01772406
4019.63456543,0.01770222
4021.56337280,0.01763424
4023.49218018,0.01764887
4025.42098755,0.01750778
4027.34979492,0.01758196
4029.27860229,0.01751508
4031.20740967,0.01738777
4033.13621704,0.01750385
4035.06502441,0.01739203
4036.99383179,0.01740554
4038.92263916,0.01725448
4040.85144653,0.01732037
4042.78025391,0.01723623
4044.70906128,0.01712282
4046.63786865,0.01727414
4048.56667603,0.01712050
4050.49548340,0.01710397
4052.42429077,0.01701387
4054.35309814,0.01701259
4056.28190552,0.01687942
4058.21071289,0.01687650
4060.13952026,0.01688823
4062.06832764,0.01673916
4063.99713501,0.01688575
4065.92594238,0.01662795
4067.85474976,0.01660997
4069.78355713,0.01665260
4071.71236450,0.01657006
4073.64117187,0.01662000
4075.56997925,0.01653485
4077.49878662,0.01648688
4079.42759399,0.01640821
4081.35640137,0.01648884
4083.28520874,0.01633499
4085.21401611,0.01631003
4087.14282349,0.01635126
4089.07163086,0.01623255
4091.00043823,0.01625660
4092.92924561,0.01624380
4094.85805298,0.01621469
4096.78686035,0.01605260
4098.71566772,0.01614528
4100.64447510,0.01600965
4102.57328247,0.01595972
4104.50208984,0.01605690
4106.43089722,0.01585529
4108.35970459,0.01596306
4110.28851196,0.01584471
4112.21731934,0.01575624
4114.14612671,0.01573648
4116.07493408,0.01570281
4118.00374145,0.01567352
4119.93254883,0.01563724
4121.86135620,0.01571916
4123.79016357,0.01554187
4125.71897095,0.01561527
4127.64777832,0.01552747
4129.57658569,0.01543735
4131.50539307,0.01549065
4133.43420044,0.01538754
4135.36300781,0.01543894
4137.29181519,0.01536368
4139.22062256,0.01535531
4141.14942993,0.01527051
4143.07823730,0.01524117
4145.00704468,0.01522104
4146.93585205,0.01518487
4148.86465942,0.01518534
4150.79346680,0.01507637
4152.72227417,0.01514905
4154.65108154,0.01509002
4156.57988892,0.01504407
4158.50869629,0.01497179
4160.43750366,0.01499288
4162.36631103,0.01495796
4164.29511841,0.01481882
4166.22392578,0.01486634
4168.15273315,0.01475499
4170.08154053,0.01483065
4172.01034790,0.01477406
4173.93915527,0.01471610
4175.86796265,0.01473663
4177.79677002,0.01467084
4179.72557739,0.01466770
4181.65438477,0.01453574
4183.58319214,0.01455493
4185.51199951,0.01446815
4187.44080688,0.01447526
4189.36961426,0.01442344
4191.29842163,0.01440366
4193.22722900,0.01443200
4195.15603638,0.01423616
4197.08484375,0.01428770
4199.01365112,0.01420306
4200.94245850,0.01422445
4202.87126587,0.01411057
4204.80007324,0.01401859
4206.72888062,0.01409909
4208.65768799,0.01400803
4210.58649536,0.01408867
4212.51530273,0.01392430
4214.44411011,0.01397344
4216.37291748,0.01396590
4218.30172485,0.01383637
4220.23053223,0.01388067
4222.15933960,0.01380718
4224.08814697,0.01385425
4226.01695435,0.01378074
4227.94576172,0.01377204
4229.87456909,0.01364291
4231.80337646,0.01360314
4233.73218384,0.01360004
4235.66099121,0.01352405
4237.58979858,0.01362194
4239.51860596,0.01350292
4241.44741333,0.01348871
4243.37622070,0.01339218
4245.30502808,0.01335705
4247.23383545,0.01333705
4249.16264282,0.01333258
4251.09145020,0.01337435
4253.02025757,0.01321543
4254.94906494,0.01326514
4256.87787231,0.01317367
4258.80667969,0.01322332
4260.73548706,0.01312338
4262.66429443,0.01304552
4264.59310181,0.01322615
4266.52190918,0.01301452
4268.45071655,0.01303431
4270.37952393,0.01300206
4272.30833130,0.01296932
4274.23713867,0.01299498
4276.16594604,0.01290298
4278.09475342,0.01290863
4280.02356079,0.01285582
4281.95236816,0.01286106
4283.88117554,0.01279921
4285.80998291,0.01281148
4287.73879028,0.01279761
4289.66759766,0.01279962
4291.59640503,0.01269001
4293.52521240,0.01255752
4295.45401978,0.01262520
4297.38282715,0.01252873
4299.31163452,0.01257713
4301.24044189,0.01258419
4303.16924927,0.01253046
4305.09805664,0.01247821
4307.02686401,0.01244064
4308.95567139,0.01240283
4310.88447876,0.01232168
4312.81328613,0.01238710
4314.74209351,0.01224357
4316.67090088,0.01226937
4318.59970825,0.01226783
4320.52851562,0.01219355
4322.45732300,0.01221075
4324.38613037,0.01208391
4326.31493774,0.01215374
4328.24374512,0.01215133
4330.17255249,0.01213953
4332.10135986,0.01204732
4334.03016724,0.01200786
4335.95897461,0.01203981
4337.88778198,0.01194837
4339.81658936,0.01199152
4341.74539673,0.01191073
4343.67420410,0.01183425
4345.60301147,0.01181632
4347.53181885,0.01189627
4349.46062622,0.01176666
4351.38943359,0.01167670
4353.31824097,0.01185937
4355.24704834,0.01165785
4357.17585571,0.01157466
4359.10466309,0.01161557
4361.03347046,0.01162851
4362.96227783,0.01161639
4364.89108520,0.01153152
4366.81989258,0.01154188
4368.74869995,0.01145123
4370.67750732,0.01147068
4372.60631470,0.01152395
4374.53512207,0.01138908
4376.46392944,0.01130945
4378.39273682,0.01146309
4380.32154419,0.01129430
4382.25035156,0.01116349
4384.17915894,0.01135334
4386.10796631,0.01119004
4388.03677368,0.01115403
4389.96558105,0.01118588
4391.89438843,0.01120696
4393.82319580,0.01118034
4395.75200317,0.01103828
4397.68081055,0.01105764
4399.60961792,0.01102393
4401.53842529,0.01104151
4403.46723267,0.01096219
4405.39604004,0.01095941
4407.32484741,0.01095958
4409.25365478,0.01092758
4411.18246216,0.01092971
4413.11126953,0.01081471
4415.04007690,0.01091029
4416.96888428,0.01084130
4418.89769165,0.01075790
4420.82649902,0.01071264
4422.75530640,0.01065979
4424.68411377,0.01070652
4426.61292114,0.01058250
4428.54172852,0.01057585
4430.47053589,0.01061187
4432.39934326,0.01063199
4434.32815063,0.01053246
4436.25695801,0.01048432
4438.18576538,0.01052049
4440.11457275,0.01048822
4442.04338013,0.01053002
4443.97218750,0.01040469
4445.90099487,0.01039107
4447.82980225,0.01037081
4449.75860962,0.01032231
4451.68741699,0.01037315
4453.61622437,0.01028321
4455.54503174,0.01023096
4457.47383911,0.01021064
4459.40264648,0.01019334
4461.33145386,0.01014398
4463.26026123,0.01017134
4465.18906860,0.01015477
4467.11787598,0.01007992
4469.04668335,0.01008883
4470.97549072,0.01011080
4472.90429810,0.01009066
4474.83310547,0.00992985
4476.76191284,0.00992827
4478.69072021,0.00993054
4480.61952759,0.00990126
4482.54833496,0.00989832
4484.47714233,0.00981281
4486.40594971,0.00985959
4488.33475708,0.00980424
4490.26356445,0.00971360
4492.19237183,0.00978548
4494.12117920,0.00980068
4496.04998657,0.00970671
4497.97879395,0.00970339
4499.90760132,0.00966168
4501.83640869,0.00965754
4503.76521606,0.00967946
4505.69402344,0.00960921
4507.62283081,0.00965239
4509.55163818,0.00950721
4511.48044556,0.00954902
4513.40925293,0.00951394
4515.33806030,0.00935843
4517.26686768,0.00947157
4519.19567505,0.00931809
4521.12448242,0.00944942
4523.05328979,0.00942884
4524.98209717,0.00927447
4526.91090454,0.00936612
4528.83971191,0.00927600
4530.76851929,0.00937725
4532.69732666,0.00927785
4534.62613403,0.00921354
4536.55494141,0.00921890
4538.48374878,0.00913640
4540.41255615,0.00921033
4542.34136353,0.00916020
4544.27017090,0.00917209
4546.19897827,0.00910256
4548.12778564,0.00901035
4550.05659302,0.00899858
4551.98540039,0.00903060
4553.91420776,0.00901736
4555.84301514,0.00892062
4557.77182251,0.00896843
4559.70062988,0.00891574
4561.62943726,0.00886512
4563.55824463,0.00889615
4565.48705200,0.00889270
4567.41585937,0.00884419
4569.34466675,0.00878540
4571.27347412,0.00874739
4573.20228149,0.00876382
4575.13108887,0.00876995
4577.05989624,0.00865677
4578.98870361,0.00870981
4580.91751099,0.00866459
4582.84631836,0.00859097
4584.77512573,0.00860938
4586.70393311,0.00853897
4588.63274048,0.00862635
4590.56154785,0.00858502
4592.49035522,0.00850650
4594.41916260,0.00851386
4596.34796997,0.00846690
4598.27677734,0.00845049
4600.20558472,0.00846200
4602.13439209,0.00850528
4604.06319946,0.00842552
4605.99200684,0.00835520
4607.92081421,0.00841614
4609.84962158,0.00839179
4611.77842895,0.00831788
4613.70723633,0.00836208
4615.63604370,0.00829017
4617.56485107,0.00823747
4619.49365845,0.00828264
4621.42246582,0.00816837
4623.35127319,0.00818037
4625.28008057,0.00821636
4627.20888794,0.00812820
4629.13769531,0.00803527
4631.06650269,0.00805783
4632.99531006,0.00808015
4634.92411743,0.00807876
4636.85292480,0.00812886
4638.78173218,0.00794348
4640.71053955,0.00793712
4642.63934692,0.00801689
4644.56815430,0.00797796
4646.49696167,0.00794683
4648.42576904,0.00780735
4650.35457642,0.00785255
4652.28338379,0.00788213
4654.21219116,0.00782169
4656.14099853,0.00776637
4658.06980591,0.00781493
4659.99861328,0.00780990
4661.92742065,0.00764441
4663.85622803,0.00773244
4665.78503540,0.00776268
4667.71384277,0.00767264
4669.64265015,0.00769945
4671.57145752,0.00771752
4673.50026489,0.00760541
4675.42907227,0.00761930
4677.35787964,0.00766376
4679.28668701,0.00755693
4681.21549438,0.00763081
4683.14430176,0.00754899
4685.07310913,0.00746765
4687.00191650,0.00755126
4688.93072388,0.00756714
4690.85953125,0.00748659
4692.78833862,0.00738668
4694.71714600,0.00746782
4696.64595337,0.00739711
4698.57476074,0.00735309
4700.50356812,0.00731324
4702.43237549,0.00726035
4704.36118286,0.00733219
4706.28999023,0.00730021
4708.21879761,0.00730819
4710.14760498,0.00725694
4712.07641235,0.00724057
4714.00521973,0.00714835
4715.93402710,0.00710659
4717.86283447,0.00718950
4719.79164185,0.00712737
4721.72044922,0.00713715
4723.64925659,0.00712043
4725.57806396,0.00708421
4727.50687134,0.00701494
4729.43567871,0.00706182
4731.36448608,0.00712595
4733.29329346,0.00703261
4735.22210083,0.00702061
4737.15090820,0.00703812
4739.07971558,0.00706029
4741.00852295,0.00704973
4742.93733032,0.00706577
4744.86613770,0.00695603
4746.79494507,0.00695702
4748.72375244,0.00689924
4750.65255981,0.00672525
4752.58136719,0.00684643
4754.51017456,0.00676162
4756.43898193,0.00680151
4758.36778931,0.00680682
4760.29659668,0.00673418
4762.22540405,0.00682147
4764.15421143,0.00671676
4766.08301880,0.00674039
4768.01182617,0.00666289
4769.94063354,0.00670587
4771.86944092,0.00679004
4773.79824829,0.00668786
4775.72705566,0.00662999
4777.65586304,0.00658465
4779.58467041,0.00665873
4781.51347778,0.00657472
4783.44228516,0.00656097
4785.37109253,0.00652939
4787.29989990,0.00651771
4789.22870728,0.00661755
4791.15751465,0.00654470
4793.08632202,0.00649957
4795.01512939,0.00646787
4796.94393677,0.00650698
4798.87274414,0.00640475
4800.80155151,0.00642821
4802.73035889,0.00645795
4804.65916626,0.00630110
4806.58797363,0.00636762
4808.51678101,0.00631811
4810.44558838,0.00631539
4812.37439575,0.00635212
4814.30320312,0.00633581
4816.23201050,0.00632656
4818.16081787,0.00628514
4820.08962524,0.00622337
4822.01843262,0.00622434
4823.94723999,0.00631759
4825.87604736,0.00614225
4827.80485474,0.00617892
4829.73366211,0.00616887
4831.66246948,0.00605963
4833.59127686,0.00620827
4835.52008423,0.00616993
4837.44889160,0.00616562
4839.37769897,0.00605211
4841.30650635,0.00606388
4843.23531372,0.00612158
4845.16412109,0.00603291
4847.09292847,0.00606626
4849.02173584,0.00594295
4850.95054321,0.00596475
4852.87935059,0.00598969
4854.80815796,0.00593742
4856.73696533,0.00596633
4858.66577270,0.00595302
4860.59458008,0.00593446
4862.52338745,0.00588422
4864.45219482,0.00585870
4866.38100220,0.00584561
4868.30980957,0.00590831
4870.23861694,0.00582607
4872.16742432,0.00577935
4874.09623169,0.00588410
4876.02503906,0.00588368
4877.95384644,0.00583471
4879.88265381,0.00574073
4881.81146118,0.00578002
4883.74026855,0.00570746
4885.66907593,0.00567614
4887.59788330,0.00575561
4889.52669067,0.00562449
4891.45549805,0.00566547
4893.38430542,0.00570511
4895.31311279,0.00564302
4897.24192017,0.00565800
4899.17072754,0.00559939
4901.09953491,0.00559564
4903.02834228,0.00565994
4904.95714966,0.00558986
4906.88595703,0.00551374
4908.81476440,0.00551341
4910.74357178,0.00546288
4912.67237915,0.00543779
4914.60118652,0.00548092
4916.52999390,0.00553557
4918.45880127,0.00542669
4920.38760864,0.00535219
4922.31641602,0.00544632
4924.24522339,0.00540028
4926.17403076,0.00536054
4928.10283813,0.00535885
4930.03164551,0.00534590
4931.96045288,0.00542215
4933.88926025,0.00538132
4935.81806763,0.00526661
4937.74687500,0.00529925
4939.67568237,0.00531289
4941.60448975,0.00533012
4943.53329712,0.00532317
4945.46210449,0.00523159
4947.39091187,0.00529067
4949.31971924,0.00524432
4951.24852661,0.00521962
4953.17733398,0.00520675
4955.10614136,0.00506585
4957.03494873,0.00513655
4958.96375610,0.00515047
4960.89256348,0.00510967
4962.82137085,0.00510582
4964.75017822,0.00514479
4966.67898560,0.00514889
4968.60779297,0.00507144
4970.53660034,0.00503963
4972.46540771,0.00497982
4974.39421509,0.00507105
4976.32302246,0.00504391
4978.25182983,0.00500997
4980.18063721,0.00501892
4982.10944458,0.00494950
4984.03825195,0.00500398
4985.96705933,0.00489959
4987.89586670,0.00492348
4989.82467407,0.00493863
4991.75348145,0.00484695
4993.68228882,0.00485626
4995.61109619,0.00485188
4997.53990356,0.00494580
4999.46871094,0.00491551
5001.39751831,0.00484812
5003.32632568,0.00481883
5005.25513306,0.00485656
5007.18394043,0.00481083
5009.11274780,0.00475924
5011.04155518,0.00484099
5012.97036255,0.00471679
5014.89916992,0.00481796
5016.82797729,0.00484889
5018.75678467,0.00470762
5020.68559204,0.00480260
5022.61439941,0.00471818
5024.54320679,0.00464862
5026.47201416,0.00469063
5028.40082153,0.00465352
5030.32962891,0.00465591
5032.25843628,0.00468173
5034.18724365,0.00464176
5036.11605103,0.00461862
5038.04485840,0.00458904
5039.97366577,0.00456388
5041.90247314,0.00459433
5043.83128052,0.00457495
5045.76008789,0.00455104
5047.68889526,0.00450516
5049.61770264,0.00451091
5051.54651001,0.00442493
5053.47531738,0.00446593
5055.40412476,0.00457803
5057.33293213,0.00439699
5059.26173950,0.00447149
5061.19054687,0.00446397
5063.11935425,0.00437765
5065.04816162,0.00444062
5066.97696899,0.00435348
5068.90577637,0.00439478
5070.83458374,0.00436973
5072.76339111,0.00439356
5074.69219849,0.00437219
5076.62100586,0.00428033
5078.54981323,0.00439009
5080.47862061,0.00432258
5082.40742798,0.00431472
5084.33623535,0.00438784
5086.26504272,0.00430530
5088.19385010,0.00426011
5090.12265747,0.00427402
5092.05146484,0.00423243
5093.98027222,0.00420338
5095.90907959,0.00427765
5097.83788696,0.00424664
5099.76669434,0.00422357
5101.69550171,0.00420892
5103.62430908,0.00412425
5105.55311645,0.00418209
5107.48192383,0.00412411
5109.41073120,0.00407319
5111.33953857,0.00420632
5113.26834595,0.00413453
5115.19715332,0.00409292
5117.12596069,0.00410438
5119.05476807,0.00402263
5120.98357544,0.00409021
5122.91238281,0.00409469
5124.84119019,0.00404554
5126.76999756,0.00404352
5128.69880493,0.00402801
5130.62761230,0.00401073
5132.55641968,0.00401774
5134.48522705,0.00406698
5136.41403442,0.00399633
5138.34284180,0.00393144
5140.27164917,0.00395110
5142.20045654,0.00400074
5144.12926392,0.00394385
5146.05807129,0.00389855
5147.98687866,0.00394922
5149.91568603,0.00387194
5151.84449341,0.00395564
5153.77330078,0.00392581
5155.70210815,0.00380200
5157.63091553,0.00391645
5159.55972290,0.00392931
5161.48853027,0.00388635
5163.41733765,0.00380015
5165.34614502,0.00378801
5167.27495239,0.00386210
5169.20375977,0.00382956
5171.13256714,0.00370846
5173.06137451,0.00371337
5174.99018188,0.00380987
5176.91898926,0.00377525
5178.84779663,0.00380239
5180.77660400,0.00374715
5182.70541138,0.00371718
5184.63421875,0.00367717
5186.56302612,0.00363196
5188.49183350,0.00374686
5190.42064087,0.00366991
5192.34944824,0.00374181
5194.27825562,0.00375863
5196.20706299,0.00363780
5198.13587036,0.00365727
5200.06467773,0.00358380
5201.99348511,0.00367607
5203.92229248,0.00373748
5205.85109985,0.00361156
5207.77990723,0.00350427
5209.70871460,0.00349628
5211.63752197,0.00358111
5213.56632935,0.00360829
5215.49513672,0.00355613
5217.42394409,0.00353600
5219.35275146,0.00357693
5221.28155884,0.00351160
5223.21036621,0.00349894
5225.13917358,0.00348504
5227.06798096,0.00345823
5228.99678833,0.00349230
5230.92559570,0.00342191
5232.85440308,0.00340881
5234.78321045,0.00340706
5236.71201782,0.00343289
5238.64082520,0.00344676
5240.56963257,0.00345456
5242.49843994,0.00346995
5244.42724731,0.00337305
5246.35605469,0.00333012
5248.28486206,0.00327963
5250.21366943,0.00336707
5252.14247681,0.00345523
5254.07128418,0.00332403
5256.00009155,0.00328011
5257.92889893,0.00333644
5259.85770630,0.00339182
5261.78651367,0.00336641
5263.71532104,0.00330211
5265.64412842,0.00328831
5267.57293579,0.00331676
5269.50174316,0.00331040
5271.43055054,0.00326440
5273.35935791,0.00325036
5275.28816528,0.00328336
5277.21697266,0.00331983
5279.14578003,0.00323537
5281.07458740,0.00322901
5283.00339478,0.00329457
5284.93220215,0.00325984
5286.86100952,0.00324643
5288.78981689,0.00318681
5290.71862427,0.00312946
5292.64743164,0.00316394
5294.57623901,0.00315123
5296.50504639,0.00321417
5298.43385376,0.00327621
5300.36266113,0.00314300
5302.29146851,0.00314041
5304.22027588,0.00314643
5306.14908325,0.00312289
5308.07789062,0.00316785
5310.00669800,0.00305228
5311.93550537,0.00306795
5313.86431274,0.00311584
5315.79312012,0.00308627
5317.72192749,0.00304578
5319.65073486,0.00302375
5321.57954224,0.00312266
5323.50834961,0.00308671
5325.43715698,0.00307522
5327.36596436,0.00302540
5329.29477173,0.00298836
5331.22357910,0.00307909
5333.15238647,0.00299031
5335.08119385,0.00296296
5337.01000122,0.00296073
5338.93880859,0.00287680
5340.86761597,0.00295176
5342.79642334,0.00297614
5344.72523071,0.00280091
5346.65403809,0.00280674
5348.58284546,0.00288143
5350.51165283,0.00286743
5352.44046020,0.00289677
5354.36926758,0.00281829
5356.29807495,0.00289709
5358.22688232,0.00299051
5360.15568970,0.00291249
5362.08449707,0.00286357
5364.01330444,0.00284558
5365.94211182,0.00290841
5367.87091919,0.00287226
5369.79972656,0.00283078
5371.72853394,0.00284666
5373.65734131,0.00285006
5375.58614868,0.00278994
5377.51495605,0.00275190
5379.44376343,0.00283346
5381.37257080,0.00283723
5383.30137817,0.00281716
5385.23018555,0.00271962
5387.15899292,0.00274455
5389.08780029,0.00279457
5391.01660767,0.00273101
5392.94541504,0.00276995
5394.87422241,0.00270111
5396.80302978,0.00268153
5398.73183716,0.00274207
5400.66064453,0.00279438
5402.58945190,0.00274115
5404.51825928,0.00271362
5406.44706665,0.00277162
5408.37587402,0.00263350
5410.30468140,0.00266367
5412.23348877,0.00267399
5414.16229614,0.00253996
5416.09110352,0.00256970
5418.01991089,0.00261908
5419.94871826,0.00262250
5421.87752563,0.00265776
5423.80633301,0.00264400
5425.73514038,0.00259775
5427.66394775,0.00268066
5429.59275513,0.00254489
5431.52156250,0.00257069
5433.45036987,0.00269552
5435.37917725,0.00248249
5437.30798462,0.00257480
5439.23679199,0.00256354
5441.16559936,0.00245895
5443.09440674,0.00258116
5445.02321411,0.00251724
5446.95202148,0.00252507
5448.88082886,0.00258134
5450.80963623,0.00251759
5452.73844360,0.00251118
5454.66725098,0.00248957
5456.59605835,0.00250442
5458.52486572,0.00256405
5460.45367310,0.00241046
5462.38248047,0.00242506
5464.31128784,0.00247812
5466.24009521,0.00242655
5468.16890259,0.00250020
5470.09770996,0.00236295
5472.02651733,0.00241815
5473.95532471,0.00237677
5475.88413208,0.00228411
5477.81293945,0.00240946
5479.74174683,0.00230744
5481.67055420,0.00244139
5483.59936157,0.00241366
5485.52816895,0.00235436
5487.45697632,0.00242867
5489.38578369,0.00235337
5491.31459106,0.00239277
5493.24339844,0.00224095
5495.17220581,0.00228503
5497.10101318,0.00233923
5499.02982056,0.00232006
5500.95862793,0.00242178
5502.88743530,0.00231642
5504.81624268,0.00236523
5506.74505005,0.00234442
5508.67385742,0.00225996
5510.60266479,0.00227164
5512.53147217,0.00225676
5514.46027954,0.00227587
5516.38908691,0.00222752
5518.31789429,0.00228172
5520.24670166,0.00234373
5522.17550903,0.00230293
5524.10431641,0.00223882
5526.03312378,0.00221803
5527.96193115,0.00226764
5529.89073853,0.00222798
5531.81954590,0.00218280
5533.74835327,0.00225225
5535.67716064,0.00227262
5537.60596802,0.00220888
5539.53477539,0.00220492
5541.46358276,0.00221883
5543.39239014,0.00222390
5545.32119751,0.00220977
5547.25000488,0.00215206
5549.17881226,0.00210516
5551.10761963,0.00218423
5553.03642700,0.00224320
5554.96523437,0.00217721
5556.89404175,0.00221097
5558.82284912,0.00216494
5560.75165649,0.00215392
5562.68046387,0.00220198
5564.60927124,0.00214889
5566.53807861,0.00217198
5568.46688599,0.00211765
5570.39569336,0.00210446
5572.32450073,0.00205351
5574.25330811,0.00206111
5576.18211548,0.00217555
5578.11092285,0.00206358
5580.03973022,0.00210487
5581.96853760,0.00213205
5583.89734497,0.00206899
5585.82615234,0.00215500
5587.75495972,0.00212108
5589.68376709,0.00201389
5591.61257446,0.00194864
5593.54138184,0.00200008
5595.47018921,0.00206620
5597.39899658,0.00201987
5599.32780395,0.00196610
5601.25661133,0.00198093
5603.18541870,0.00205112
5605.11422607,0.00204733
5607.04303345,0.00199156
5608.97184082,0.00200249
5610.90064819,0.00204644
5612.82945557,0.00199151
5614.75826294,0.00193116
5616.68707031,0.00197513
5618.61587769,0.00192619
5620.54468506,0.00188634
5622.47349243,0.00199149
5624.40229980,0.00195952
5626.33110718,0.00192997
5628.25991455,0.00199902
5630.18872192,0.00193876
5632.11752930,0.00196277
5634.04633667,0.00195799
5635.97514404,0.00188534
5637.90395142,0.00196628
5639.83275879,0.00192163
5641.76156616,0.00187969
5643.69037353,0.00193058
5645.61918091,0.00186763
5647.54798828,0.00184644
5649.47679565,0.00183317
5651.40560303,0.00183602
5653.33441040,0.00189364
5655.26321777,0.00184972
5657.19202515,0.00184923
5659.12083252,0.00190303
5661.04963989,0.00189256
5662.97844727,0.00182162
5664.90725464,0.00172140
5666.83606201,0.00175482
5668.76486938,0.00180117
5670.69367676,0.00181470
5672.62248413,0.00179636
5674.55129150,0.00174380
5676.48009888,0.00183226
5678.40890625,0.00183387
5680.33771362,0.00176441
5682.26652100,0.00176962
5684.19532837,0.00178940
5686.12413574,0.00180206
5688.05294311,0.00179092
5689.98175049,0.00175823
5691.91055786,0.00168968
5693.83936523,0.00179574
5695.76817261,0.00180151
5697.69697998,0.00169208
5699.62578735,0.00173718
5701.55459473,0.00172107
5703.48340210,0.00178466
5705.41220947,0.00175444
5707.34101685,0.00167316
5709.26982422,0.00174458
5711.19863159,0.00173008
5713.12743896,0.00168947
5715.05624634,0.00164574
5716.98505371,0.00168665
5718.91386108,0.00172192
5720.84266846,0.00167713
5722.77147583,0.00164052
5724.70028320,0.00159232
5726.62909058,0.00162750
5728.55789795,0.00162305
5730.48670532,0.00161382
5732.41551270,0.00164591
5734.34432007,0.00162794
5736.27312744,0.00165446
5738.20193481,0.00162742
5740.13074219,0.00159673
5742.05954956,0.00162155
5743.98835693,0.00158536
5745.91716431,0.00162865
5747.84597168,0.00159667
5749.77477905,0.00155094
5751.70358643,0.00162946
5753.63239380,0.00154774
5755.56120117,0.00160371
5757.49000854,0.00161972
5759.41881592,0.00149607
5761.34762329,0.00156448
5763.27643066,0.00155441
5765.20523804,0.00160449
5767.13404541,0.00160441
5769.06285278,0.00153253
5770.99166016,0.00154336
5772.92046753,0.00154647
5774.84927490,0.00157749
5776.77808228,0.00148205
5778.70688965,0.00153161
5780.63569702,0.00156918
5782.56450439,0.00148557
5784.49331177,0.00149901
5786.42211914,0.00150610
5788.35092651,0.00155445
5790.27973389,0.00148664
5792.20854126,0.00149068
5794.13734863,0.00152294
5796.06615601,0.00146555
5797.99496338,0.00145746
5799.92377075,0.00146240
5801.85257812,0.00151339
5803.78138550,0.00142692
5805.71019287,0.00144129
5807.63900024,0.00147022
5809.56780762,0.00138401
5811.49661499,0.00145519
5813.42542236,0.00146387
5815.35422974,0.00143024
5817.28303711,0.00140707
5819.21184448,0.00138747
5821.14065186,0.00140285
5823.06945923,0.00143097
5824.99826660,0.00144417
5826.92707397,0.00143680
5828.85588135,0.00146823
5830.78468872,0.00138371
5832.71349609,0.00133316
5834.64230347,0.00137076
5836.57111084,0.00133219
5838.49991821,0.00135617
5840.42872559,0.00136657
5842.35753296,0.00134821
5844.28634033,0.00140133
5846.21514770,0.00132207
5848.14395508,0.00130022
5850.07276245,0.00141938
5852.00156982,0.00135170
5853.93037720,0.00130883
5855.85918457,0.00131595
5857.78799194,0.00134389
5859.71679932,0.00139353
5861.64560669,0.00134136
5863.57441406,0.00132437
5865.50322144,0.00127437
5867.43202881,0.00135654
5869.36083618,0.00140115
5871.28964355,0.00132331
5873.21845093,0.00130498
5875.14725830,0.00123044
5877.07606567,0.00133500
5879.00487305,0.00134631
5880.93368042,0.00127157
5882.86248779,0.00131807
5884.79129517,0.00130848
5886.72010254,0.00131914
5888.64890991,0.00129726
5890.57771728,0.00132464
5892.50652466,0.00128017
5894.43533203,0.00123300
5896.36413940,0.00127525
5898.29294678,0.00124978
5900.22175415,0.00123850
5902.15056152,0.00122807
5904.07936890,0.00129003
5906.00817627,0.00128047
5907.93698364,0.00126450
5909.86579102,0.00129508
5911.79459839,0.00123576
5913.72340576,0.00125869
5915.65221313,0.00127080
5917.58102051,0.00122943
5919.50982788,0.00121240
5921.43863525,0.00122229
5923.36744263,0.00118801
5925.29625000,0.00123867
5927.22505737,0.00127887
5929.15386475,0.00113177
5931.08267212,0.00121304
5933.01147949,0.00126921
5934.94028686,0.00116598
5936.86909424,0.00117799
5938.79790161,0.00113844
5940.72670898,0.00116787
5942.65551636,0.00121082
5944.58432373,0.00116482
5946.51313110,0.00115529
5948.44193848,0.00115317
5950.37074585,0.00115688
5952.29955322,0.00114719
5954.22836060,0.00113916
5956.15716797,0.00116146
5958.08597534,0.00115435
5960.01478271,0.00113146
5961.94359009,0.00112381
5963.87239746,0.00109284
5965.80120483,0.00111205
5967.73001221,0.00116569
5969.65881958,0.00114168
5971.58762695,0.00110684
5973.51643433,0.00113416
5975.44524170,0.00116930
5977.37404907,0.00111891
5979.30285645,0.00110036
5981.23166382,0.00115902
5983.16047119,0.00112324
5985.08927856,0.00110255
5987.01808594,0.00114049
5988.94689331,0.00107416
5990.87570068,0.00104184
5992.80450806,0.00110777
5994.73331543,0.00109096
5996.66212280,0.00105128
5998.59093018,0.00106604
6000.51973755,0.00105682
