399.26312622,0.00273490
401.19193359,0.00296524
403.12074097,0.00339750
405.04954834,0.00376617
406.97835571,0.00297075
408.90716309,0.00403780
410.83597046,0.00422100
412.76477783,0.00381304
414.69358521,0.00404995
416.62239258,0.00393504
418.55119995,0.00339306
420.48000732,0.00344885
422.40881470,0.00427083
424.33762207,0.00445899
426.26642944,0.00445111
428.19523682,0.00401122
430.12404419,0.00423292
432.05285156,0.00457336
433.98165894,0.00429789
435.91046631,0.00461190
437.83927368,0.00418301
439.76808105,0.00373859
441.69688843,0.00398857
443.62569580,0.00396056
445.55450317,0.00375891
447.48331055,0.00358376
449.41211792,0.00322662
451.34092529,0.00301480
453.26973267,0.00330333
455.19854004,0.00310264
457.12734741,0.00244326
459.05615479,0.00238579
460.98496216,0.00273356
462.91376953,0.00258779
464.84257690,0.00238209
466.77138428,0.00227411
468.70019165,0.00207984
470.62899902,0.00204625
472.55780640,0.00177253
474.48661377,0.00153347
476.41542114,0.00118384
478.34422852,0.00095385
480.27303589,0.00107527
482.20184326,0.00122070
484.13065063,0.00141198
486.05945801,0.00105324
487.98826538,0.00065230
489.91707275,0.00053403
491.84588013,0.00067786
493.77468750,0.00089529
495.70349487,0.00079541
497.63230225,0.00103210
499.56110962,0.00077852
501.48991699,0.00040238
503.41872437,0.00098509
505.34753174,0.00091405
507.27633911,0.00060312
509.20514648,0.00065203
511.13395386,0.00062576
513.06276123,0.00067596
514.99156860,0.00020695
516.92037598,0.00021720
518.84918335,0.00053504
520.77799072,0.00063253
522.70679810,0.00047615
524.63560547,0.00006618
526.56441284,0.00053756
528.49322021,0.00061812
530.42202759,0.00062862
532.35083496,0.00082258
534.27964233,0.00032219
536.20844971,0.00033188
538.13725708,0.00064678
540.06606445,0.00088935
541.99487183,0.00078188
543.92367920,0.00066913
545.85248657,0.00073230
547.78129395,0.00033631
549.71010132,0.00018656
551.63890869,0.00054132
553.56771606,0.00051942
555.49652344,0.00025047
557.42533081,0.00034412
559.35413818,0.00019730
561.28294556,0.00018835
563.21175293,0.00026119
565.14056030,0.00023671
567.06936768,0.00051030
568.99817505,0.00015211
570.92698242,0.00028415
572.85578979,0.00073701
574.78459717,0.00007849
576.71340454,-0.00016509
578.64221191,0.00044615
580.57101929,0.00065615
582.49982666,0.00042302
584.42863403,0.00041669
586.35744141,0.00020502
588.28624878,0.00006619
590.21505615,0.00042458
592.14386353,0.00035625
594.07267090,0.00005295
596.00147827,-0.00004048
597.93028564,0.00011764
599.85909302,0.00062587
601.78790039,0.00088056
603.71670776,0.00049914
605.64551514,0.00028766
607.57432251,0.00056335
609.50312988,0.00063005
611.43193726,0.00059358
613.36074463,0.00028189
615.28955200,0.00022664
617.21835938,0.00024202
619.14716675,-0.00001016
621.07597412,0.00034970
623.00478149,-0.00001410
624.93358887,-0.00002983
626.86239624,0.00072269
628.79120361,0.00034896
630.72001099,0.00074333
632.64881836,0.00175367
634.57762573,0.00234223
636.50643311,0.00284414
638.43524048,0.00309156
640.36404785,0.00331289
642.29285522,0.00350362
644.22166260,0.00380925
646.15046997,0.00415172
648.07927734,0.00475966
650.00808472,0.00487819
651.93689209,0.00479421
653.86569946,0.00535210
655.79450684,0.00527945
657.72331421,0.00530612
659.65212158,0.00585320
661.58092896,0.00575380
663.50973633,0.00635965
665.43854370,0.00675694
667.36735107,0.00572435
669.29615845,0.00672710
671.22496582,0.00791667
673.15377319,0.00750759
675.08258057,0.00787331
677.01138794,0.00773946
678.94019531,0.00778634
680.86900269,0.00824315
682.79781006,0.00827431
684.72661743,0.00811006
686.65542480,0.00791645
688.58423218,0.00832837
690.51303955,0.00841273
692.44184692,0.00853705
694.37065430,0.00912862
696.29946167,0.01048796
698.22826904,0.01196438
700.15707642,0.01282862
702.08588379,0.01283639
704.01469116,0.01141621
705.94349854,0.01060648
707.87230591,0.00927976
709.80111328,0.00703352
711.72992065,0.00517874
713.65872803,0.00307809
715.58753540,0.00168389
717.51634277,0.00114276
719.44515015,0.00102500
721.37395752,0.00072866
723.30276489,0.00054401
725.23157227,0.00043533
727.16037964,0.00042368
729.08918701,0.00033462
731.01799438,-0.00009314
732.94680176,0.00044680
734.87560913,0.00018791
736.80441650,-0.00021855
738.73322388,0.00055051
740.66203125,0.00059758
742.59083862,0.00020150
744.51964600,0.00012527
746.44845337,0.00033055
748.37726074,0.00040902
750.30606812,0.00052627
752.23487549,0.00049085
754.16368286,0.00036011
756.09249023,0.00035720
758.02129761,0.00017690
759.95010498,0.00025142
761.87891235,0.00051550
763.80771973,0.00057166
765.73652710,0.00049898
767.66533447,0.00073867
769.59414185,0.00056839
771.52294922,0.00041553
773.45175659,0.00092398
775.38056396,0.00072124
777.30937134,0.00075222
779.23817871,0.00059321
781.16698608,0.00046942
783.09579346,0.00075748
785.02460083,0.00049552
786.95340820,0.00087948
788.88221558,0.00092247
790.81102295,0.00060777
792.73983032,0.00068379
794.66863770,0.00079898
796.59744507,0.00113949
798.52625244,0.00156240
800.45505981,0.00184400
802.38386719,0.00167055
804.31267456,0.00155751
806.24148193,0.00121682
808.17028931,0.00097835
810.09909668,0.00087621
812.02790405,0.00073238
813.95671143,0.00098426
815.88551880,0.00068847
817.81432617,0.00041894
819.74313354,0.00048805
821.67194092,0.00076677
823.60074829,0.00097889
825.52955566,0.00085253
827.45836304,0.00112795
829.38717041,0.00142976
831.31597778,0.00181296
833.24478516,0.00227381
835.17359253,0.00249304
837.10239990,0.00251158
839.03120728,0.00246076
840.96001465,0.00263426
842.88882202,0.00268977
844.81762939,0.00226150
846.74643677,0.00209722
848.67524414,0.00217357
850.60405151,0.00179849
852.53285889,0.00158902
854.46166626,0.00142455
856.39047363,0.00154659
858.31928101,0.00139755
860.24808838,0.00092153
862.17689575,0.00093891
864.10570313,0.00074605
866.03451050,0.00099929
867.96331787,0.00077445
869.89212524,0.00064764
871.82093262,0.00080715
873.74973999,0.00024001
875.67854736,0.00051474
877.60735474,0.00042380
879.53616211,0.00045842
881.46496948,0.00059518
883.39377686,0.00036309
885.32258423,0.00070684
887.25139160,0.00054620
889.18019897,0.00051095
891.10900635,0.00045778
893.03781372,0.00053368
894.96662109,0.00063258
896.89542847,0.00051107
898.82423584,0.00066411
900.75304321,0.00058777
902.68185059,0.00083957
904.61065796,0.00088129
906.53946533,0.00077451
908.46827271,0.00090190
910.39708008,0.00120136
912.32588745,0.00134696
914.25469482,0.00114200
916.18350220,0.00143690
918.11230957,0.00152750
920.04111694,0.00159716
921.96992432,0.00197537
923.89873169,0.00215249
925.82753906,0.00213706
927.75634644,0.00237710
929.68515381,0.00278059
931.61396118,0.00298972
933.54276855,0.00329726
935.47157593,0.00310930
937.40038330,0.00351286
939.32919067,0.00417113
941.25799805,0.00399567
943.18680542,0.00414909
945.11561279,0.00414631
947.04442017,0.00397659
948.97322754,0.00378194
950.90203491,0.00363565
952.83084229,0.00376111
954.75964966,0.00368753
956.68845703,0.00361357
958.61726440,0.00376867
960.54607178,0.00371453
962.47487915,0.00360955
964.40368652,0.00418114
966.33249390,0.00415655
968.26130127,0.00394081
970.19010864,0.00449440
972.11891602,0.00469147
974.04772339,0.00480841
975.97653076,0.00503181
977.90533813,0.00561828
979.83414551,0.00648161
981.76295288,0.00699584
983.69176025,0.00753461
985.62056763,0.00847121
987.54937500,0.00944571
989.47818237,0.01023429
991.40698975,0.01138464
993.33579712,0.01276951
995.26460449,0.01399069
997.19341187,0.01490838
999.12221924,0.01613813
1001.05102661,0.01743170
1002.97983398,0.01841403
1004.90864136,0.01986079
1006.83744873,0.02100371
1008.76625610,0.02214921
1010.69506348,0.02356559
1012.62387085,0.02480642
1014.55267822,0.02619124
1016.48148560,0.02741447
1018.41029297,0.02892816
1020.33910034,0.03025278
1022.26790771,0.03112354
1024.19671509,0.03241329
1026.12552246,0.03369474
1028.05432983,0.03477976
1029.98313721,0.03602568
1031.91194458,0.03703877
1033.84075195,0.03747090
1035.76955933,0.03807204
1037.69836670,0.03887889
1039.62717407,0.03908892
1041.55598145,0.03890864
1043.48478882,0.03855181
1045.41359619,0.03801225
1047.34240356,0.03762669
1049.27121094,0.03704166
1051.20001831,0.03620595
1053.12882568,0.03558901
1055.05763306,0.03498419
1056.98644043,0.03433062
1058.91524780,0.03336906
1060.84405518,0.03230023
1062.77286255,0.03134879
1064.70166992,0.03025104
1066.63047729,0.02927211
1068.55928467,0.02802511
1070.48809204,0.02675086
1072.41689941,0.02566799
1074.34570679,0.02428115
1076.27451416,0.02315946
1078.20332153,0.02218913
1080.13212891,0.02115360
1082.06093628,0.02040303
1083.98974365,0.01917975
1085.91855103,0.01799988
1087.84735840,0.01756315
1089.77616577,0.01672853
1091.70497314,0.01600355
1093.63378052,0.01536989
1095.56258789,0.01453927
1097.49139526,0.01427638
1099.42020264,0.01384929
1101.34901001,0.01361942
1103.27781738,0.01349647
1105.20662476,0.01298241
1107.13543213,0.01261175
1109.06423950,0.01231474
1110.99304687,0.01226299
1112.92185425,0.01212573
1114.85066162,0.01191268
1116.77946899,0.01203767
1118.70827637,0.01216901
1120.63708374,0.01201463
1122.56589111,0.01207982
1124.49469849,0.01218913
1126.42350586,0.01217400
1128.35231323,0.01279512
1130.28112061,0.01313344
1132.20992798,0.01323225
1134.13873535,0.01377346
1136.06754272,0.01438149
1137.99635010,0.01506282
1139.92515747,0.01587352
1141.85396484,0.01697768
1143.78277222,0.01811187
1145.71157959,0.01939787
1147.64038696,0.02058917
1149.56919434,0.02175792
1151.49800171,0.02287263
1153.42680908,0.02365773
1155.35561646,0.02508598
1157.28442383,0.02612867
1159.21323120,0.02662858
1161.14203857,0.02797164
1163.07084595,0.02916423
1164.99965332,0.02986896
1166.92846069,0.03105346
1168.85726807,0.03217528
1170.78607544,0.03338005
1172.71488281,0.03486034
1174.64369019,0.03584968
1176.57249756,0.03732618
1178.50130493,0.03877864
1180.43011230,0.04010272
1182.35891968,0.04200538
1184.28772705,0.04385742
1186.21653442,0.04579511
1188.14534180,0.04764361
1190.07414917,0.05009144
1192.00295654,0.05252289
1193.93176392,0.05492938
1195.86057129,0.05770475
1197.78937866,0.05989588
1199.71818604,0.06253403
1201.64699341,0.06522755
1203.57580078,0.06809248
1205.50460815,0.07093509
1207.43341553,0.07327284
1209.36222290,0.07588527
1211.29103027,0.07814114
1213.21983765,0.08027817
1215.14864502,0.08212858
1217.07745239,0.08387120
1219.00625977,0.08560708
1220.93506714,0.08696331
1222.86387451,0.08791780
1224.79268188,0.08848204
1226.72148926,0.08947314
1228.65029663,0.09011889
1230.57910400,0.09018151
1232.50791138,0.09025308
1234.43671875,0.09056642
1236.36552612,0.09064223
1238.29433350,0.09026639
1240.22314087,0.09021368
1242.15194824,0.08982442
1244.08075562,0.08935875
1246.00956299,0.08891032
1247.93837036,0.08836764
1249.86717773,0.08793564
1251.79598511,0.08702703
1253.72479248,0.08600126
1255.65359985,0.08505539
1257.58240723,0.08390441
1259.51121460,0.08238481
1261.44002197,0.08127423
1263.36882935,0.08036861
1265.29763672,0.07925307
1267.22644409,0.07820169
1269.15525146,0.07684833
1271.08405884,0.07595231
1273.01286621,0.07481682
1274.94167358,0.07318300
1276.87048096,0.07193854
1278.79928833,0.07048710
1280.72809570,0.06902610
1282.65690308,0.06769079
1284.58571045,0.06651505
1286.51451782,0.06521100
1288.44332520,0.06379066
1290.37213257,0.06328361
1292.30093994,0.06282206
1294.22974731,0.06198148
1296.15855469,0.06164634
1298.08736206,0.06155337
1300.01616943,0.06174280
1301.94497681,0.06190868
1303.87378418,0.06227317
1305.80259155,0.06311445
1307.73139893,0.06373393
1309.66020630,0.06494229
1311.58901367,0.06585164
1313.51782104,0.06691615
1315.44662842,0.06900934
1317.37543579,0.07002819
1319.30424316,0.07174010
1321.23305054,0.07465214
1323.16185791,0.07689887
1325.09066528,0.07895306
1327.01947266,0.08119865
1328.94828003,0.08335895
1330.87708740,0.08540087
1332.80589478,0.08764479
1334.73470215,0.08912918
1336.66350952,0.08971736
1338.59231689,0.08902602
1340.52112427,0.09015070
1342.44993164,0.09400822
1344.37873901,0.09453187
1346.30754639,0.09449156
1348.23635376,0.09456158
1350.16516113,0.09363471
1352.09396851,0.09390894
1354.02277588,0.09227382
1355.95158325,0.09153907
1357.88039062,0.09126775
1359.80919800,0.08942008
1361.73800537,0.08550140
1363.66681274,0.08385607
1365.59562012,0.08852684
1367.52442749,0.08656603
1369.45323486,0.08531193
1371.38204224,0.08729631
1373.31084961,0.08223236
1375.23965698,0.08276430
1377.16846436,0.08515454
1379.09727173,0.08477025
1381.02607910,0.08488262
1382.95488647,0.08469318
1384.88369385,0.08476647
1386.81250122,0.08047327
1388.74130859,0.08158893
1390.67011597,0.08884612
1392.59892334,0.08644059
1394.52773071,0.08032235
1396.45653809,0.08453725
1398.38534546,0.08456356
1400.31415283,0.08375649
1402.24296021,0.09114777
1404.17176758,0.08565385
1406.10057495,0.08612765
1408.02938232,0.09034427
1409.95818970,0.08631811
1411.88699707,0.08845516
1413.81580444,0.08537287
1415.74461182,0.08675440
1417.67341919,0.07830988
1419.60222656,0.06912234
1421.53103394,0.08053896
1423.45984131,0.07807492
1425.38864868,0.07528074
1427.31745605,0.07702445
1429.24626343,0.07103527
1431.17507080,0.06872367
1433.10387817,0.06998799
1435.03268555,0.06388061
1436.96149292,0.05325755
1438.89030029,0.06087959
1440.81910767,0.06304388
1442.74791504,0.05792509
1444.67672241,0.06088299
1446.60552979,0.05574745
1448.53433716,0.05658416
1450.46314453,0.05847418
1452.39195190,0.05940177
1454.32075928,0.06200404
1456.24956665,0.05070008
1458.17837402,0.05225673
1460.10718140,0.07064475
1462.03598877,0.07591309
1463.96479614,0.07477300
1465.89360352,0.07756113
1467.82241089,0.08920270
1469.75121826,0.09647612
1471.68002563,0.08517531
1473.60883301,0.08939919
1475.53764038,0.10254593
1477.46644775,0.11043985
1479.39525513,0.12203857
1481.32406250,0.12377106
1483.25286987,0.13179851
1485.18167725,0.13625574
1487.11048462,0.13339967
1489.03929199,0.13265339
1490.96809937,0.13332030
1492.89690674,0.15630706
1494.82571411,0.15299368
1496.75452148,0.13642621
1498.68332886,0.15486580
1500.61213623,0.16014129
1502.54094360,0.17238502
1504.46975098,0.16318002
1506.39855835,0.11627049
1508.32736572,0.14229196
1510.25617310,0.16964243
1512.18498047,0.16409943
1514.11378784,0.17868558
1516.04259521,0.16030563
1517.97140259,0.16685796
1519.90020996,0.16201298
1521.82901733,0.13813235
1523.75782471,0.17104211
1525.68663208,0.16865374
1527.61543945,0.16705176
1529.54424683,0.18664998
1531.47305420,0.17922795
1533.40186157,0.16336451
1535.33066895,0.17323980
1537.25947632,0.18694842
1539.18828369,0.13197684
1541.11709106,0.13650326
1543.04589844,0.16627789
1544.97470581,0.15884289
1546.90351318,0.18997784
1548.83232056,0.17695230
1550.76112793,0.18199784
1552.68993530,0.18194026
1554.61874268,0.16345750
1556.54755005,0.17638001
1558.47635742,0.12239972
1560.40516479,0.13078991
1562.33397217,0.19103658
1564.26277954,0.18043905
1566.19158691,0.18570285
1568.12039429,0.18420893
1570.04920166,0.16153021
1571.97800903,0.18763566
1573.90681641,0.19100782
1575.83562378,0.14934498
1577.76443115,0.16929872
1579.69323853,0.19300401
1581.62204590,0.18442062
1583.55085327,0.18954672
1585.47966064,0.18654442
1587.40846802,0.18788561
1589.33727539,0.18621179
1591.26608276,0.18602428
1593.19489014,0.18638824
1595.12369751,0.18399926
1597.05250488,0.18676391
1598.98131226,0.18551087
1600.91011963,0.18674564
1602.83892700,0.18305928
1604.76773437,0.18647745
1606.69654175,0.18357328
1608.62534912,0.18300101
1610.55415649,0.18323533
1612.48296387,0.18392122
1614.41177124,0.18732199
1616.34057861,0.15157042
1618.26938599,0.16406929
1620.19819336,0.19340190
1622.12700073,0.17036170
1624.05580811,0.17083623
1625.98461548,0.17973290
1627.91342285,0.17886862
1629.84223022,0.17768185
1631.77103760,0.19043395
1633.69984497,0.17564249
1635.62865234,0.14260864
1637.55745972,0.16710326
1639.48626709,0.18548843
1641.41507446,0.18076114
1643.34388184,0.18598515
1645.27268921,0.16701245
1647.20149658,0.14475118
1649.13030396,0.18197721
1651.05911133,0.17388129
1652.98791870,0.10802212
1654.91672607,0.14850110
1656.84553345,0.19029255
1658.77434082,0.18155625
1660.70314819,0.18691197
1662.63195557,0.16879675
1664.56076294,0.17808881
1666.48957031,0.19270346
1668.41837769,0.16714844
1670.34718506,0.16139890
1672.27599243,0.18449420
1674.20479980,0.17019048
1676.13360718,0.16178373
1678.06241455,0.18823135
1679.99122192,0.18128410
1681.92002930,0.17876096
1683.84883667,0.14437294
1685.77764404,0.14150177
1687.70645142,0.19801870
1689.63525879,0.17102313
1691.56406616,0.18804319
1693.49287354,0.19331869
1695.42168091,0.13783050
1697.35048828,0.17198294
1699.27929565,0.15134819
1701.20810303,0.13361940
1703.13691040,0.18611202
1705.06571777,0.17050359
1706.99452515,0.17123267
1708.92333252,0.18757313
1710.85213989,0.17963293
1712.78094727,0.18301058
1714.70975464,0.16925082
1716.63856201,0.15096948
1718.56736938,0.14791256
1720.49617676,0.17679563
1722.42498413,0.18511432
1724.35379150,0.17064059
1726.28259888,0.18651301
1728.21140625,0.17176160
1730.14021362,0.17237836
1732.06902100,0.16903663
1733.99782837,0.12610450
1735.92663574,0.15827844
1737.85544312,0.17714475
1739.78425049,0.15614054
1741.71305786,0.17070448
1743.64186523,0.17317405
1745.57067261,0.17327218
1747.49947998,0.17488581
1749.42828735,0.16698897
1751.35709473,0.15910833
1753.28590210,0.17706539
1755.21470947,0.18631917
1757.14351685,0.16854173
1759.07232422,0.18642512
1761.00113159,0.17513523
1762.92993896,0.16764800
1764.85874634,0.19388509
1766.78755371,0.17378977
1768.71636108,0.17488560
1770.64516846,0.17423497
1772.57397583,0.15531176
1774.50278320,0.17409702
1776.43159058,0.18468006
1778.36039795,0.18209903
1780.28920532,0.17976594
1782.21801270,0.18108711
1784.14682007,0.18089473
1786.07562744,0.17691581
1788.00443481,0.18674597
1789.93324219,0.18226583
1791.86204956,0.16348734
1793.79085693,0.17059593
1795.71966431,0.18401808
1797.64847168,0.18138644
1799.57727905,0.17856786
1801.50608643,0.17520821
1803.43489380,0.18117943
1805.36370117,0.18568702
1807.29250854,0.18279314
1809.22131592,0.18353713
1811.15012329,0.17829186
1813.07893066,0.18399827
1815.00773804,0.18504891
1816.93654541,0.18257295
1818.86535278,0.18451677
1820.79416016,0.18354365
1822.72296753,0.18646866
1824.65177490,0.17365485
1826.58058228,0.17983326
1828.50938965,0.18058765
1830.43819702,0.16818815
1832.36700439,0.18426511
1834.29581177,0.18336488
1836.22461914,0.18270238
1838.15342651,0.18230627
1840.08223389,0.18313868
1842.01104126,0.18395261
1843.93984863,0.16185741
1845.86865601,0.17263082
1847.79746338,0.18331975
1849.72627075,0.17885987
1851.65507812,0.18457192
1853.58388550,0.18059766
1855.51269287,0.18259016
1857.44150024,0.18156324
1859.37030762,0.18021652
1861.29911499,0.18171249
1863.22792236,0.17937529
1865.15672974,0.18154904
1867.08553711,0.17506596
1869.01434448,0.16715410
1870.94315186,0.17419130
1872.87195923,0.18139511
1874.80076660,0.17841604
1876.72957397,0.17934987
1878.65838135,0.17869546
1880.58718872,0.17757279
1882.51599609,0.17943589
1884.44480347,0.17620371
1886.37361084,0.17900915
1888.30241821,0.17479116
1890.23122559,0.17098175
1892.16003296,0.17798796
1894.08884033,0.17506114
1896.01764771,0.17435132
1897.94645508,0.17656657
1899.87526245,0.17553075
1901.80406982,0.17597969
1903.73287720,0.17485185
1905.66168457,0.17561904
1907.59049194,0.17354174
1909.51929932,0.17263776
1911.44810669,0.17372453
1913.37691406,0.17377487
1915.30572144,0.17572173
1917.23452881,0.16748780
1919.16333618,0.16731694
1921.09214355,0.17435545
1923.02095093,0.16856267
1924.94975830,0.17198941
1926.87856567,0.17401977
1928.80737305,0.17172310
1930.73618042,0.17402190
1932.66498779,0.17122228
1934.59379517,0.17308205
1936.52260254,0.17181024
1938.45140991,0.17216593
1940.38021729,0.17249314
1942.30902466,0.16628613
1944.23783203,0.16978967
1946.16663940,0.17163362
1948.09544678,0.17096600
1950.02425415,0.17186263
1951.95306152,0.17118323
1953.88186890,0.17155537
1955.81067627,0.17051308
1957.73948364,0.17111593
1959.66829102,0.17085561
1961.59709839,0.17046082
1963.52590576,0.17110717
1965.45471313,0.16970393
1967.38352051,0.16802877
1969.31232788,0.16943461
1971.24113525,0.17069933
1973.16994263,0.16939008
1975.09875000,0.16995278
1977.02755737,0.16928470
1978.95636475,0.16944070
1980.88517212,0.16940221
1982.81397949,0.16845490
1984.74278687,0.16921175
1986.67159424,0.16765594
1988.60040161,0.16810012
1990.52920898,0.16658397
1992.45801636,0.16440625
1994.38682373,0.16707450
1996.31563110,0.16743432
1998.24443848,0.16663784
2000.17324585,0.16660774
2002.10205322,0.16615945
2004.03086060,0.16596897
2005.95966797,0.16565500
2007.88847534,0.16504586
2009.81728271,0.16494079
2011.74609009,0.16457093
2013.67489746,0.16437472
2015.60370483,0.16359493
2017.53251221,0.16194156
2019.46131958,0.16296953
2021.39012695,0.16296698
2023.31893433,0.16233797
2025.24774170,0.16244155
2027.17654907,0.16167817
2029.10535645,0.16181935
2031.03416382,0.16113177
2032.96297119,0.16098008
2034.89177856,0.16068059
2036.82058594,0.16019788
2038.74939331,0.16019008
2040.67820068,0.15900823
2042.60700806,0.15897891
2044.53581543,0.15901956
2046.46462280,0.15850478
2048.39343018,0.15824179
2050.32223755,0.15799081
2052.25104492,0.15768766
2054.17985229,0.15720043
2056.10865967,0.15699360
2058.03746704,0.15674835
2059.96627441,0.15637550
2061.89508179,0.15604778
2063.82388916,0.15553272
2065.75269653,0.15483746
2067.68150391,0.15511440
2069.61031128,0.15502815
2071.53911865,0.15458201
2073.46792603,0.15449393
2075.39673340,0.15394591
2077.32554077,0.15400761
2079.25434814,0.15358259
2081.18315552,0.15320992
2083.11196289,0.15297143
2085.04077026,0.15260929
2086.96957764,0.15259588
2088.89838501,0.15178174
2090.82719238,0.15153484
2092.75599976,0.15164119
2094.68480713,0.15134759
2096.61361450,0.15088493
2098.54242187,0.15087025
2100.47122925,0.15074322
2102.40003662,0.15013771
2104.32884399,0.15000957
2106.25765137,0.14971709
2108.18645874,0.14967024
2110.11526611,0.14932910
2112.04407349,0.14908314
2113.97288086,0.14881051
2115.90168823,0.14839454
2117.83049561,0.14843805
2119.75930298,0.14800063
2121.68811035,0.14799860
2123.61691772,0.14770797
2125.54572510,0.14754346
2127.47453247,0.14746147
2129.40333984,0.14701959
2131.33214722,0.14695752
2133.26095459,0.14662604
2135.18976196,0.14661986
2137.11856934,0.14630178
2139.04737671,0.14618462
2140.97618408,0.14600885
2142.90499146,0.14564356
2144.83379883,0.14563951
2146.76260620,0.14536551
2148.69141357,0.14540640
2150.62022095,0.14499235
2152.54902832,0.14482594
2154.47783569,0.14470276
2156.40664307,0.14448607
2158.33545044,0.14438805
2160.26425781,0.14390621
2162.19306519,0.14395005
2164.12187256,0.14377823
2166.05067993,0.14364067
2167.97948730,0.14335503
2169.90829468,0.14308396
2171.83710205,0.14299129
2173.76590942,0.14282404
2175.69471680,0.14282009
2177.62352417,0.14243162
2179.55233154,0.14237159
2181.48113892,0.14212385
2183.40994629,0.14201148
2185.33875366,0.14191757
2187.26756104,0.14166006
2189.19636841,0.14159435
2191.12517578,0.14123797
2193.05398315,0.14126071
2194.98279053,0.14090094
2196.91159790,0.14069584
2198.84040527,0.14072353
2200.76921265,0.14057629
2202.69802002,0.14036390
2204.62682739,0.14010173
2206.55563477,0.14017700
2208.48444214,0.13987811
2210.41324951,0.13981816
2212.34205688,0.13943379
2214.27086426,0.13924468
2216.19967163,0.13926777
2218.12847900,0.13880789
2220.05728638,0.13878006
2221.98609375,0.13850614
2223.91490112,0.13847184
2225.84370850,0.13824287
2227.77251587,0.13787529
2229.70132324,0.13765216
2231.63013062,0.13748020
2233.55893799,0.13739511
2235.48774536,0.13700764
2237.41655273,0.13701996
2239.34536011,0.13665496
2241.27416748,0.13654077
2243.20297485,0.13635230
2245.13178223,0.13600653
2247.06058960,0.13599980
2248.98939697,0.13563874
2250.91820435,0.13558832
2252.84701172,0.13518327
2254.77581909,0.13505191
2256.70462646,0.13482755
2258.63343384,0.13463083
2260.56224121,0.13459010
2262.49104858,0.13408992
2264.41985596,0.13420381
2266.34866333,0.13377835
2268.27747070,0.13360545
2270.20627808,0.13356188
2272.13508545,0.13328296
2274.06389282,0.13325760
2275.99270020,0.13288686
2277.92150757,0.13294622
2279.85031494,0.13283044
2281.77912231,0.13268650
2283.70792969,0.13245670
2285.63673706,0.13220608
2287.56554443,0.13197768
2289.49435181,0.13152234
2291.42315918,0.13121498
2293.35196655,0.13073875
2295.28077393,0.13054146
2297.20958130,0.13008450
2299.13838867,0.12961310
2301.06719604,0.12909269
2302.99600342,0.12834480
2304.92481079,0.12770618
2306.85361816,0.12686726
2308.78242554,0.12601647
2310.71123291,0.12474741
2312.64004028,0.12352137
2314.56884766,0.12220490
2316.49765503,0.12088141
2318.42646240,0.11926676
2320.35526978,0.11737303
2322.28407715,0.11565484
2324.21288452,0.11384068
2326.14169189,0.11276260
2328.07049927,0.11129608
2329.99930664,0.10980035
2331.92811401,0.10887139
2333.85692139,0.10841204
2335.78572876,0.10805924
2337.71453613,0.10758673
2339.64334351,0.10774450
2341.57215088,0.10791526
2343.50095825,0.10965431
2345.42976562,0.11186405
2347.35857300,0.11668365
2349.28738037,0.12110826
2351.21618774,0.11659773
2353.14499512,0.11026717
2355.07380249,0.10593794
2357.00260986,0.10241054
2358.93141724,0.10050264
2360.86022461,0.09908281
2362.78903198,0.09911220
2364.71783936,0.09963007
2366.64664673,0.10113605
2368.57545410,0.10332105
2370.50426147,0.10595013
2372.43306885,0.10920318
2374.36187622,0.11229539
2376.29068359,0.11565578
2378.21949097,0.11834751
2380.14829834,0.12049710
2382.07710571,0.12184127
2384.00591309,0.12280354
2385.93472046,0.12335736
2387.86352783,0.12326434
2389.79233521,0.12332597
2391.72114258,0.12317202
2393.64994995,0.12318469
2395.57875732,0.12286463
2397.50756470,0.12266855
2399.43637207,0.12259421
2401.36517944,0.12227649
2403.29398682,0.12215202
2405.22279419,0.12196879
2407.15160156,0.12201314
2409.08040894,0.12171675
2411.00921631,0.12148790
2412.93802368,0.12140724
2414.86683105,0.12122226
2416.79563843,0.12106000
2418.72444580,0.12089454
2420.65325317,0.12082691
2422.58206055,0.12050933
2424.51086792,0.12050700
2426.43967529,0.12023685
2428.36848267,0.11995409
2430.29729004,0.11994749
2432.22609741,0.11969429
2434.15490479,0.11971398
2436.08371216,0.11949568
2438.01251953,0.11928987
2439.94132690,0.11913574
2441.87013428,0.11891264
2443.79894165,0.11889195
2445.72774902,0.11865920
2447.65655640,0.11846231
2449.58536377,0.11845520
2451.51417114,0.11819413
2453.44297852,0.11797231
2455.37178589,0.11798252
2457.30059326,0.11773129
2459.22940063,0.11767114
2461.15820801,0.11750089
2463.08701538,0.11719590
2465.01582275,0.11707813
2466.94463013,0.11687922
2468.87343750,0.11683802
2470.80224487,0.11657454
2472.73105225,0.11642112
2474.65985962,0.11625936
2476.58866699,0.11614761
2478.51747437,0.11608753
2480.44628174,0.11577198
2482.37508911,0.11579299
2484.30389648,0.11559898
2486.23270386,0.11541172
2488.16151123,0.11527288
2490.09031860,0.11512022
2492.01912598,0.11497523
2493.94793335,0.11472727
2495.87674072,0.11473203
2497.80554810,0.11450510
2499.73435547,0.11435816
2501.66316284,0.11417060
2503.59197021,0.11403407
2505.52077759,0.11391759
2507.44958496,0.11373326
2509.37839233,0.11366641
2511.30719971,0.11331294
2513.23600708,0.11331537
2515.16481445,0.11318186
2517.09362183,0.11302895
2519.02242920,0.11291519
2520.95123657,0.11260213
2522.88004395,0.11261547
2524.80885132,0.11239036
2526.73765869,0.11221945
2528.66646606,0.11204834
2530.59527344,0.11196841
2532.52408081,0.11180625
2534.45288818,0.11153597
2536.38169556,0.11156969
2538.31050293,0.11131848
2540.23931030,0.11120992
2542.16811768,0.11112761
2544.09692505,0.11099487
2546.02573242,0.11084873
2547.95453979,0.11061130
2549.88334717,0.11054249
2551.81215454,0.11037074
2553.74096191,0.11015793
2555.66976929,0.10995585
2557.59857666,0.10989801
2559.52738403,0.10969482
2561.45619141,0.10952306
2563.38499878,0.10950069
2565.31380615,0.10930751
2567.24261353,0.10911367
2569.17142090,0.10890363
2571.10022827,0.10882466
2573.02903564,0.10870554
2574.95784302,0.10859068
2576.88665039,0.10835788
2578.81545776,0.10817921
2580.74426514,0.10813056
2582.67307251,0.10788102
2584.60187988,0.10781762
2586.53068726,0.10767534
2588.45949463,0.10745382
2590.38830200,0.10730517
2592.31710937,0.10728207
2594.24591675,0.10710639
2596.17472412,0.10678954
2598.10353149,0.10679778
2600.03233887,0.10674892
2601.96114624,0.10660868
2603.88995361,0.10629180
2605.81876099,0.10615677
2607.74756836,0.10604668
2609.67637573,0.10579971
2611.60518311,0.10572532
2613.53399048,0.10553914
2615.46279785,0.10545447
2617.39160522,0.10531494
2619.32041260,0.10527585
2621.24921997,0.10501126
2623.17802734,0.10473625
2625.10683472,0.10478292
2627.03564209,0.10456774
2628.96444946,0.10443942
2630.89325684,0.10423559
2632.82206421,0.10413748
2634.75087158,0.10397726
2636.67967895,0.10377768
2638.60848633,0.10362979
2640.53729370,0.10343319
2642.46610107,0.10342522
2644.39490845,0.10315100
2646.32371582,0.10319123
2648.25252319,0.10300594
2650.18133057,0.10279500
2652.11013794,0.10274038
2654.03894531,0.10229865
2655.96775269,0.10239138
2657.89656006,0.10222995
2659.82536743,0.10207946
2661.75417480,0.10202999
2663.68298218,0.10179083
2665.61178955,0.10172795
2667.54059692,0.10141324
2669.46940430,0.10135309
2671.39821167,0.10119960
2673.32701904,0.10094101
2675.25582642,0.10087550
2677.18463379,0.10078476
2679.11344116,0.10061964
2681.04224854,0.10047694
2682.97105591,0.10039577
2684.89986328,0.10010482
2686.82867065,0.10001665
2688.75747803,0.09986816
2690.68628540,0.09975127
2692.61509277,0.09967656
2694.54390015,0.09943944
2696.47270752,0.09936531
2698.40151489,0.09915894
2700.33032227,0.09903696
2702.25912964,0.09888665
2704.18793701,0.09878516
2706.11674438,0.09868499
2708.04555176,0.09842161
2709.97435913,0.09835577
2711.90316650,0.09816779
2713.83197388,0.09794553
2715.76078125,0.09786968
2717.68958862,0.09771585
2719.61839600,0.09749302
2721.54720337,0.09742855
2723.47601074,0.09723358
2725.40481812,0.09703588
2727.33362549,0.09702583
2729.26243286,0.09687211
2731.19124023,0.09670287
2733.12004761,0.09643682
2735.04885498,0.09631783
2736.97766235,0.09613986
2738.90646973,0.09602946
2740.83527710,0.09600404
2742.76408447,0.09568286
2744.69289185,0.09560375
2746.62169922,0.09543721
2748.55050659,0.09533782
2750.47931396,0.09520013
2752.40812134,0.09495366
2754.33692871,0.09487598
2756.26573608,0.09466246
2758.19454346,0.09461202
2760.12335083,0.09445946
2762.05215820,0.09436420
2763.98096558,0.09412092
2765.90977295,0.09387419
2767.83858032,0.09395158
2769.76738770,0.09366906
2771.69619507,0.09350698
2773.62500244,0.09334635
2775.55380981,0.09315339
2777.48261719,0.09309721
2779.41142456,0.09283333
2781.34023193,0.09261619
2783.26903931,0.09248392
2785.19784668,0.09236314
2787.12665405,0.09221770
2789.05546143,0.09204832
2790.98426880,0.09185081
2792.91307617,0.09172720
2794.84188354,0.09155157
2796.77069092,0.09137127
2798.69949829,0.09126157
2800.62830566,0.09109219
2802.55711304,0.09093336
2804.48592041,0.09070358
2806.41472778,0.09051277
2808.34353516,0.09025353
2810.27234253,0.09016205
2812.20114990,0.09005687
2814.12995728,0.08982476
2816.05876465,0.08979858
2817.98757202,0.08953132
2819.91637939,0.08931202
2821.84518677,0.08913414
2823.77399414,0.08900437
2825.70280151,0.08894579
2827.63160889,0.08870193
2829.56041626,0.08850446
2831.48922363,0.08828768
2833.41803101,0.08813898
2835.34683838,0.08784898
2837.27564575,0.08763596
2839.20445312,0.08750966
2841.13326050,0.08727036
2843.06206787,0.08700881
2844.99087524,0.08652563
2846.91968262,0.08599909
2848.84848999,0.08550040
2850.77729736,0.08535339
2852.70610474,0.08524202
2854.63491211,0.08519936
2856.56371948,0.08517747
2858.49252686,0.08485311
2860.42133423,0.08488213
2862.35014160,0.08473305
2864.27894897,0.08456455
2866.20775635,0.08454084
2868.13656372,0.08435185
2870.06537109,0.08422652
2871.99417847,0.08404581
2873.92298584,0.08397207
2875.85179321,0.08378029
2877.78060059,0.08366311
2879.70940796,0.08358531
2881.63821533,0.08351003
2883.56702270,0.08342933
2885.49583008,0.08314152
2887.42463745,0.08307505
2889.35344482,0.08289134
2891.28225220,0.08263838
2893.21105957,0.08247554
2895.13986694,0.08229762
2897.06867432,0.08207460
2898.99748169,0.08185959
2900.92628906,0.08171232
2902.85509644,0.08144935
2904.78390381,0.08135192
2906.71271118,0.08107387
2908.64151855,0.08080480
2910.57032593,0.08058460
2912.49913330,0.08002091
2914.42794067,0.07964374
2916.35674805,0.07933365
2918.28555542,0.07908329
2920.21436279,0.07901485
2922.14317017,0.07887687
2924.07197754,0.07865863
2926.00078491,0.07858707
2927.92959229,0.07853112
2929.85839966,0.07844733
2931.78720703,0.07835232
2933.71601440,0.07824047
2935.64482178,0.07841508
2937.57362915,0.07829806
2939.50243652,0.07818966
2941.43124390,0.07830624
2943.36005127,0.07825328
2945.28885864,0.07819968
2947.21766602,0.07793426
2949.14647339,0.07787068
2951.07528076,0.07778908
2953.00408813,0.07755819
2954.93289551,0.07737385
2956.86170288,0.07707171
2958.79051025,0.07686982
2960.71931763,0.07669841
2962.64812500,0.07654975
2964.57693237,0.07631133
2966.50573975,0.07629000
2968.43454712,0.07626286
2970.36335449,0.07624307
2972.29216187,0.07642658
2974.22096924,0.07634296
2976.14977661,0.07643337
2978.07858398,0.07637703
2980.00739136,0.07632759
2981.93619873,0.07647394
2983.86500610,0.07636829
2985.79381348,0.07629498
2987.72262085,0.07616243
2989.65142822,0.07612411
2991.58023560,0.07604308
2993.50904297,0.07582524
2995.43785034,0.07564786
2997.36665771,0.07562417
2999.29546509,0.07560510
3001.22427246,0.07540313
3003.15307983,0.07532562
3005.08188721,0.07508763
3007.01069458,0.07496899
3008.93950195,0.07490431
3010.86830933,0.07447611
3012.79711670,0.07430089
3014.72592407,0.07431137
3016.65473145,0.07413176
3018.58353882,0.07400608
3020.51234619,0.07403335
3022.44115356,0.07386298
3024.36996094,0.07357267
3026.29876831,0.07347322
3028.22757568,0.07343584
3030.15638306,0.07307610
3032.08519043,0.07278761
3034.01399780,0.07282863
3035.94280518,0.07266627
3037.87161255,0.07263020
3039.80041992,0.07258588
3041.72922729,0.07230520
3043.65803467,0.07213520
3045.58684204,0.07211725
3047.51564941,0.07190290
3049.44445679,0.07151525
3051.37326416,0.07156901
3053.30207153,0.07142025
3055.23087891,0.07112569
3057.15968628,0.07106560
3059.08849365,0.07097498
3061.01730103,0.07089221
3062.94610840,0.07062709
3064.87491577,0.07052185
3066.80372314,0.07038319
3068.73253052,0.07027909
3070.66133789,0.07023804
3072.59014526,0.07011995
3074.51895264,0.07005194
3076.44776001,0.06971623
3078.37656738,0.06957291
3080.30537476,0.06940719
3082.23418213,0.06930923
3084.16298950,0.06932147
3086.09179687,0.06912072
3088.02060425,0.06914715
3089.94941162,0.06897408
3091.87821899,0.06876516
3093.80702637,0.06861079
3095.73583374,0.06837073
3097.66464111,0.06831166
3099.59344849,0.06814855
3101.52225586,0.06789991
3103.45106323,0.06778498
3105.37987061,0.06771839
3107.30867798,0.06754199
3109.23748535,0.06742523
3111.16629272,0.06723211
3113.09510010,0.06696934
3115.02390747,0.06684478
3116.95271484,0.06664985
3118.88152222,0.06637582
3120.81032959,0.06626420
3122.73913696,0.06628609
3124.66794434,0.06609348
3126.59675171,0.06587423
3128.52555908,0.06577862
3130.45436645,0.06572591
3132.38317383,0.06544986
3134.31198120,0.06519889
3136.24078857,0.06520884
3138.16959595,0.06492150
3140.09840332,0.06473128
3142.02721069,0.06465206
3143.95601807,0.06456631
3145.88482544,0.06437603
3147.81363281,0.06414549
3149.74244019,0.06404397
3151.67124756,0.06358633
3153.60005493,0.06349064
3155.52886230,0.06344463
3157.45766968,0.06323990
3159.38647705,0.06321672
3161.31528442,0.06295875
3163.24409180,0.06277153
3165.17289917,0.06260285
3167.10170654,0.06248640
3169.03051392,0.06227792
3170.95932129,0.06212496
3172.88812866,0.06191342
3174.81693604,0.06165189
3176.74574341,0.06157551
3178.67455078,0.06130750
3180.60335815,0.06139189
3182.53216553,0.06128415
3184.46097290,0.06097888
3186.38978027,0.06082182
3188.31858765,0.06061568
3190.24739502,0.06059498
3192.17620239,0.06038286
3194.10500977,0.06026346
3196.03381714,0.06001920
3197.96262451,0.05982281
3199.89143188,0.05984731
3201.82023926,0.05969606
3203.74904663,0.05946039
3205.67785400,0.05928282
3207.60666138,0.05928964
3209.53546875,0.05901954
3211.46427612,0.05893933
3213.39308350,0.05884619
3215.32189087,0.05873306
3217.25069824,0.05876688
3219.17950562,0.05847224
3221.10831299,0.05845843
3223.03712036,0.05837256
3224.96592773,0.05833933
3226.89473511,0.05823144
3228.82354248,0.05795933
3230.75234985,0.05790101
3232.68115723,0.05775234
3234.60996460,0.05771466
3236.53877197,0.05762344
3238.46757935,0.05756986
3240.39638672,0.05736436
3242.32519409,0.05739795
3244.25400146,0.05729244
3246.18280884,0.05691559
3248.11161621,0.05718323
3250.04042358,0.05704127
3251.96923096,0.05692527
3253.89803833,0.05696554
3255.82684570,0.05675248
3257.75565308,0.05663844
3259.68446045,0.05657551
3261.61326782,0.05663291
3263.54207520,0.05639753
3265.47088257,0.05641104
3267.39968994,0.05647821
3269.32849731,0.05630087
3271.25730469,0.05614350
3273.18611206,0.05607034
3275.11491943,0.05607218
3277.04372681,0.05591447
3278.97253418,0.05592038
3280.90134155,0.05579880
3282.83014893,0.05582242
3284.75895630,0.05579132
3286.68776367,0.05559777
3288.61657104,0.05557901
3290.54537842,0.05536879
3292.47418579,0.05531671
3294.40299316,0.05529473
3296.33180054,0.05528725
3298.26060791,0.05514666
3300.18941528,0.05511991
3302.11822266,0.05503828
3304.04703003,0.05478782
3305.97583740,0.05490997
3307.90464478,0.05468983
3309.83345215,0.05463536
3311.76225952,0.05468435
3313.69106689,0.05454797
3315.61987427,0.05448125
3317.54868164,0.05440057
3319.47748901,0.05442670
3321.40629639,0.05428594
3323.33510376,0.05421799
3325.26391113,0.05399948
3327.19271851,0.05396085
3329.12152588,0.05396730
3331.05033325,0.05386332
3332.97914062,0.05385685
3334.90794800,0.05365664
3336.83675537,0.05363144
3338.76556274,0.05340825
3340.69437012,0.05341887
3342.62317749,0.05339222
3344.55198486,0.05327634
3346.48079224,0.05329212
3348.40959961,0.05294947
3350.33840698,0.05293948
3352.26721436,0.05287609
3354.19602173,0.05285798
3356.12482910,0.05270857
3358.05363647,0.05256392
3359.98244385,0.05261642
3361.91125122,0.05239573
3363.84005859,0.05230399
3365.76886597,0.05202922
3367.69767334,0.05197411
3369.62648071,0.05196586
3371.55528809,0.05198446
3373.48409546,0.05201266
3375.41290283,0.05188737
3377.34171020,0.05174079
3379.27051758,0.05151973
3381.19932495,0.05173502
3383.12813232,0.05146590
3385.05693970,0.05130674
3386.98574707,0.05125591
3388.91455444,0.05106163
3390.84336182,0.05095638
3392.77216919,0.05056723
3394.70097656,0.05085338
3396.62978394,0.05063181
3398.55859131,0.05039189
3400.48739868,0.05040681
3402.41620605,0.05021209
3404.34501343,0.05033832
3406.27382080,0.05015730
3408.20262817,0.05019332
3410.13143555,0.05001725
3412.06024292,0.04993550
3413.98905029,0.04981492
3415.91785767,0.04979250
3417.84666504,0.04987090
3419.77547241,0.04928754
3421.70427979,0.04922792
3423.63308716,0.04929164
3425.56189453,0.04940068
3427.49070190,0.04922667
3429.41950928,0.04920316
3431.34831665,0.04917921
3433.27712402,0.04878913
3435.20593140,0.04889317
3437.13473877,0.04855035
3439.06354614,0.04871737
3440.99235352,0.04844328
3442.92116089,0.04818288
3444.84996826,0.04846013
3446.77877563,0.04765615
3448.70758301,0.04784180
3450.63639038,0.04827850
3452.56519775,0.04818317
3454.49400513,0.04814299
3456.42281250,0.04799254
3458.35161987,0.04795212
3460.28042725,0.04779100
3462.20923462,0.04758038
3464.13804199,0.04756199
3466.06684937,0.04767875
3467.99565674,0.04737619
3469.92446411,0.04751305
3471.85327148,0.04752150
3473.78207886,0.04722081
3475.71088623,0.04718803
3477.63969360,0.04724824
3479.56850098,0.04730231
3481.49730835,0.04657894
3483.42611572,0.04679031
3485.35492310,0.04716590
3487.28373047,0.04686180
3489.21253784,0.04685255
3491.14134521,0.04696051
3493.07015259,0.04713800
3494.99895996,0.04667881
3496.92776733,0.04666077
3498.85657471,0.04687886
3500.78538208,0.04673511
3502.71418945,0.04588296
3504.64299683,0.04591567
3506.57180420,0.04700822
3508.50061157,0.04625068
3510.42941895,0.04610718
3512.35822632,0.04650916
3514.28703369,0.04661225
3516.21584106,0.04666940
3518.14464844,0.04632397
3520.07345581,0.04671623
3522.00226318,0.04621091
3523.93107056,0.04550125
3525.85987793,0.04555808
3527.78868530,0.04566940
3529.71749268,0.04565475
3531.64630005,0.04606038
3533.57510742,0.04653732
3535.50391479,0.04592564
3537.43272217,0.04577630
3539.36152954,0.04621813
3541.29033691,0.04636160
3543.21914429,0.04592346
3545.14795166,0.04481365
3547.07675903,0.04413497
3549.00556641,0.04560898
3550.93437378,0.04607523
3552.86318115,0.04482525
3554.79198853,0.04577317
3556.72079590,0.04592190
3558.64960327,0.04571995
3560.57841064,0.04545110
3562.50721802,0.04512487
3564.43602539,0.04554711
3566.36483276,0.04235236
3568.29364014,0.04128603
3570.22244751,0.04467490
3572.15125488,0.04586977
3574.08006226,0.04535712
3576.00886963,0.04551934
3577.93767700,0.04543747
3579.86648437,0.04526154
3581.79529175,0.04530515
3583.72409912,0.04548194
3585.65290649,0.04452761
3587.58171387,0.04075351
3589.51052124,0.04193458
3591.43932861,0.04570062
3593.36813599,0.04437145
3595.29694336,0.04363583
3597.22575073,0.04434361
3599.15455811,0.04470609
3601.08336548,0.04434816
3603.01217285,0.04476011
3604.94098022,0.04557668
3606.86978760,0.04396217
3608.79859497,0.04118289
3610.72740234,0.04202438
3612.65620972,0.04320958
3614.58501709,0.04188583
3616.51382446,0.04494850
3618.44263184,0.04152758
3620.37143921,0.04001432
3622.30024658,0.04534802
3624.22905395,0.04402754
3626.15786133,0.04618979
3628.08666870,0.03896797
3630.01547607,0.03520276
3631.94428345,0.04474949
3633.87309082,0.04364943
3635.80189819,0.04433903
3637.73070557,0.04523423
3639.65951294,0.04453416
3641.58832031,0.04493687
3643.51712769,0.04426568
3645.44593506,0.04469403
3647.37474243,0.04001876
3649.30354980,0.03664356
3651.23235718,0.03696508
3653.16116455,0.04422519
3655.08997192,0.04384863
3657.01877930,0.03906969
3658.94758667,0.04520220
3660.87639404,0.04414429
3662.80520142,0.04469372
3664.73400879,0.04459807
3666.66281616,0.04406103
3668.59162354,0.04288159
3670.52043091,0.03477196
3672.44923828,0.04217253
3674.37804565,0.04022314
3676.30685303,0.03313924
3678.23566040,0.04189982
3680.16446777,0.04294178
3682.09327515,0.04301079
3684.02208252,0.04420798
3685.95088989,0.04355101
3687.87969727,0.03920882
3689.80850464,0.03569800
3691.73731201,0.04085764
3693.66611938,0.04217297
3695.59492676,0.04323357
3697.52373413,0.04326536
3699.45254150,0.04270217
3701.38134888,0.04156758
3703.31015625,0.04002776
3705.23896362,0.04408237
3707.16777100,0.04186293
3709.09657837,0.04086768
3711.02538574,0.03837578
3712.95419312,0.03586818
3714.88300049,0.04237278
3716.81180786,0.04172717
3718.74061523,0.04207579
3720.66942261,0.04119830
3722.59822998,0.03964899
3724.52703735,0.04114681
3726.45584473,0.03797857
3728.38465210,0.04135270
3730.31345947,0.04096704
3732.24226685,0.03749807
3734.17107422,0.03663909
3736.09988159,0.03464346
3738.02868896,0.03674335
3739.95749634,0.03991786
3741.88630371,0.04188903
3743.81511108,0.03245863
3745.74391846,0.03039865
3747.67272583,0.03974739
3749.60153320,0.03414353
3751.53034058,0.03129997
3753.45914795,0.03618758
3755.38795532,0.03905301
3757.31676270,0.04052917
3759.24557007,0.03741212
3761.17437744,0.03874587
3763.10318481,0.04121292
3765.03199219,0.03854702
3766.96079956,0.03932685
3768.88960693,0.03887893
3770.81841431,0.03703888
3772.74722168,0.04006982
3774.67602905,0.04026084
3776.60483643,0.04026126
3778.53364380,0.03913239
3780.46245117,0.03748708
3782.39125854,0.04010294
3784.32006592,0.03919499
3786.24887329,0.03883156
3788.17768066,0.03987415
3790.10648804,0.03963020
3792.03529541,0.03926723
3793.96410278,0.03993762
3795.89291016,0.03749406
3797.82171753,0.03688468
3799.75052490,0.03901827
3801.67933228,0.03088437
3803.60813965,0.03601719
3805.53694702,0.03928955
3807.46575439,0.03193958
3809.39456177,0.03893998
3811.32336914,0.03819548
3813.25217651,0.03935767
3815.18098389,0.03566703
3817.10979126,0.03108012
3819.03859863,0.03939945
3820.96740601,0.03172127
3822.89621338,0.03332338
3824.82502075,0.03919840
3826.75382812,0.03534936
3828.68263550,0.03811856
3830.61144287,0.03661909
3832.54025024,0.03541170
3834.46905762,0.03606645
3836.39786499,0.03428550
3838.32667236,0.03099945
3840.25547974,0.03345893
3842.18428711,0.03621082
3844.11309448,0.03441440
3846.04190186,0.03736755
3847.97070923,0.03687298
3849.89951660,0.03686558
3851.82832397,0.03311786
3853.75713135,0.02451761
3855.68593872,0.02927334
3857.61474609,0.03680991
3859.54355347,0.03577783
3861.47236084,0.03549331
3863.40116821,0.03470517
3865.32997559,0.03219111
3867.25878296,0.03606154
3869.18759033,0.03294965
3871.11639770,0.03038245
3873.04520508,0.03614542
3874.97401245,0.03313871
3876.90281982,0.03579518
3878.83162720,0.03656392
3880.76043457,0.03119360
3882.68924194,0.03592746
3884.61804932,0.03374775
3886.54685669,0.03085058
3888.47566406,0.03600876
3890.40447144,0.03421768
3892.33327881,0.03197376
3894.26208618,0.03512974
3896.19089355,0.03587075
3898.11970093,0.03400579
3900.04850830,0.03215188
3901.97731567,0.03175790
3903.90612305,0.03148716
3905.83493042,0.03195171
3907.76373779,0.03499407
3909.69254517,0.03504805
3911.62135254,0.03463894
3913.55015991,0.03526302
3915.47896728,0.03412527
3917.40777466,0.03316500
3919.33658203,0.03279159
3921.26538940,0.03419492
3923.19419678,0.03403318
3925.12300415,0.03322508
3927.05181152,0.03384737
3928.98061890,0.03407909
3930.90942627,0.03346594
3932.83823364,0.03227684
3934.76704102,0.03364443
3936.69584839,0.03405753
3938.62465576,0.03367245
3940.55346313,0.03397545
3942.48227051,0.03268381
3944.41107788,0.03298867
3946.33988525,0.03349829
3948.26869263,0.03278675
3950.19750000,0.03280041
3952.12630737,0.03328955
3954.05511475,0.03326590
3955.98392212,0.03322269
3957.91272949,0.03323963
3959.84153687,0.03294658
3961.77034424,0.03285474
3963.69915161,0.03276961
3965.62795898,0.03300010
3967.55676636,0.03281077
3969.48557373,0.03271912
3971.41438110,0.03270730
3973.34318848,0.03250114
3975.27199585,0.03252181
3977.20080322,0.03232257
3979.12961060,0.03256244
3981.05841797,0.03238104
3982.98722534,0.03230789
3984.91603271,0.03223484
3986.84484009,0.03215596
3988.77364746,0.03224233
3990.70245483,0.03183490
3992.63126221,0.03205223
3994.56006958,0.03184389
3996.48887695,0.03178664
3998.41768433,0.03181639
4000.34649170,0.03168139
4002.27529907,0.03174525
4004.20410645,0.03148736
4006.13291382,0.03167874
4008.06172119,0.03139238
4009.99052856,0.03136905
4011.91933594,0.03139324
4013.84814331,0.03122889
4015.77695068,0.03137368
4017.70575806,0.03112866
4019.63456543,0.03108328
4021.56337280,0.03097328
4023.49218018,0.03102526
4025.42098755,0.03087906
4027.34979492,0.03081550
4029.27860229,0.03083645
4031.20740967,0.03066481
4033.13621704,0.03070061
4035.06502441,0.03049722
4036.99383179,0.03058448
4038.92263916,0.03047067
4040.85144653,0.03051352
4042.78025391,0.03038981
4044.70906128,0.03004474
4046.63786865,0.03017171
4048.56667603,0.03002911
4050.49548340,0.03009405
4052.42429077,0.03001254
4054.35309814,0.02992607
4056.28190552,0.02989370
4058.21071289,0.02987095
4060.13952026,0.02975789
4062.06832764,0.02959372
4063.99713501,0.02978637
4065.92594238,0.02957000
4067.85474976,0.02953024
4069.78355713,0.02939284
4071.71236450,0.02931672
4073.64117187,0.02934090
4075.56997925,0.02918089
4077.49878662,0.02921462
4079.42759399,0.02906285
4081.35640137,0.02915754
4083.28520874,0.02893311
4085.21401611,0.02890646
4087.14282349,0.02892435
4089.07163086,0.02872133
4091.00043823,0.02883022
4092.92924561,0.02869996
4094.85805298,0.02878703
4096.78686035,0.02861719
4098.71566772,0.02858219
4100.64447510,0.02855053
4102.57328247,0.02835292
4104.50208984,0.02833254
4106.43089722,0.02815120
4108.35970459,0.02821455
4110.28851196,0.02804594
4112.21731934,0.02810699
4114.14612671,0.02809692
4116.07493408,0.02796513
4118.00374145,0.02795553
4119.93254883,0.02779563
4121.86135620,0.02787191
4123.79016357,0.02766601
4125.71897095,0.02766832
4127.64777832,0.02767408
4129.57658569,0.02760251
4131.50539307,0.02754305
4133.43420044,0.02745050
4135.36300781,0.02748638
4137.29181519,0.02726025
4139.22062256,0.02729089
4141.14942993,0.02719756
4143.07823730,0.02713755
4145.00704468,0.02711185
4146.93585205,0.02707183
4148.86465942,0.02703238
4150.79346680,0.02685275
4152.72227417,0.02700005
4154.65108154,0.02682292
4156.57988892,0.02678364
4158.50869629,0.02670276
4160.43750366,0.02654830
4162.36631103,0.02658984
4164.29511841,0.02649590
4166.22392578,0.02643972
4168.15273315,0.02627562
4170.08154053,0.02644330
4172.01034790,0.02627010
4173.93915527,0.02622063
4175.86796265,0.02627517
4177.79677002,0.02606185
4179.72557739,0.02616624
4181.65438477,0.02597056
4183.58319214,0.02603702
4185.51199951,0.02594144
4187.44080688,0.02583850
4189.36961426,0.02582776
4191.29842163,0.02565090
4193.22722900,0.02572818
4195.15603638,0.02553805
4197.08484375,0.02558358
4199.01365112,0.02548641
4200.94245850,0.02539270
4202.87126587,0.02542818
4204.80007324,0.02532636
4206.72888062,0.02530056
4208.65768799,0.02518985
4210.58649536,0.02528924
4212.51530273,0.02517197
4214.44411011,0.02512402
4216.37291748,0.02500593
4218.30172485,0.02489826
4220.23053223,0.02491483
4222.15933960,0.02474592
4224.08814697,0.02480336
4226.01695435,0.02469207
4227.94576172,0.02471819
4229.87456909,0.02460133
4231.80337646,0.02445138
4233.73218384,0.02451039
4235.66099121,0.02440650
4237.58979858,0.02441369
4239.51860596,0.02435051
4241.44741333,0.02432939
4243.37622070,0.02418263
4245.30502808,0.02413818
4247.23383545,0.02408615
4249.16264282,0.02404152
4251.09145020,0.02406240
4253.02025757,0.02394364
4254.94906494,0.02402804
4256.87787231,0.02388545
4258.80667969,0.02386272
4260.73548706,0.02379603
4262.66429443,0.02374655
4264.59310181,0.02372468
4266.52190918,0.02355579
4268.45071655,0.02362785
4270.37952393,0.02343976
4272.30833130,0.02348065
4274.23713867,0.02337636
4276.16594604,0.02328529
4278.09475342,0.02337754
4280.02356079,0.02323259
4281.95236816,0.02327445
4283.88117554,0.02309881
4285.80998291,0.02309814
4287.73879028,0.02304486
4289.66759766,0.02301461
4291.59640503,0.02298635
4293.52521240,0.02285730
4295.45401978,0.02297674
4297.38282715,0.02276886
4299.31163452,0.02273828
4301.24044189,0.02269221
4303.16924927,0.02267951
4305.09805664,0.02263721
4307.02686401,0.02246527
4308.95567139,0.02255614
4310.88447876,0.02244266
4312.81328613,0.02244205
4314.74209351,0.02232867
4316.67090088,0.02228457
4318.59970825,0.02229262
4320.52851562,0.02215623
4322.45732300,0.02220895
4324.38613037,0.02211008
4326.31493774,0.02202622
4328.24374512,0.02197444
4330.17255249,0.02193130
4332.10135986,0.02188599
4334.03016724,0.02197965
4335.95897461,0.02186674
4337.88778198,0.02166751
4339.81658936,0.02181938
4341.74539673,0.02171939
4343.67420410,0.02162686
4345.60301147,0.02158003
4347.53181885,0.02154427
4349.46062622,0.02149180
4351.38943359,0.02143581
4353.31824097,0.02136500
4355.24704834,0.02126770
4357.17585571,0.02137931
4359.10466309,0.02117273
4361.03347046,0.02116364
4362.96227783,0.02119919
4364.89108520,0.02106017
4366.81989258,0.02110867
4368.74869995,0.02098506
4370.67750732,0.02094703
4372.60631470,0.02087786
4374.53512207,0.02083224
4376.46392944,0.02085304
4378.39273682,0.02082094
4380.32154419,0.02073955
4382.25035156,0.02074912
4384.17915894,0.02067370
4386.10796631,0.02053404
4388.03677368,0.02064553
4389.96558105,0.02041489
4391.89438843,0.02043126
4393.82319580,0.02041462
4395.75200317,0.02022796
4397.68081055,0.02039254
4399.60961792,0.02026948
4401.53842529,0.02023252
4403.46723267,0.02010335
4405.39604004,0.02005916
4407.32484741,0.02013141
4409.25365478,0.02002750
4411.18246216,0.01997025
4413.11126953,0.01987425
4415.04007690,0.01989936
4416.96888428,0.01979880
4418.89769165,0.01980952
4420.82649902,0.01976084
4422.75530640,0.01969087
4424.68411377,0.01967112
4426.61292114,0.01955855
4428.54172852,0.01962768
4430.47053589,0.01951175
4432.39934326,0.01946603
4434.32815063,0.01939641
4436.25695801,0.01937399
4438.18576538,0.01929887
4440.11457275,0.01918900
4442.04338013,0.01930239
4443.97218750,0.01918453
4445.90099487,0.01921605
4447.82980225,0.01913820
4449.75860962,0.01910137
4451.68741699,0.01909554
4453.61622437,0.01894965
4455.54503174,0.01892842
4457.47383911,0.01883267
4459.40264648,0.01892325
4461.33145386,0.01881987
4463.26026123,0.01874917
4465.18906860,0.01867135
4467.11787598,0.01868121
4469.04668335,0.01878005
4470.97549072,0.01851155
4472.90429810,0.01856557
4474.83310547,0.01845693
4476.76191284,0.01838103
4478.69072021,0.01845918
4480.61952759,0.01836171
4482.54833496,0.01837328
4484.47714233,0.01829846
4486.40594971,0.01829022
4488.33475708,0.01816107
4490.26356445,0.01811606
4492.19237183,0.01807993
4494.12117920,0.01804360
4496.04998657,0.01808538
4497.97879395,0.01800138
4499.90760132,0.01796916
4501.83640869,0.01785431
4503.76521606,0.01793917
4505.69402344,0.01785116
4507.62283081,0.01772742
4509.55163818,0.01777815
4511.48044556,0.01764199
4513.40925293,0.01761301
4515.33806030,0.01752122
4517.26686768,0.01759382
4519.19567505,0.01758495
4521.12448242,0.01742002
4523.05328979,0.01746901
4524.98209717,0.01738520
4526.91090454,0.01736099
4528.83971191,0.01736455
4530.76851929,0.01721358
4532.69732666,0.01722027
4534.62613403,0.01722763
4536.55494141,0.01710108
4538.48374878,0.01711020
4540.41255615,0.01703364
4542.34136353,0.01704432
4544.27017090,0.01706104
4546.19897827,0.01690193
4548.12778564,0.01694174
4550.05659302,0.01687459
4551.98540039,0.01684903
4553.91420776,0.01682036
4555.84301514,0.01674834
4557.77182251,0.01671137
4559.70062988,0.01665554
4561.62943726,0.01669567
4563.55824463,0.01652970
4565.48705200,0.01657358
4567.41585937,0.01656485
4569.34466675,0.01643946
4571.27347412,0.01650811
4573.20228149,0.01642357
4575.13108887,0.01633106
4577.05989624,0.01629848
4578.98870361,0.01639575
4580.91751099,0.01624640
4582.84631836,0.01611833
4584.77512573,0.01617375
4586.70393311,0.01613716
4588.63274048,0.01615621
4590.56154785,0.01602303
4592.49035522,0.01599630
4594.41916260,0.01595566
4596.34796997,0.01590127
4598.27677734,0.01581625
4600.20558472,0.01578204
4602.13439209,0.01587519
4604.06319946,0.01573239
4605.99200684,0.01574063
4607.92081421,0.01573340
4609.84962158,0.01567129
4611.77842895,0.01558332
4613.70723633,0.01561821
4615.63604370,0.01562141
4617.56485107,0.01538195
4619.49365845,0.01553244
4621.42246582,0.01549560
4623.35127319,0.01537444
4625.28008057,0.01533547
4627.20888794,0.01524339
4629.13769531,0.01530492
4631.06650269,0.01522632
4632.99531006,0.01525980
4634.92411743,0.01513258
4636.85292480,0.01504727
4638.78173218,0.01517309
4640.71053955,0.01510608
4642.63934692,0.01501588
4644.56815430,0.01493682
4646.49696167,0.01497380
4648.42576904,0.01501687
4650.35457642,0.01490471
4652.28338379,0.01481191
4654.21219116,0.01487465
4656.14099853,0.01478518
4658.06980591,0.01470160
4659.99861328,0.01474111
4661.92742065,0.01464750
4663.85622803,0.01461149
4665.78503540,0.01458999
4667.71384277,0.01465188
4669.64265015,0.01457199
4671.57145752,0.01447813
4673.50026489,0.01449111
4675.42907227,0.01444099
4677.35787964,0.01447908
4679.28668701,0.01436040
4681.21549438,0.01437705
4683.14430176,0.01435880
4685.07310913,0.01424243
4687.00191650,0.01425166
4688.93072388,0.01417205
4690.85953125,0.01417805
4692.78833862,0.01416627
4694.71714600,0.01409474
4696.64595337,0.01396398
4698.57476074,0.01402066
4700.50356812,0.01404651
4702.43237549,0.01394676
4704.36118286,0.01403079
4706.28999023,0.01391008
4708.21879761,0.01381951
4710.14760498,0.01386884
4712.07641235,0.01388049
4714.00521973,0.01375549
4715.93402710,0.01369882
4717.86283447,0.01378523
4719.79164185,0.01369702
4721.72044922,0.01366237
4723.64925659,0.01356055
4725.57806396,0.01350516
4727.50687134,0.01351272
4729.43567871,0.01348842
4731.36448608,0.01356808
4733.29329346,0.01351578
4735.22210083,0.01339814
4737.15090820,0.01337770
4739.07971558,0.01337979
4741.00852295,0.01327535
4742.93733032,0.01331754
4744.86613770,0.01326463
4746.79494507,0.01317404
4748.72375244,0.01325233
4750.65255981,0.01312643
4752.58136719,0.01313930
4754.51017456,0.01311644
4756.43898193,0.01309904
4758.36778931,0.01310794
4760.29659668,0.01298354
4762.22540405,0.01303576
4764.15421143,0.01294351
4766.08301880,0.01286586
4768.01182617,0.01289274
4769.94063354,0.01286241
4771.86944092,0.01283589
4773.79824829,0.01285096
4775.72705566,0.01281924
4777.65586304,0.01273286
4779.58467041,0.01276095
4781.51347778,0.01266241
4783.44228516,0.01262861
4785.37109253,0.01260993
4787.29989990,0.01255456
4789.22870728,0.01262048
4791.15751465,0.01254367
4793.08632202,0.01251382
4795.01512939,0.01253999
4796.94393677,0.01249447
4798.87274414,0.01244095
4800.80155151,0.01238901
4802.73035889,0.01232223
4804.65916626,0.01230581
4806.58797363,0.01232217
4808.51678101,0.01236042
4810.44558838,0.01233078
4812.37439575,0.01217161
4814.30320312,0.01224071
4816.23201050,0.01223198
4818.16081787,0.01211684
4820.08962524,0.01207704
4822.01843262,0.01197590
4823.94723999,0.01196880
4825.87604736,0.01194966
4827.80485474,0.01194863
4829.73366211,0.01192962
4831.66246948,0.01198477
4833.59127686,0.01191458
4835.52008423,0.01184213
4837.44889160,0.01195073
4839.37769897,0.01178833
4841.30650635,0.01178147
4843.23531372,0.01173525
4845.16412109,0.01166729
4847.09292847,0.01172773
4849.02173584,0.01158632
4850.95054321,0.01164518
4852.87935059,0.01159079
4854.80815796,0.01149196
4856.73696533,0.01157793
4858.66577270,0.01153657
4860.59458008,0.01150135
4862.52338745,0.01146731
4864.45219482,0.01142558
4866.38100220,0.01145795
4868.30980957,0.01141479
4870.23861694,0.01133443
4872.16742432,0.01136232
4874.09623169,0.01131423
4876.02503906,0.01129035
4877.95384644,0.01124719
4879.88265381,0.01114902
4881.81146118,0.01115035
4883.74026855,0.01116149
4885.66907593,0.01115176
4887.59788330,0.01103407
4889.52669067,0.01106910
4891.45549805,0.01108153
4893.38430542,0.01103345
4895.31311279,0.01107577
4897.24192017,0.01099857
4899.17072754,0.01095619
4901.09953491,0.01084002
4903.02834228,0.01087841
4904.95714966,0.01093058
4906.88595703,0.01084910
4908.81476440,0.01082477
4910.74357178,0.01070529
4912.67237915,0.01070479
4914.60118652,0.01072026
4916.52999390,0.01071350
4918.45880127,0.01064475
4920.38760864,0.01062477
4922.31641602,0.01062456
4924.24522339,0.01058378
4926.17403076,0.01065818
4928.10283813,0.01051558
4930.03164551,0.01052960
4931.96045288,0.01057991
4933.88926025,0.01045389
4935.81806763,0.01040843
4937.74687500,0.01038432
4939.67568237,0.01040386
4941.60448975,0.01025617
4943.53329712,0.01022489
4945.46210449,0.01029202
4947.39091187,0.01032210
4949.31971924,0.01029499
4951.24852661,0.01019903
4953.17733398,0.01024942
4955.10614136,0.01018838
4957.03494873,0.01009760
4958.96375610,0.01005441
4960.89256348,0.01011042
4962.82137085,0.01010201
4964.75017822,0.01000750
4966.67898560,0.01003275
4968.60779297,0.00993090
4970.53660034,0.00999242
4972.46540771,0.01001802
4974.39421509,0.00982982
4976.32302246,0.00989169
4978.25182983,0.00994188
4980.18063721,0.00980676
4982.10944458,0.00985849
4984.03825195,0.00984612
4985.96705933,0.00969077
4987.89586670,0.00976949
4989.82467407,0.00972163
4991.75348145,0.00968443
4993.68228882,0.00965559
4995.61109619,0.00955523
4997.53990356,0.00966727
4999.46871094,0.00962969
5001.39751831,0.00957269
5003.32632568,0.00954672
5005.25513306,0.00952524
5007.18394043,0.00950994
5009.11274780,0.00946853
5011.04155518,0.00950836
5012.97036255,0.00943682
5014.89916992,0.00942909
5016.82797729,0.00943141
5018.75678467,0.00937624
5020.68559204,0.00937338
5022.61439941,0.00937248
5024.54320679,0.00931039
5026.47201416,0.00922619
5028.40082153,0.00920397
5030.32962891,0.00919744
5032.25843628,0.00926336
5034.18724365,0.00920263
5036.11605103,0.00914162
5038.04485840,0.00909777
5039.97366577,0.00909322
5041.90247314,0.00915497
5043.83128052,0.00902173
5045.76008789,0.00905669
5047.68889526,0.00903298
5049.61770264,0.00898363
5051.54651001,0.00899949
5053.47531738,0.00888841
5055.40412476,0.00894087
5057.33293213,0.00890835
5059.26173950,0.00884725
5061.19054687,0.00879015
5063.11935425,0.00879113
5065.04816162,0.00886415
5066.97696899,0.00877960
5068.90577637,0.00873077
5070.83458374,0.00871783
5072.76339111,0.00871635
5074.69219849,0.00868432
5076.62100586,0.00870508
5078.54981323,0.00868852
5080.47862061,0.00861316
5082.40742798,0.00864784
5084.33623535,0.00865430
5086.26504272,0.00861928
5088.19385010,0.00855376
5090.12265747,0.00856351
5092.05146484,0.00853364
5093.98027222,0.00849730
5095.90907959,0.00848462
5097.83788696,0.00840477
5099.76669434,0.00844105
5101.69550171,0.00842804
5103.62430908,0.00837693
5105.55311645,0.00834819
5107.48192383,0.00830828
5109.41073120,0.00829864
5111.33953857,0.00828919
5113.26834595,0.00823441
5115.19715332,0.00820505
5117.12596069,0.00826230
5119.05476807,0.00823636
5120.98357544,0.00821845
5122.91238281,0.00820260
5124.84119019,0.00819399
5126.76999756,0.00813895
5128.69880493,0.00810894
5130.62761230,0.00816410
5132.55641968,0.00804931
5134.48522705,0.00803443
5136.41403442,0.00803846
5138.34284180,0.00805432
5140.27164917,0.00806732
5142.20045654,0.00797104
5144.12926392,0.00795396
5146.05807129,0.00790203
5147.98687866,0.00796261
5149.91568603,0.00786039
5151.84449341,0.00778131
5153.77330078,0.00790799
5155.70210815,0.00781885
5157.63091553,0.00777770
5159.55972290,0.00777045
5161.48853027,0.00779507
5163.41733765,0.00775207
5165.34614502,0.00764475
5167.27495239,0.00772276
5169.20375977,0.00773169
5171.13256714,0.00764490
5173.06137451,0.00761425
5174.99018188,0.00762154
5176.91898926,0.00761855
5178.84779663,0.00761319
5180.77660400,0.00758033
5182.70541138,0.00758290
5184.63421875,0.00748834
5186.56302612,0.00743383
5188.49183350,0.00757828
5190.42064087,0.00750629
5192.34944824,0.00745489
5194.27825562,0.00747120
5196.20706299,0.00734832
5198.13587036,0.00732100
5200.06467773,0.00734679
5201.99348511,0.00733792
5203.92229248,0.00734854
5205.85109985,0.00723073
5207.77990723,0.00711309
5209.70871460,0.00729857
5211.63752197,0.00726249
5213.56632935,0.00718800
5215.49513672,0.00729714
5217.42394409,0.00718194
5219.35275146,0.00718556
5221.28155884,0.00723948
5223.21036621,0.00718091
5225.13917358,0.00701157
5227.06798096,0.00702681
5228.99678833,0.00718486
5230.92559570,0.00705556
5232.85440308,0.00700512
5234.78321045,0.00706117
5236.71201782,0.00711431
5238.64082520,0.00704751
5240.56963257,0.00705263
5242.49843994,0.00701780
5244.42724731,0.00683885
5246.35605469,0.00697243
5248.28486206,0.00685057
5250.21366943,0.00680948
5252.14247681,0.00698506
5254.07128418,0.00685203
5256.00009155,0.00684273
5257.92889893,0.00688399
5259.85770630,0.00690587
5261.78651367,0.00680639
5263.71532104,0.00669515
5265.64412842,0.00672930
5267.57293579,0.00671884
5269.50174316,0.00675025
5271.43055054,0.00676252
5273.35935791,0.00679586
5275.28816528,0.00679441
5277.21697266,0.00674145
5279.14578003,0.00666283
5281.07458740,0.00661298
5283.00339478,0.00663821
5284.93220215,0.00657997
5286.86100952,0.00663409
5288.78981689,0.00658588
5290.71862427,0.00646906
5292.64743164,0.00662456
5294.57623901,0.00664440
5296.50504639,0.00654918
5298.43385376,0.00651742
5300.36266113,0.00650239
5302.29146851,0.00648741
5304.22027588,0.00644742
5306.14908325,0.00648477
5308.07789062,0.00642279
5310.00669800,0.00640297
5311.93550537,0.00643860
5313.86431274,0.00636564
5315.79312012,0.00639653
5317.72192749,0.00638827
5319.65073486,0.00637645
5321.57954224,0.00629185
5323.50834961,0.00628814
5325.43715698,0.00636472
5327.36596436,0.00611593
5329.29477173,0.00613975
5331.22357910,0.00625299
5333.15238647,0.00616209
5335.08119385,0.00620828
5337.01000122,0.00612059
5338.93880859,0.00598670
5340.86761597,0.00613611
5342.79642334,0.00622250
5344.72523071,0.00591441
5346.65403809,0.00594308
5348.58284546,0.00610369
5350.51165283,0.00603302
5352.44046020,0.00601243
5354.36926758,0.00580710
5356.29807495,0.00594904
5358.22688232,0.00607339
5360.15568970,0.00598051
5362.08449707,0.00603141
5364.01330444,0.00591048
5365.94211182,0.00594728
5367.87091919,0.00596504
5369.79972656,0.00589082
5371.72853394,0.00589223
5373.65734131,0.00591476
5375.58614868,0.00579212
5377.51495605,0.00567666
5379.44376343,0.00584637
5381.37257080,0.00582233
5383.30137817,0.00586440
5385.23018555,0.00581405
5387.15899292,0.00566559
5389.08780029,0.00582208
5391.01660767,0.00582900
5392.94541504,0.00575383
5394.87422241,0.00563679
5396.80302978,0.00566676
5398.73183716,0.00573248
5400.66064453,0.00569549
5402.58945190,0.00572411
5404.51825928,0.00561512
5406.44706665,0.00562902
5408.37587402,0.00564115
5410.30468140,0.00557916
5412.23348877,0.00551224
5414.16229614,0.00539617
5416.09110352,0.00548868
5418.01991089,0.00554770
5419.94871826,0.00553975
5421.87752563,0.00557600
5423.80633301,0.00549936
5425.73514038,0.00550552
5427.66394775,0.00548027
5429.59275513,0.00526953
5431.52156250,0.00538565
5433.45036987,0.00544698
5435.37917725,0.00520100
5437.30798462,0.00535695
5439.23679199,0.00543324
5441.16559936,0.00525078
5443.09440674,0.00533226
5445.02321411,0.00530508
5446.95202148,0.00523514
5448.88082886,0.00536278
5450.80963623,0.00530196
5452.73844360,0.00533639
5454.66725098,0.00537478
5456.59605835,0.00518710
5458.52486572,0.00530770
5460.45367310,0.00521555
5462.38248047,0.00511484
5464.31128784,0.00528451
5466.24009521,0.00516341
5468.16890259,0.00516334
5470.09770996,0.00510351
5472.02651733,0.00515097
5473.95532471,0.00525704
5475.88413208,0.00500669
5477.81293945,0.00504104
5479.74174683,0.00515635
5481.67055420,0.00511101
5483.59936157,0.00505293
5485.52816895,0.00503494
5487.45697632,0.00505891
5489.38578369,0.00502055
5491.31459106,0.00500001
5493.24339844,0.00494631
5495.17220581,0.00495166
5497.10101318,0.00496237
5499.02982056,0.00494399
5500.95862793,0.00492774
5502.88743530,0.00492934
5504.81624268,0.00495642
5506.74505005,0.00488861
5508.67385742,0.00490158
5510.60266479,0.00486350
5512.53147217,0.00481476
5514.46027954,0.00488831
5516.38908691,0.00485674
5518.31789429,0.00483674
5520.24670166,0.00483125
5522.17550903,0.00484691
5524.10431641,0.00485714
5526.03312378,0.00479706
5527.96193115,0.00481006
5529.89073853,0.00482907
5531.81954590,0.00482478
5533.74835327,0.00475320
5535.67716064,0.00468900
5537.60596802,0.00471565
5539.53477539,0.00472686
5541.46358276,0.00472416
5543.39239014,0.00465123
5545.32119751,0.00470550
5547.25000488,0.00471643
5549.17881226,0.00461446
5551.10761963,0.00471717
5553.03642700,0.00464542
5554.96523437,0.00462468
5556.89404175,0.00467781
5558.82284912,0.00460155
5560.75165649,0.00469366
5562.68046387,0.00461047
5564.60927124,0.00451348
5566.53807861,0.00456777
5568.46688599,0.00463238
5570.39569336,0.00460339
5572.32450073,0.00455027
5574.25330811,0.00460725
5576.18211548,0.00443027
5578.11092285,0.00445944
5580.03973022,0.00453416
5581.96853760,0.00441090
5583.89734497,0.00450255
5585.82615234,0.00444792
5587.75495972,0.00439832
5589.68376709,0.00449970
5591.61257446,0.00447644
5593.54138184,0.00439865
5595.47018921,0.00442027
5597.39899658,0.00435747
5599.32780395,0.00432971
5601.25661133,0.00444933
5603.18541870,0.00439657
5605.11422607,0.00439474
5607.04303345,0.00433594
5608.97184082,0.00427908
5610.90064819,0.00428285
5612.82945557,0.00425719
5614.75826294,0.00430301
5616.68707031,0.00425420
5618.61587769,0.00431354
5620.54468506,0.00420999
5622.47349243,0.00423305
5624.40229980,0.00436106
5626.33110718,0.00421055
5628.25991455,0.00424570
5630.18872192,0.00419587
5632.11752930,0.00422576
5634.04633667,0.00420847
5635.97514404,0.00415332
5637.90395142,0.00421884
5639.83275879,0.00405451
5641.76156616,0.00412397
5643.69037353,0.00414039
5645.61918091,0.00406725
5647.54798828,0.00412283
5649.47679565,0.00410766
5651.40560303,0.00409504
5653.33441040,0.00402129
5655.26321777,0.00402044
5657.19202515,0.00402633
5659.12083252,0.00403058
5661.04963989,0.00403829
5662.97844727,0.00404413
5664.90725464,0.00400980
5666.83606201,0.00399624
5668.76486938,0.00404649
5670.69367676,0.00392195
5672.62248413,0.00393492
5674.55129150,0.00395914
5676.48009888,0.00388618
5678.40890625,0.00390105
5680.33771362,0.00391940
5682.26652100,0.00399584
5684.19532837,0.00395132
5686.12413574,0.00387185
5688.05294311,0.00387998
5689.98175049,0.00391259
5691.91055786,0.00387319
5693.83936523,0.00385301
5695.76817261,0.00390534
5697.69697998,0.00383641
5699.62578735,0.00377432
5701.55459473,0.00374402
5703.48340210,0.00379501
5705.41220947,0.00376452
5707.34101685,0.00368840
5709.26982422,0.00376831
5711.19863159,0.00376631
5713.12743896,0.00374751
5715.05624634,0.00368119
5716.98505371,0.00368442
5718.91386108,0.00372501
5720.84266846,0.00366495
5722.77147583,0.00369288
5724.70028320,0.00363826
5726.62909058,0.00364056
5728.55789795,0.00370911
5730.48670532,0.00365457
5732.41551270,0.00363002
5734.34432007,0.00361368
5736.27312744,0.00361457
5738.20193481,0.00363187
5740.13074219,0.00359749
5742.05954956,0.00352953
5743.98835693,0.00355627
5745.91716431,0.00358339
5747.84597168,0.00348461
5749.77477905,0.00350331
5751.70358643,0.00350748
5753.63239380,0.00353362
5755.56120117,0.00361860
5757.49000854,0.00344693
5759.41881592,0.00343357
5761.34762329,0.00350035
5763.27643066,0.00346465
5765.20523804,0.00352743
5767.13404541,0.00343013
5769.06285278,0.00339351
5770.99166016,0.00342245
5772.92046753,0.00344269
5774.84927490,0.00345588
5776.77808228,0.00343520
5778.70688965,0.00347435
5780.63569702,0.00333274
5782.56450439,0.00339227
5784.49331177,0.00340705
5786.42211914,0.00324152
5788.35092651,0.00336884
5790.27973389,0.00333547
5792.20854126,0.00327221
5794.13734863,0.00331364
5796.06615601,0.00330800
5797.99496338,0.00330316
5799.92377075,0.00330094
5801.85257812,0.00332249
5803.78138550,0.00325821
5805.71019287,0.00326748
5807.63900024,0.00326995
5809.56780762,0.00326026
5811.49661499,0.00326893
5813.42542236,0.00321969
5815.35422974,0.00321769
5817.28303711,0.00320166
5819.21184448,0.00321280
5821.14065186,0.00322618
5823.06945923,0.00320818
5824.99826660,0.00316888
5826.92707397,0.00314552
5828.85588135,0.00309935
5830.78468872,0.00309264
5832.71349609,0.00315846
5834.64230347,0.00312446
5836.57111084,0.00315669
5838.49991821,0.00312777
5840.42872559,0.00306721
5842.35753296,0.00311760
5844.28634033,0.00309624
5846.21514770,0.00305773
5848.14395508,0.00306201
5850.07276245,0.00311666
5852.00156982,0.00305053
5853.93037720,0.00301492
5855.85918457,0.00307083
5857.78799194,0.00299911
5859.71679932,0.00299582
5861.64560669,0.00304279
5863.57441406,0.00296945
5865.50322144,0.00293784
5867.43202881,0.00295686
5869.36083618,0.00288947
5871.28964355,0.00296024
5873.21845093,0.00296278
5875.14725830,0.00294382
5877.07606567,0.00301300
5879.00487305,0.00283839
5880.93368042,0.00286111
5882.86248779,0.00287606
5884.79129517,0.00283051
5886.72010254,0.00292243
5888.64890991,0.00285351
5890.57771728,0.00287796
5892.50652466,0.00282960
5894.43533203,0.00283496
5896.36413940,0.00290546
5898.29294678,0.00283733
5900.22175415,0.00284942
5902.15056152,0.00276796
5904.07936890,0.00279282
5906.00817627,0.00285246
5907.93698364,0.00273942
5909.86579102,0.00278168
5911.79459839,0.00282101
5913.72340576,0.00272435
5915.65221313,0.00272345
5917.58102051,0.00269271
5919.50982788,0.00271315
5921.43863525,0.00282729
5923.36744263,0.00272457
5925.29625000,0.00265970
5927.22505737,0.00266864
5929.15386475,0.00267381
5931.08267212,0.00273835
5933.01147949,0.00271992
5934.94028686,0.00270704
5936.86909424,0.00268662
5938.79790161,0.00266695
5940.72670898,0.00265343
5942.65551636,0.00264839
5944.58432373,0.00267808
5946.51313110,0.00271599
5948.44193848,0.00267400
5950.37074585,0.00258083
5952.29955322,0.00264711
5954.22836060,0.00265263
5956.15716797,0.00257630
5958.08597534,0.00259414
5960.01478271,0.00264298
5961.94359009,0.00258303
5963.87239746,0.00253284
5965.80120483,0.00264112
5967.73001221,0.00261364
5969.65881958,0.00254566
5971.58762695,0.00254852
5973.51643433,0.00258304
5975.44524170,0.00255883
5977.37404907,0.00246836
5979.30285645,0.00250872
5981.23166382,0.00256071
5983.16047119,0.00255386
5985.08927856,0.00246263
5987.01808594,0.00249082
5988.94689331,0.00247193
5990.87570068,0.00237961
5992.80450806,0.00248362
5994.73331543,0.00251092
5996.66212280,0.00247712
5998.59093018,0.00238607
6000.51973755,0.00241520
