399.26312622,0.00020000
401.19193359,0.00033834
403.12074097,-0.00023342
405.04954834,0.00002997
406.97835571,0.00056048
408.90716309,0.00033849
410.83597046,0.00007966
412.76477783,0.00022206
414.69358521,0.00009198
416.62239258,0.00007137
418.55119995,0.00048935
420.48000732,0.00067171
422.40881470,0.00032949
424.33762207,0.00034284
426.26642944,0.00028803
428.19523682,0.00000952
430.12404419,0.00025612
432.05285156,0.00028873
433.98165894,0.00009767
435.91046631,0.00016884
437.83927368,0.00021376
439.76808105,0.00007636
441.69688843,-0.00004000
443.62569580,0.00004328
445.55450317,0.00028117
447.48331055,-0.00007140
449.41211792,-0.00004520
451.34092529,0.00024685
453.26973267,-0.00026224
455.19854004,0.00026788
457.12734741,0.00017374
459.05615479,0.00000867
460.98496216,0.00045957
462.91376953,-0.00013463
464.84257690,0.00017453
466.77138428,0.00012203
468.70019165,0.00014695
470.62899902,0.00008713
472.55780640,-0.00025494
474.48661377,0.00045904
476.41542114,0.00009963
478.34422852,0.00008364
480.27303589,0.00042242
482.20184326,0.00023970
484.13065063,0.00037113
486.05945801,0.00002153
487.98826538,-0.00007657
489.91707275,0.00006014
491.84588013,0.00026965
493.77468750,0.00026156
495.70349487,0.00008505
497.63230225,0.00030138
499.56110962,0.00008092
501.48991699,0.00009709
503.41872437,0.00030099
505.34753174,0.00006802
507.27633911,0.00010506
509.20514648,0.00032386
511.13395386,0.00036597
513.06276123,0.00009570
514.99156860,-0.00008832
516.92037598,0.00010569
518.84918335,0.00011658
520.77799072,-0.00001532
522.70679810,0.00015146
524.63560547,-0.00004391
526.56441284,-0.00018816
528.49322021,0.00009443
530.42202759,-0.00019018
532.35083496,-0.00007022
534.27964233,0.00028028
536.20844971,0.00014463
538.13725708,0.00006471
540.06606445,-0.00006637
541.99487183,0.00027011
543.92367920,0.00026859
545.85248657,-0.00004514
547.78129395,0.00023239
549.71010132,0.00005657
551.63890869,0.00016931
553.56771606,0.00037324
555.49652344,-0.00014586
557.42533081,0.00034053
559.35413818,0.00053129
561.28294556,-0.00018110
563.21175293,0.00014380
565.14056030,0.00006647
567.06936768,0.00003639
568.99817505,0.00048352
570.92698242,0.00018292
572.85578979,0.00035597
574.78459717,0.00026085
576.71340454,0.00000161
578.64221191,0.00018964
580.57101929,-0.00000591
582.49982666,0.00002104
584.42863403,0.00006400
586.35744141,0.00033823
588.28624878,0.00040089
590.21505615,-0.00007255
592.14386353,-0.00007053
594.07267090,-0.00007304
596.00147827,0.00004242
597.93028564,0.00013793
599.85909302,0.00021070
601.78790039,0.00024369
603.71670776,0.00015240
605.64551514,0.00031925
607.57432251,0.00003974
609.50312988,0.00000042
611.43193726,0.00014763
613.36074463,0.00016111
615.28955200,0.00024679
617.21835938,0.00030733
619.14716675,0.00028555
621.07597412,0.00012552
623.00478149,-0.00001539
624.93358887,-0.00000658
626.86239624,0.00011477
628.79120361,0.00026599
630.72001099,0.00024200
632.64881836,-0.00008744
634.57762573,0.00007404
636.50643311,0.00008129
638.43524048,-0.00009426
640.36404785,0.00033339
642.29285522,0.00030283
644.22166260,0.00011182
646.15046997,0.00002066
648.07927734,0.00017350
650.00808472,0.00044225
651.93689209,0.00018644
653.86569946,0.00031924
655.79450684,0.00045761
657.72331421,0.00039801
659.65212158,0.00041778
661.58092896,0.00015852
663.50973633,0.00014803
665.43854370,0.00028980
667.36735107,0.00014083
669.29615845,0.00016825
671.22496582,0.00042276
673.15377319,0.00049719
675.08258057,0.00040997
677.01138794,0.00032024
678.94019531,0.00053800
680.86900269,0.00059545
682.79781006,0.00033800
684.72661743,0.00021588
686.65542480,0.00025617
688.58423218,0.00032903
690.51303955,0.00037690
692.44184692,0.00049599
694.37065430,0.00034544
696.29946167,0.00048305
698.22826904,0.00060853
700.15707642,0.00047778
702.08588379,0.00061545
704.01469116,0.00044539
705.94349854,0.00045612
707.87230591,0.00027792
709.80111328,0.00006316
711.72992065,0.00026119
713.65872803,0.00007900
715.58753540,0.00019966
717.51634277,0.00027400
719.44515015,0.00015895
721.37395752,0.00019265
723.30276489,0.00016245
725.23157227,0.00016400
727.16037964,0.00019469
729.08918701,0.00028517
731.01799438,0.00017122
732.94680176,0.00015432
734.87560913,0.00012706
736.80441650,-0.00011803
738.73322388,-0.00002034
740.66203125,0.00021390
742.59083862,0.00019585
744.51964600,0.00022326
746.44845337,0.00042514
748.37726074,0.00041474
750.30606812,0.00016727
752.23487549,0.00007299
754.16368286,0.00007946
756.09249023,0.00015587
758.02129761,0.00016624
759.95010498,-0.00006766
761.87891235,0.00002635
763.80771973,0.00017156
765.73652710,0.00014889
767.66533447,0.00011324
769.59414185,-0.00000314
771.52294922,0.00029748
773.45175659,0.00022158
775.38056396,-0.00005138
777.30937134,0.00011897
779.23817871,0.00014120
781.16698608,0.00024098
783.09579346,0.00022955
785.02460083,0.00017315
786.95340820,0.00019997
788.88221558,-0.00006550
790.81102295,0.00005883
792.73983032,0.00015687
794.66863770,0.00002234
796.59744507,0.00026446
798.52625244,0.00022032
800.45505981,-0.00016738
802.38386719,-0.00011120
804.31267456,0.00022857
806.24148193,-0.00000259
808.17028931,-0.00002173
810.09909668,0.00020401
812.02790405,0.00001197
813.95671143,0.00016872
815.88551880,0.00015777
817.81432617,0.00015063
819.74313354,0.00025704
821.67194092,0.00026503
823.60074829,0.00036637
825.52955566,0.00014106
827.45836304,0.00028799
829.38717041,0.00023606
831.31597778,0.00019151
833.24478516,0.00064650
835.17359253,0.00033279
837.10239990,0.00000801
839.03120728,0.00031533
840.96001465,0.00038944
842.88882202,0.00012709
844.81762939,0.00032487
846.74643677,0.00027942
848.67524414,-0.00000745
850.60405151,0.00039878
852.53285889,0.00041556
854.46166626,0.00020633
856.39047363,0.00035056
858.31928101,0.00047583
860.24808838,0.00040601
862.17689575,0.00022997
864.10570313,0.00016455
866.03451050,0.00025532
867.96331787,0.00041271
869.89212524,0.00036274
871.82093262,0.00047952
873.74973999,0.00036689
875.67854736,0.00022836
877.60735474,0.00039285
879.53616211,0.00009234
881.46496948,0.00014491
883.39377686,0.00035233
885.32258423,0.00034436
887.25139160,0.00046066
889.18019897,0.00034516
891.10900635,0.00031290
893.03781372,0.00017895
894.96662109,0.00020046
896.89542847,0.00031722
898.82423584,0.00007385
900.75304321,0.00034889
902.68185059,0.00057162
904.61065796,0.00024034
906.53946533,0.00032105
908.46827271,0.00045140
910.39708008,0.00022770
912.32588745,0.00029079
914.25469482,0.00050916
916.18350220,0.00032638
918.11230957,0.00018989
920.04111694,0.00034247
921.96992432,0.00016593
923.89873169,0.00020575
925.82753906,0.00055287
927.75634644,0.00022366
929.68515381,0.00016109
931.61396118,0.00054540
933.54276855,0.00029364
935.47157593,0.00019276
937.40038330,0.00050693
939.32919067,0.00042693
941.25799805,0.00036007
943.18680542,0.00047086
945.11561279,0.00049677
947.04442017,0.00049906
948.97322754,0.00035759
950.90203491,0.00050189
952.83084229,0.00050302
954.75964966,0.00030046
956.68845703,0.00050529
958.61726440,0.00050311
960.54607178,0.00051051
962.47487915,0.00039159
964.40368652,0.00034611
966.33249390,0.00043805
968.26130127,0.00020087
970.19010864,0.00038728
972.11891602,0.00047281
974.04772339,0.00056690
975.97653076,0.00066163
977.90533813,0.00031716
979.83414551,0.00036486
981.76295288,0.00064232
983.69176025,0.00073382
985.62056763,0.00065649
987.54937500,0.00088288
989.47818237,0.00095132
991.40698975,0.00066693
993.33579712,0.00074533
995.26460449,0.00086454
997.19341187,0.00107856
999.12221924,0.00117306
1001.05102661,0.00115340
1002.97983398,0.00117041
1004.90864136,0.00120786
1006.83744873,0.00140608
1008.76625610,0.00116419
1010.69506348,0.00104790
1012.62387085,0.00131613
1014.55267822,0.00149423
1016.48148560,0.00167373
1018.41029297,0.00164368
1020.33910034,0.00172319
1022.26790771,0.00194420
1024.19671509,0.00175538
1026.12552246,0.00167304
1028.05432983,0.00199296
1029.98313721,0.00187713
1031.91194458,0.00184698
1033.84075195,0.00212583
1035.76955933,0.00200814
1037.69836670,0.00209120
1039.62717407,0.00211872
1041.55598145,0.00193990
1043.48478882,0.00190479
1045.41359619,0.00192881
1047.34240356,0.00215850
1049.27121094,0.00216245
1051.20001831,0.00194487
1053.12882568,0.00180718
1055.05763306,0.00181523
1056.98644043,0.00186516
1058.91524780,0.00190143
1060.84405518,0.00194537
1062.77286255,0.00185398
1064.70166992,0.00182118
1066.63047729,0.00165064
1068.55928467,0.00155192
1070.48809204,0.00173841
1072.41689941,0.00156472
1074.34570679,0.00127694
1076.27451416,0.00145457
1078.20332153,0.00139446
1080.13212891,0.00121333
1082.06093628,0.00151005
1083.98974365,0.00113038
1085.91855103,0.00090283
1087.84735840,0.00132217
1089.77616577,0.00114042
1091.70497314,0.00109634
1093.63378052,0.00119651
1095.56258789,0.00118641
1097.49139526,0.00104595
1099.42020264,0.00104228
1101.34901001,0.00122986
1103.27781738,0.00094281
1105.20662476,0.00095983
1107.13543213,0.00113617
1109.06423950,0.00103825
1110.99304687,0.00086642
1112.92185425,0.00090514
1114.85066162,0.00094302
1116.77946899,0.00079543
1118.70827637,0.00106719
1120.63708374,0.00101392
1122.56589111,0.00095449
1124.49469849,0.00097815
1126.42350586,0.00090174
1128.35231323,0.00110187
1130.28112061,0.00101071
1132.20992798,0.00114695
1134.13873535,0.00116698
1136.06754272,0.00112731
1137.99635010,0.00117825
1139.92515747,0.00114940
1141.85396484,0.00148231
1143.78277222,0.00141271
1145.71157959,0.00144417
1147.64038696,0.00153217
1149.56919434,0.00147961
1151.49800171,0.00166039
1153.42680908,0.00158659
1155.35561646,0.00177771
1157.28442383,0.00183722
1159.21323120,0.00178143
1161.14203857,0.00199569
1163.07084595,0.00183403
1164.99965332,0.00186861
1166.92846069,0.00193423
1168.85726807,0.00179995
1170.78607544,0.00213014
1172.71488281,0.00228121
1174.64369019,0.00223614
1176.57249756,0.00232212
1178.50130493,0.00225963
1180.43011230,0.00233945
1182.35891968,0.00236764
1184.28772705,0.00249221
1186.21653442,0.00275447
1188.14534180,0.00281713
1190.07414917,0.00290808
1192.00295654,0.00285511
1193.93176392,0.00297161
1195.86057129,0.00321927
1197.78937866,0.00325111
1199.71818604,0.00344387
1201.64699341,0.00369648
1203.57580078,0.00395777
1205.50460815,0.00420990
1207.43341553,0.00420509
1209.36222290,0.00425898
1211.29103027,0.00437595
1213.21983765,0.00433159
1215.14864502,0.00459008
1217.07745239,0.00467749
1219.00625977,0.00447316
1220.93506714,0.00460265
1222.86387451,0.00465633
1224.79268188,0.00477955
1226.72148926,0.00493408
1228.65029663,0.00491784
1230.57910400,0.00492574
1232.50791138,0.00486673
1234.43671875,0.00481923
1236.36552612,0.00493099
1238.29433350,0.00502800
1240.22314087,0.00479384
1242.15194824,0.00485650
1244.08075562,0.00502335
1246.00956299,0.00494241
1247.93837036,0.00489268
1249.86717773,0.00476319
1251.79598511,0.00491877
1253.72479248,0.00487513
1255.65359985,0.00478343
1257.58240723,0.00483809
1259.51121460,0.00458742
1261.44002197,0.00452172
1263.36882935,0.00461134
1265.29763672,0.00460280
1267.22644409,0.00448007
1269.15525146,0.00448458
1271.08405884,0.00430896
1273.01286621,0.00425306
1274.94167358,0.00445595
1276.87048096,0.00417255
1278.79928833,0.00394627
1280.72809570,0.00380831
1282.65690308,0.00389733
1284.58571045,0.00390407
1286.51451782,0.00370283
1288.44332520,0.00379848
1290.37213257,0.00360258
1292.30093994,0.00364860
1294.22974731,0.00378251
1296.15855469,0.00365387
1298.08736206,0.00376165
1300.01616943,0.00385395
1301.94497681,0.00378315
1303.87378418,0.00375974
1305.80259155,0.00383582
1307.73139893,0.00383840
1309.66020630,0.00399018
1311.58901367,0.00393923
1313.51782104,0.00396420
1315.44662842,0.00416040
1317.37543579,0.00396576
1319.30424316,0.00407764
1321.23305054,0.00445238
1323.16185791,0.00474003
1325.09066528,0.00465766
1327.01947266,0.00455786
1328.94828003,0.00477021
1330.87708740,0.00488915
1332.80589478,0.00501628
1334.73470215,0.00508247
1336.66350952,0.00525108
1338.59231689,0.00512251
1340.52112427,0.00516672
1342.44993164,0.00548814
1344.37873901,0.00537754
1346.30754639,0.00544786
1348.23635376,0.00530482
1350.16516113,0.00528681
1352.09396851,0.00541832
1354.02277588,0.00525836
1355.95158325,0.00525517
1357.88039062,0.00516048
1359.80919800,0.00517840
1361.73800537,0.00495042
1363.66681274,0.00491027
1365.59562012,0.00523055
1367.52442749,0.00498768
1369.45323486,0.00501076
1371.38204224,0.00506954
1373.31084961,0.00465741
1375.23965698,0.00459498
1377.16846436,0.00487978
1379.09727173,0.00504928
1381.02607910,0.00499313
1382.95488647,0.00503493
1384.88369385,0.00489613
1386.81250122,0.00454633
1388.74130859,0.00484064
1390.67011597,0.00516511
1392.59892334,0.00488183
1394.52773071,0.00470664
1396.45653809,0.00495458
1398.38534546,0.00503301
1400.31415283,0.00496769
1402.24296021,0.00512958
1404.17176758,0.00482589
1406.10057495,0.00482125
1408.02938232,0.00517913
1409.95818970,0.00515538
1411.88699707,0.00522296
1413.81580444,0.00497944
1415.74461182,0.00498370
1417.67341919,0.00461093
1419.60222656,0.00426148
1421.53103394,0.00480114
1423.45984131,0.00460601
1425.38864868,0.00456593
1427.31745605,0.00453672
1429.24626343,0.00423501
1431.17507080,0.00417444
1433.10387817,0.00414405
1435.03268555,0.00397738
1436.96149292,0.00342306
1438.89030029,0.00387392
1440.81910767,0.00390687
1442.74791504,0.00368219
1444.67672241,0.00390120
1446.60552979,0.00329304
1448.53433716,0.00359477
1450.46314453,0.00372813
1452.39195190,0.00366402
1454.32075928,0.00387449
1456.24956665,0.00321976
1458.17837402,0.00348530
1460.10718140,0.00422098
1462.03598877,0.00452730
1463.96479614,0.00460881
1465.89360352,0.00460323
1467.82241089,0.00529546
1469.75121826,0.00558651
1471.68002563,0.00510149
1473.60883301,0.00541535
1475.53764038,0.00604585
1477.46644775,0.00645455
1479.39525513,0.00690425
1481.32406250,0.00689327
1483.25286987,0.00726144
1485.18167725,0.00759189
1487.11048462,0.00746370
1489.03929199,0.00735280
1490.96809937,0.00751589
1492.89690674,0.00864961
1494.82571411,0.00830232
1496.75452148,0.00755790
1498.68332886,0.00856396
1500.61213623,0.00875591
1502.54094360,0.00933028
1504.46975098,0.00880228
1506.39855835,0.00668753
1508.32736572,0.00814082
1510.25617310,0.00938998
1512.18498047,0.00909548
1514.11378784,0.00968232
1516.04259521,0.00887199
1517.97140259,0.00933683
1519.90020996,0.00895815
1521.82901733,0.00762180
1523.75782471,0.00918338
1525.68663208,0.00921352
1527.61543945,0.00906310
1529.54424683,0.01005195
1531.47305420,0.00978530
1533.40186157,0.00890819
1535.33066895,0.00944573
1537.25947632,0.00996393
1539.18828369,0.00741486
1541.11709106,0.00779498
1543.04589844,0.00917491
1544.97470581,0.00896491
1546.90351318,0.01021714
1548.83232056,0.00954157
1550.76112793,0.00988692
1552.68993530,0.00994964
1554.61874268,0.00923686
1556.54755005,0.00961206
1558.47635742,0.00718981
1560.40516479,0.00767721
1562.33397217,0.01030349
1564.26277954,0.00985764
1566.19158691,0.01016747
1568.12039429,0.01011518
1570.04920166,0.00887670
1571.97800903,0.01016324
1573.90681641,0.01040501
1575.83562378,0.00841264
1577.76443115,0.00936940
1579.69323853,0.01049178
1581.62204590,0.01026742
1583.55085327,0.01032568
1585.47966064,0.01014887
1587.40846802,0.01023521
1589.33727539,0.01003947
1591.26608276,0.01014348
1593.19489014,0.00996730
1595.12369751,0.00995301
1597.05250488,0.01018277
1598.98131226,0.01001838
1600.91011963,0.01023084
1602.83892700,0.00994265
1604.76773437,0.01010416
1606.69654175,0.01006304
1608.62534912,0.00997237
1610.55415649,0.01008416
1612.48296387,0.01001041
1614.41177124,0.00996754
1616.34057861,0.00845338
1618.26938599,0.00911444
1620.19819336,0.01043098
1622.12700073,0.00939794
1624.05580811,0.00935756
1625.98461548,0.00975166
1627.91342285,0.00978577
1629.84223022,0.00971957
1631.77103760,0.01022224
1633.69984497,0.00958290
1635.62865234,0.00814561
1637.55745972,0.00934444
1639.48626709,0.01014483
1641.41507446,0.00980620
1643.34388184,0.01015794
1645.27268921,0.00918488
1647.20149658,0.00818306
1649.13030396,0.00994404
1651.05911133,0.00936337
1652.98791870,0.00653697
1654.91672607,0.00848917
1656.84553345,0.01037392
1658.77434082,0.00983853
1660.70314819,0.00997038
1662.63195557,0.00935860
1664.56076294,0.00982119
1666.48957031,0.01046242
1668.41837769,0.00920076
1670.34718506,0.00893668
1672.27599243,0.00999751
1674.20479980,0.00938774
1676.13360718,0.00911961
1678.06241455,0.01014266
1679.99122192,0.00992151
1681.92002930,0.00978151
1683.84883667,0.00806702
1685.77764404,0.00820810
1687.70645142,0.01073628
1689.63525879,0.00945414
1691.56406616,0.01049319
1693.49287354,0.01059831
1695.42168091,0.00790453
1697.35048828,0.00947433
1699.27929565,0.00840005
1701.20810303,0.00784750
1703.13691040,0.01041414
1705.06571777,0.00957119
1706.99452515,0.00958330
1708.92333252,0.01024805
1710.85213989,0.00995845
1712.78094727,0.01000923
1714.70975464,0.00930510
1716.63856201,0.00849860
1718.56736938,0.00844038
1720.49617676,0.00993365
1722.42498413,0.00997557
1724.35379150,0.00931946
1726.28259888,0.01026497
1728.21140625,0.00954242
1730.14021362,0.00970400
1732.06902100,0.00952281
1733.99782837,0.00746506
1735.92663574,0.00893536
1737.85544312,0.00992391
1739.78425049,0.00890815
1741.71305786,0.00951339
1743.64186523,0.00979086
1745.57067261,0.00966573
1747.49947998,0.00972897
1749.42828735,0.00943261
1751.35709473,0.00903368
1753.28590210,0.00991150
1755.21470947,0.01030648
1757.14351685,0.00959670
1759.07232422,0.01038707
1761.00113159,0.00967688
1762.92993896,0.00946992
1764.85874634,0.01073678
1766.78755371,0.00974899
1768.71636108,0.00983588
1770.64516846,0.00966535
1772.57397583,0.00873803
1774.50278320,0.00970670
1776.43159058,0.01021886
1778.36039795,0.01012441
1780.28920532,0.00999729
1782.21801270,0.01006787
1784.14682007,0.01003047
1786.07562744,0.00978995
1788.00443481,0.01041840
1789.93324219,0.01024305
1791.86204956,0.00917692
1793.79085693,0.00956229
1795.71966431,0.01021013
1797.64847168,0.01003393
1799.57727905,0.01001026
1801.50608643,0.00984877
1803.43489380,0.01003462
1805.36370117,0.01017168
1807.29250854,0.01011275
1809.22131592,0.01010038
1811.15012329,0.00984252
1813.07893066,0.01037969
1815.00773804,0.01035466
1816.93654541,0.01023406
1818.86535278,0.01033051
1820.79416016,0.01009751
1822.72296753,0.01029979
1824.65177490,0.00975824
1826.58058228,0.01003667
1828.50938965,0.01002745
1830.43819702,0.00953917
1832.36700439,0.01023137
1834.29581177,0.01011867
1836.22461914,0.01013810
1838.15342651,0.01001843
1840.08223389,0.01021723
1842.01104126,0.01018193
1843.93984863,0.00910202
1845.86865601,0.00963013
1847.79746338,0.01002534
1849.72627075,0.00992177
1851.65507812,0.01003862
1853.58388550,0.01002587
1855.51269287,0.01012721
1857.44150024,0.00995187
1859.37030762,0.01012168
1861.29911499,0.00991840
1863.22792236,0.00974898
1865.15672974,0.00992792
1867.08553711,0.00966064
1869.01434448,0.00937884
1870.94315186,0.00957376
1872.87195923,0.01008974
1874.80076660,0.00994473
1876.72957397,0.00986282
1878.65838135,0.00996925
1880.58718872,0.00987594
1882.51599609,0.00986387
1884.44480347,0.00981203
1886.37361084,0.00999194
1888.30241821,0.00967846
1890.23122559,0.00950915
1892.16003296,0.00982659
1894.08884033,0.00975105
1896.01764771,0.00979382
1897.94645508,0.00989846
1899.87526245,0.00988352
1901.80406982,0.00971919
1903.73287720,0.00965679
1905.66168457,0.00974529
1907.59049194,0.00963344
1909.51929932,0.00955611
1911.44810669,0.00945592
1913.37691406,0.00968791
1915.30572144,0.00977480
1917.23452881,0.00924850
1919.16333618,0.00944220
1921.09214355,0.00966184
1923.02095093,0.00937677
1924.94975830,0.00962652
1926.87856567,0.00960280
1928.80737305,0.00953294
1930.73618042,0.00964753
1932.66498779,0.00956437
1934.59379517,0.00979833
1936.52260254,0.00957480
1938.45140991,0.00947470
1940.38021729,0.00961788
1942.30902466,0.00928858
1944.23783203,0.00938233
1946.16663940,0.00939931
1948.09544678,0.00951190
1950.02425415,0.00972830
1951.95306152,0.00944193
1953.88186890,0.00955328
1955.81067627,0.00957770
1957.73948364,0.00933895
1959.66829102,0.00948096
1961.59709839,0.00954339
1963.52590576,0.00951963
1965.45471313,0.00947159
1967.38352051,0.00934017
1969.31232788,0.00942989
1971.24113525,0.00948928
1973.16994263,0.00945972
1975.09875000,0.00946711
1977.02755737,0.00937051
1978.95636475,0.00934765
1980.88517212,0.00932357
1982.81397949,0.00941439
1984.74278687,0.00946063
1986.67159424,0.00934738
1988.60040161,0.00934890
1990.52920898,0.00912430
1992.45801636,0.00914862
1994.38682373,0.00929977
1996.31563110,0.00923064
1998.24443848,0.00931629
2000.17324585,0.00915151
2002.10205322,0.00913071
2004.03086060,0.00922928
2005.95966797,0.00907748
2007.88847534,0.00903857
2009.81728271,0.00905986
2011.74609009,0.00915361
2013.67489746,0.00917075
2015.60370483,0.00911301
2017.53251221,0.00903064
2019.46131958,0.00904921
2021.39012695,0.00913761
2023.31893433,0.00901410
2025.24774170,0.00901556
2027.17654907,0.00900130
2029.10535645,0.00889803
2031.03416382,0.00897107
2032.96297119,0.00901787
2034.89177856,0.00893806
2036.82058594,0.00894955
2038.74939331,0.00895729
2040.67820068,0.00874174
2042.60700806,0.00875388
2044.53581543,0.00886212
2046.46462280,0.00885987
2048.39343018,0.00883102
2050.32223755,0.00871170
2052.25104492,0.00874360
2054.17985229,0.00872472
2056.10865967,0.00874318
2058.03746704,0.00877066
2059.96627441,0.00878340
2061.89508179,0.00879104
2063.82388916,0.00856124
2065.75269653,0.00852421
2067.68150391,0.00858214
2069.61031128,0.00869979
2071.53911865,0.00859815
2073.46792603,0.00847148
2075.39673340,0.00869290
2077.32554077,0.00852686
2079.25434814,0.00853202
2081.18315552,0.00852881
2083.11196289,0.00837256
2085.04077026,0.00856469
2086.96957764,0.00852263
2088.89838501,0.00848641
2090.82719238,0.00845888
2092.75599976,0.00846106
2094.68480713,0.00839883
2096.61361450,0.00822014
2098.54242187,0.00836267
2100.47122925,0.00836020
2102.40003662,0.00830164
2104.32884399,0.00839728
2106.25765137,0.00846283
2108.18645874,0.00837446
2110.11526611,0.00826777
2112.04407349,0.00835763
2113.97288086,0.00830219
2115.90168823,0.00824126
2117.83049561,0.00833125
2119.75930298,0.00831890
2121.68811035,0.00822380
2123.61691772,0.00824258
2125.54572510,0.00824571
2127.47453247,0.00820719
2129.40333984,0.00825223
2131.33214722,0.00821381
2133.26095459,0.00818482
2135.18976196,0.00821188
2137.11856934,0.00825651
2139.04737671,0.00814082
2140.97618408,0.00806330
2142.90499146,0.00817173
2144.83379883,0.00811102
2146.76260620,0.00811978
2148.69141357,0.00814096
2150.62022095,0.00810364
2152.54902832,0.00808928
2154.47783569,0.00804823
2156.40664307,0.00800774
2158.33545044,0.00804604
2160.26425781,0.00813646
2162.19306519,0.00802564
2164.12187256,0.00810535
2166.05067993,0.00813792
2167.97948730,0.00808095
2169.90829468,0.00805760
2171.83710205,0.00787380
2173.76590942,0.00804004
2175.69471680,0.00800088
2177.62352417,0.00797484
2179.55233154,0.00811811
2181.48113892,0.00791717
2183.40994629,0.00791649
2185.33875366,0.00790669
2187.26756104,0.00787976
2189.19636841,0.00787465
2191.12517578,0.00784413
2193.05398315,0.00789491
2194.98279053,0.00787883
2196.91159790,0.00787404
2198.84040527,0.00780012
2200.76921265,0.00784752
2202.69802002,0.00793075
2204.62682739,0.00786398
2206.55563477,0.00781893
2208.48444214,0.00786553
2210.41324951,0.00785976
2212.34205688,0.00779743
2214.27086426,0.00773106
2216.19967163,0.00768816
2218.12847900,0.00782577
2220.05728638,0.00779919
2221.98609375,0.00780055
2223.91490112,0.00771414
2225.84370850,0.00765856
2227.77251587,0.00787590
2229.70132324,0.00768381
2231.63013062,0.00777680
2233.55893799,0.00778211
2235.48774536,0.00757950
2237.41655273,0.00773916
2239.34536011,0.00760028
2241.27416748,0.00767413
2243.20297485,0.00769152
2245.13178223,0.00753595
2247.06058960,0.00759254
2248.98939697,0.00759484
2250.91820435,0.00761315
2252.84701172,0.00753976
2254.77581909,0.00757736
2256.70462646,0.00756746
2258.63343384,0.00757399
2260.56224121,0.00763508
2262.49104858,0.00753436
2264.41985596,0.00753934
2266.34866333,0.00748451
2268.27747070,0.00740888
2270.20627808,0.00743550
2272.13508545,0.00747232
2274.06389282,0.00749829
2275.99270020,0.00750077
2277.92150757,0.00744891
2279.85031494,0.00748241
2281.77912231,0.00745289
2283.70792969,0.00727046
2285.63673706,0.00733873
2287.56554443,0.00740444
2289.49435181,0.00745691
2291.42315918,0.00736889
2293.35196655,0.00722581
2295.28077393,0.00739015
2297.20958130,0.00735386
2299.13838867,0.00728242
2301.06719604,0.00722884
2302.99600342,0.00716984
2304.92481079,0.00723302
2306.85361816,0.00717911
2308.78242554,0.00705829
2310.71123291,0.00698246
2312.64004028,0.00692845
2314.56884766,0.00681053
2316.49765503,0.00692112
2318.42646240,0.00686846
2320.35526978,0.00660200
2322.28407715,0.00662063
2324.21288452,0.00659168
2326.14169189,0.00649450
2328.07049927,0.00644016
2329.99930664,0.00645350
2331.92811401,0.00632386
2333.85692139,0.00626238
2335.78572876,0.00623334
2337.71453613,0.00607064
2339.64334351,0.00617504
2341.57215088,0.00623136
2343.50095825,0.00638134
2345.42976562,0.00649430
2347.35857300,0.00675639
2349.28738037,0.00699367
2351.21618774,0.00657518
2353.14499512,0.00634734
2355.07380249,0.00606318
2357.00260986,0.00589579
2358.93141724,0.00584868
2360.86022461,0.00573808
2362.78903198,0.00601104
2364.71783936,0.00584721
2366.64664673,0.00585268
2368.57545410,0.00615240
2370.50426147,0.00622776
2372.43306885,0.00636833
2374.36187622,0.00635526
2376.29068359,0.00645221
2378.21949097,0.00664420
2380.14829834,0.00688417
2382.07710571,0.00695386
2384.00591309,0.00681413
2385.93472046,0.00691241
2387.86352783,0.00698636
2389.79233521,0.00697457
2391.72114258,0.00704423
2393.64994995,0.00702708
2395.57875732,0.00691085
2397.50756470,0.00687100
2399.43637207,0.00673443
2401.36517944,0.00676913
2403.29398682,0.00693668
2405.22279419,0.00691102
2407.15160156,0.00700997
2409.08040894,0.00686641
2411.00921631,0.00679303
2412.93802368,0.00691896
2414.86683105,0.00677508
2416.79563843,0.00679942
2418.72444580,0.00681583
2420.65325317,0.00679119
2422.58206055,0.00683470
2424.51086792,0.00677274
2426.43967529,0.00673304
2428.36848267,0.00674027
2430.29729004,0.00679480
2432.22609741,0.00676631
2434.15490479,0.00671880
2436.08371216,0.00676625
2438.01251953,0.00678693
2439.94132690,0.00674263
2441.87013428,0.00670486
2443.79894165,0.00667035
2445.72774902,0.00667155
2447.65655640,0.00668182
2449.58536377,0.00662308
2451.51417114,0.00664700
2453.44297852,0.00666237
2455.37178589,0.00666182
2457.30059326,0.00663857
2459.22940063,0.00657161
2461.15820801,0.00660545
2463.08701538,0.00655472
2465.01582275,0.00652723
2466.94463013,0.00661304
2468.87343750,0.00663879
2470.80224487,0.00656605
2472.73105225,0.00651949
2474.65985962,0.00650574
2476.58866699,0.00643762
2478.51747437,0.00648134
2480.44628174,0.00647602
2482.37508911,0.00650863
2484.30389648,0.00658070
2486.23270386,0.00648686
2488.16151123,0.00648128
2490.09031860,0.00645124
2492.01912598,0.00641183
2493.94793335,0.00642538
2495.87674072,0.00646391
2497.80554810,0.00646310
2499.73435547,0.00640575
2501.66316284,0.00651913
2503.59197021,0.00646377
2505.52077759,0.00637722
2507.44958496,0.00640379
2509.37839233,0.00629180
2511.30719971,0.00631908
2513.23600708,0.00636718
2515.16481445,0.00640696
2517.09362183,0.00640251
2519.02242920,0.00628059
2520.95123657,0.00627883
2522.88004395,0.00622551
2524.80885132,0.00628865
2526.73765869,0.00640393
2528.66646606,0.00637062
2530.59527344,0.00643709
2532.52408081,0.00631096
2534.45288818,0.00626458
2536.38169556,0.00640006
2538.31050293,0.00620973
2540.23931030,0.00609958
2542.16811768,0.00612389
2544.09692505,0.00616343
2546.02573242,0.00625945
2547.95453979,0.00627494
2549.88334717,0.00628685
2551.81215454,0.00613273
2553.74096191,0.00610715
2555.66976929,0.00624327
2557.59857666,0.00614840
2559.52738403,0.00612225
2561.45619141,0.00619624
2563.38499878,0.00616412
2565.31380615,0.00608788
2567.24261353,0.00610123
2569.17142090,0.00613519
2571.10022827,0.00610320
2573.02903564,0.00605863
2574.95784302,0.00606271
2576.88665039,0.00616509
2578.81545776,0.00607289
2580.74426514,0.00597563
2582.67307251,0.00605268
2584.60187988,0.00598289
2586.53068726,0.00597084
2588.45949463,0.00600255
2590.38830200,0.00602694
2592.31710937,0.00610038
2594.24591675,0.00597786
2596.17472412,0.00591350
2598.10353149,0.00599774
2600.03233887,0.00592305
2601.96114624,0.00588098
2603.88995361,0.00596289
2605.81876099,0.00596853
2607.74756836,0.00597433
2609.67637573,0.00591037
2611.60518311,0.00581004
2613.53399048,0.00589473
2615.46279785,0.00587727
2617.39160522,0.00579878
2619.32041260,0.00594718
2621.24921997,0.00597332
2623.17802734,0.00582564
2625.10683472,0.00577802
2627.03564209,0.00588650
2628.96444946,0.00599058
2630.89325684,0.00585651
2632.82206421,0.00586977
2634.75087158,0.00589986
2636.67967895,0.00568181
2638.60848633,0.00573455
2640.53729370,0.00573169
2642.46610107,0.00571804
2644.39490845,0.00585409
2646.32371582,0.00570068
2648.25252319,0.00569462
2650.18133057,0.00577076
2652.11013794,0.00571205
2654.03894531,0.00572979
2655.96775269,0.00576214
2657.89656006,0.00582455
2659.82536743,0.00579577
2661.75417480,0.00574072
2663.68298218,0.00571326
2665.61178955,0.00572042
2667.54059692,0.00579697
2669.46940430,0.00575992
2671.39821167,0.00563508
2673.32701904,0.00558542
2675.25582642,0.00563575
2677.18463379,0.00562300
2679.11344116,0.00561086
2681.04224854,0.00568254
2682.97105591,0.00570596
2684.89986328,0.00566760
2686.82867065,0.00560859
2688.75747803,0.00561425
2690.68628540,0.00561443
2692.61509277,0.00554095
2694.54390015,0.00555005
2696.47270752,0.00568825
2698.40151489,0.00568233
2700.33032227,0.00558693
2702.25912964,0.00557579
2704.18793701,0.00549701
2706.11674438,0.00553764
2708.04555176,0.00553268
2709.97435913,0.00547404
2711.90316650,0.00558926
2713.83197388,0.00551924
2715.76078125,0.00548699
2717.68958862,0.00555271
2719.61839600,0.00550566
2721.54720337,0.00547453
2723.47601074,0.00540759
2725.40481812,0.00536644
2727.33362549,0.00535644
2729.26243286,0.00540247
2731.19124023,0.00544212
2733.12004761,0.00544001
2735.04885498,0.00543926
2736.97766235,0.00534115
2738.90646973,0.00532608
2740.83527710,0.00529463
2742.76408447,0.00528514
2744.69289185,0.00547952
2746.62169922,0.00543871
2748.55050659,0.00527742
2750.47931396,0.00532011
2752.40812134,0.00536740
2754.33692871,0.00535125
2756.26573608,0.00524326
2758.19454346,0.00520026
2760.12335083,0.00523895
2762.05215820,0.00519047
2763.98096558,0.00527153
2765.90977295,0.00530588
2767.83858032,0.00520701
2769.76738770,0.00527211
2771.69619507,0.00532403
2773.62500244,0.00527115
2775.55380981,0.00517191
2777.48261719,0.00518238
2779.41142456,0.00520092
2781.34023193,0.00506995
2783.26903931,0.00520303
2785.19784668,0.00524688
2787.12665405,0.00507747
2789.05546143,0.00514862
2790.98426880,0.00509467
2792.91307617,0.00509604
2794.84188354,0.00516297
2796.77069092,0.00497457
2798.69949829,0.00503020
2800.62830566,0.00511649
2802.55711304,0.00503317
2804.48592041,0.00505559
2806.41472778,0.00504846
2808.34353516,0.00505885
2810.27234253,0.00495327
2812.20114990,0.00486833
2814.12995728,0.00498244
2816.05876465,0.00492629
2817.98757202,0.00491059
2819.91637939,0.00496029
2821.84518677,0.00489291
2823.77399414,0.00488755
2825.70280151,0.00488721
2827.63160889,0.00494324
2829.56041626,0.00493382
2831.48922363,0.00486193
2833.41803101,0.00488334
2835.34683838,0.00482089
2837.27564575,0.00482168
2839.20445312,0.00491039
2841.13326050,0.00493221
2843.06206787,0.00485034
2844.99087524,0.00475703
2846.91968262,0.00477636
2848.84848999,0.00472126
2850.77729736,0.00467425
2852.70610474,0.00470385
2854.63491211,0.00476029
2856.56371948,0.00475004
2858.49252686,0.00465242
2860.42133423,0.00471660
2862.35014160,0.00470237
2864.27894897,0.00471832
2866.20775635,0.00479838
2868.13656372,0.00463020
2870.06537109,0.00460637
2871.99417847,0.00468156
2873.92298584,0.00464998
2875.85179321,0.00461971
2877.78060059,0.00455599
2879.70940796,0.00455879
2881.63821533,0.00468294
2883.56702270,0.00472093
2885.49583008,0.00460774
2887.42463745,0.00459401
2889.35344482,0.00461284
2891.28225220,0.00460478
2893.21105957,0.00465549
2895.13986694,0.00465393
2897.06867432,0.00452499
2898.99748169,0.00443836
2900.92628906,0.00451656
2902.85509644,0.00449136
2904.78390381,0.00440995
2906.71271118,0.00437480
2908.64151855,0.00442617
2910.57032593,0.00445841
2912.49913330,0.00438839
2914.42794067,0.00445784
2916.35674805,0.00435006
2918.28555542,0.00430014
2920.21436279,0.00440378
2922.14317017,0.00432243
2924.07197754,0.00431745
2926.00078491,0.00435001
2927.92959229,0.00435697
2929.85839966,0.00423580
2931.78720703,0.00430151
2933.71601440,0.00438946
2935.64482178,0.00427834
2937.57362915,0.00440684
2939.50243652,0.00436538
2941.43124390,0.00433652
2943.36005127,0.00434836
2945.28885864,0.00432232
2947.21766602,0.00432853
2949.14647339,0.00412714
2951.07528076,0.00423137
2953.00408813,0.00427316
2954.93289551,0.00428490
2956.86170288,0.00441769
2958.79051025,0.00426025
2960.71931763,0.00426528
2962.64812500,0.00425329
2964.57693237,0.00417307
2966.50573975,0.00421211
2968.43454712,0.00424790
2970.36335449,0.00424593
2972.29216187,0.00422220
2974.22096924,0.00425338
2976.14977661,0.00419008
2978.07858398,0.00425240
2980.00739136,0.00427774
2981.93619873,0.00416739
2983.86500610,0.00423956
2985.79381348,0.00415164
2987.72262085,0.00407698
2989.65142822,0.00422727
2991.58023560,0.00424060
2993.50904297,0.00422677
2995.43785034,0.00420402
2997.36665771,0.00411279
2999.29546509,0.00410162
3001.22427246,0.00402769
3003.15307983,0.00401586
3005.08188721,0.00408554
3007.01069458,0.00400518
3008.93950195,0.00401036
3010.86830933,0.00405534
3012.79711670,0.00401103
3014.72592407,0.00401741
3016.65473145,0.00402593
3018.58353882,0.00400613
3020.51234619,0.00399239
3022.44115356,0.00397427
3024.36996094,0.00399949
3026.29876831,0.00403573
3028.22757568,0.00402714
3030.15638306,0.00395499
3032.08519043,0.00381528
3034.01399780,0.00391469
3035.94280518,0.00400714
3037.87161255,0.00392263
3039.80041992,0.00396402
3041.72922729,0.00391746
3043.65803467,0.00393351
3045.58684204,0.00393487
3047.51564941,0.00386529
3049.44445679,0.00388680
3051.37326416,0.00393104
3053.30207153,0.00398419
3055.23087891,0.00382574
3057.15968628,0.00390146
3059.08849365,0.00394051
3061.01730103,0.00379380
3062.94610840,0.00386489
3064.87491577,0.00379318
3066.80372314,0.00383289
3068.73253052,0.00378560
3070.66133789,0.00378685
3072.59014526,0.00390657
3074.51895264,0.00375969
3076.44776001,0.00376248
3078.37656738,0.00376017
3080.30537476,0.00378639
3082.23418213,0.00369945
3084.16298950,0.00362468
3086.09179687,0.00378020
3088.02060425,0.00374050
3089.94941162,0.00374612
3091.87821899,0.00369802
3093.80702637,0.00368805
3095.73583374,0.00379913
3097.66464111,0.00378587
3099.59344849,0.00371994
3101.52225586,0.00364212
3103.45106323,0.00373565
3105.37987061,0.00374718
3107.30867798,0.00363264
3109.23748535,0.00364913
3111.16629272,0.00370586
3113.09510010,0.00367022
3115.02390747,0.00365133
3116.95271484,0.00369561
3118.88152222,0.00364950
3120.81032959,0.00366665
3122.73913696,0.00363913
3124.66794434,0.00354517
3126.59675171,0.00350073
3128.52555908,0.00355116
3130.45436645,0.00368152
3132.38317383,0.00356357
3134.31198120,0.00351094
3136.24078857,0.00361461
3138.16959595,0.00348200
3140.09840332,0.00332697
3142.02721069,0.00335269
3143.95601807,0.00337223
3145.88482544,0.00338162
3147.81363281,0.00337056
3149.74244019,0.00332258
3151.67124756,0.00343704
3153.60005493,0.00343279
3155.52886230,0.00342588
3157.45766968,0.00344652
3159.38647705,0.00331096
3161.31528442,0.00340847
3163.24409180,0.00338393
3165.17289917,0.00333076
3167.10170654,0.00338752
3169.03051392,0.00327445
3170.95932129,0.00330918
3172.88812866,0.00336065
3174.81693604,0.00337902
3176.74574341,0.00335627
3178.67455078,0.00330854
3180.60335815,0.00329865
3182.53216553,0.00323884
3184.46097290,0.00331709
3186.38978027,0.00330619
3188.31858765,0.00318775
3190.24739502,0.00320914
3192.17620239,0.00323733
3194.10500977,0.00315221
3196.03381714,0.00317714
3197.96262451,0.00332161
3199.89143188,0.00318029
3201.82023926,0.00310145
3203.74904663,0.00319119
3205.67785400,0.00314047
3207.60666138,0.00310637
3209.53546875,0.00307592
3211.46427612,0.00317403
3213.39308350,0.00315937
3215.32189087,0.00299052
3217.25069824,0.00312312
3219.17950562,0.00314224
3221.10831299,0.00300856
3223.03712036,0.00302881
3224.96592773,0.00302291
3226.89473511,0.00305327
3228.82354248,0.00311943
3230.75234985,0.00316963
3232.68115723,0.00311432
3234.60996460,0.00296806
3236.53877197,0.00302547
3238.46757935,0.00311325
3240.39638672,0.00303221
3242.32519409,0.00299001
3244.25400146,0.00299818
3246.18280884,0.00294042
3248.11161621,0.00298515
3250.04042358,0.00310836
3251.96923096,0.00298747
3253.89803833,0.00291709
3255.82684570,0.00304535
3257.75565308,0.00297303
3259.68446045,0.00289234
3261.61326782,0.00295563
3263.54207520,0.00301247
3265.47088257,0.00301210
3267.39968994,0.00290305
3269.32849731,0.00292194
3271.25730469,0.00299464
3273.18611206,0.00299824
3275.11491943,0.00305701
3277.04372681,0.00298155
3278.97253418,0.00290881
3280.90134155,0.00296882
3282.83014893,0.00297314
3284.75895630,0.00292625
3286.68776367,0.00295081
3288.61657104,0.00305945
3290.54537842,0.00303002
3292.47418579,0.00293779
3294.40299316,0.00297242
3296.33180054,0.00302981
3298.26060791,0.00303216
3300.18941528,0.00305657
3302.11822266,0.00303970
3304.04703003,0.00295977
3305.97583740,0.00300569
3307.90464478,0.00297793
3309.83345215,0.00297427
3311.76225952,0.00302847
3313.69106689,0.00297384
3315.61987427,0.00303550
3317.54868164,0.00293765
3319.47748901,0.00292730
3321.40629639,0.00309345
3323.33510376,0.00299321
3325.26391113,0.00293783
3327.19271851,0.00290959
3329.12152588,0.00294210
3331.05033325,0.00301495
3332.97914062,0.00295398
3334.90794800,0.00296598
3336.83675537,0.00291155
3338.76556274,0.00285253
3340.69437012,0.00294896
3342.62317749,0.00300942
3344.55198486,0.00292268
3346.48079224,0.00288030
3348.40959961,0.00300473
3350.33840698,0.00299438
3352.26721436,0.00290234
3354.19602173,0.00295290
3356.12482910,0.00298876
3358.05363647,0.00297347
3359.98244385,0.00291349
3361.91125122,0.00291025
3363.84005859,0.00296982
3365.76886597,0.00289414
3367.69767334,0.00289622
3369.62648071,0.00287886
3371.55528809,0.00283336
3373.48409546,0.00292119
3375.41290283,0.00280089
3377.34171020,0.00281537
3379.27051758,0.00291152
3381.19932495,0.00281333
3383.12813232,0.00287881
3385.05693970,0.00288598
3386.98574707,0.00287967
3388.91455444,0.00289394
3390.84336182,0.00277816
3392.77216919,0.00276773
3394.70097656,0.00284820
3396.62978394,0.00289278
3398.55859131,0.00285873
3400.48739868,0.00284736
3402.41620605,0.00284088
3404.34501343,0.00281330
3406.27382080,0.00279645
3408.20262817,0.00276015
3410.13143555,0.00280599
3412.06024292,0.00284115
3413.98905029,0.00279727
3415.91785767,0.00277383
3417.84666504,0.00273163
3419.77547241,0.00269831
3421.70427979,0.00279088
3423.63308716,0.00283109
3425.56189453,0.00277046
3427.49070190,0.00274088
3429.41950928,0.00271644
3431.34831665,0.00276240
3433.27712402,0.00276736
3435.20593140,0.00275003
3437.13473877,0.00270787
3439.06354614,0.00267425
3440.99235352,0.00278200
3442.92116089,0.00271028
3444.84996826,0.00265934
3446.77877563,0.00274426
3448.70758301,0.00273934
3450.63639038,0.00273501
3452.56519775,0.00273923
3454.49400513,0.00278247
3456.42281250,0.00268882
3458.35161987,0.00264903
3460.28042725,0.00272407
3462.20923462,0.00268411
3464.13804199,0.00271572
3466.06684937,0.00261611
3467.99565674,0.00254009
3469.92446411,0.00267178
3471.85327148,0.00274384
3473.78207886,0.00277407
3475.71088623,0.00266169
3477.63969360,0.00260149
3479.56850098,0.00266906
3481.49730835,0.00263710
3483.42611572,0.00260545
3485.35492310,0.00261838
3487.28373047,0.00266697
3489.21253784,0.00264248
3491.14134521,0.00265744
3493.07015259,0.00270976
3494.99895996,0.00256869
3496.92776733,0.00252275
3498.85657471,0.00259462
3500.78538208,0.00264072
3502.71418945,0.00263064
3504.64299683,0.00258990
3506.57180420,0.00264905
3508.50061157,0.00260712
3510.42941895,0.00257995
3512.35822632,0.00260932
3514.28703369,0.00259827
3516.21584106,0.00264475
3518.14464844,0.00265716
3520.07345581,0.00272032
3522.00226318,0.00271673
3523.93107056,0.00263533
3525.85987793,0.00261598
3527.78868530,0.00262763
3529.71749268,0.00268594
3531.64630005,0.00269591
3533.57510742,0.00269416
3535.50391479,0.00260468
3537.43272217,0.00257087
3539.36152954,0.00261041
3541.29033691,0.00258257
3543.21914429,0.00267650
3545.14795166,0.00260199
3547.07675903,0.00253575
3549.00556641,0.00260981
3550.93437378,0.00253180
3552.86318115,0.00262720
3554.79198853,0.00268427
3556.72079590,0.00253566
3558.64960327,0.00257608
3560.57841064,0.00270431
3562.50721802,0.00267853
3564.43602539,0.00261699
3566.36483276,0.00252723
3568.29364014,0.00243507
3570.22244751,0.00264124
3572.15125488,0.00270379
3574.08006226,0.00254957
3576.00886963,0.00267720
3577.93767700,0.00267524
3579.86648437,0.00254023
3581.79529175,0.00255437
3583.72409912,0.00265891
3585.65290649,0.00263201
3587.58171387,0.00239968
3589.51052124,0.00249787
3591.43932861,0.00264955
3593.36813599,0.00254673
3595.29694336,0.00252916
3597.22575073,0.00262130
3599.15455811,0.00266586
3601.08336548,0.00255500
3603.01217285,0.00260464
3604.94098022,0.00265354
3606.86978760,0.00249460
3608.79859497,0.00241635
3610.72740234,0.00249107
3612.65620972,0.00254382
3614.58501709,0.00254036
3616.51382446,0.00262523
3618.44263184,0.00238503
3620.37143921,0.00240257
3622.30024658,0.00262938
3624.22905395,0.00254402
3626.15786133,0.00270724
3628.08666870,0.00225996
3630.01547607,0.00212664
3631.94428345,0.00267681
3633.87309082,0.00259596
3635.80189819,0.00264417
3637.73070557,0.00262977
3639.65951294,0.00262678
3641.58832031,0.00270387
3643.51712769,0.00265468
3645.44593506,0.00271612
3647.37474243,0.00246996
3649.30354980,0.00226428
3651.23235718,0.00228548
3653.16116455,0.00262449
3655.08997192,0.00256042
3657.01877930,0.00237957
3658.94758667,0.00270124
3660.87639404,0.00258566
3662.80520142,0.00261398
3664.73400879,0.00261020
3666.66281616,0.00265293
3668.59162354,0.00248517
3670.52043091,0.00200541
3672.44923828,0.00253273
3674.37804565,0.00240696
3676.30685303,0.00210236
3678.23566040,0.00258862
3680.16446777,0.00257418
3682.09327515,0.00254678
3684.02208252,0.00259355
3685.95088989,0.00266428
3687.87969727,0.00242859
3689.80850464,0.00222496
3691.73731201,0.00255246
3693.66611938,0.00264474
3695.59492676,0.00263607
3697.52373413,0.00256904
3699.45254150,0.00255085
3701.38134888,0.00248754
3703.31015625,0.00251120
3705.23896362,0.00265427
3707.16777100,0.00246501
3709.09657837,0.00250044
3711.02538574,0.00231556
3712.95419312,0.00222001
3714.88300049,0.00255711
3716.81180786,0.00254333
3718.74061523,0.00256952
3720.66942261,0.00241220
3722.59822998,0.00240566
3724.52703735,0.00252513
3726.45584473,0.00233463
3728.38465210,0.00251935
3730.31345947,0.00247940
3732.24226685,0.00227955
3734.17107422,0.00227717
3736.09988159,0.00217998
3738.02868896,0.00221311
3739.95749634,0.00242830
3741.88630371,0.00255144
3743.81511108,0.00203675
3745.74391846,0.00201540
3747.67272583,0.00246722
3749.60153320,0.00202643
3751.53034058,0.00192701
3753.45914795,0.00224327
3755.38795532,0.00233990
3757.31676270,0.00244249
3759.24557007,0.00224568
3761.17437744,0.00233446
3763.10318481,0.00248795
3765.03199219,0.00237539
3766.96079956,0.00247805
3768.88960693,0.00232971
3770.81841431,0.00222424
3772.74722168,0.00237268
3774.67602905,0.00240429
3776.60483643,0.00252838
3778.53364380,0.00239997
3780.46245117,0.00233094
3782.39125854,0.00253032
3784.32006592,0.00241962
3786.24887329,0.00236643
3788.17768066,0.00249616
3790.10648804,0.00240344
3792.03529541,0.00230725
3793.96410278,0.00245642
3795.89291016,0.00227510
3797.82171753,0.00225948
3799.75052490,0.00233123
3801.67933228,0.00187740
3803.60813965,0.00221947
3805.53694702,0.00225643
3807.46575439,0.00201398
3809.39456177,0.00246715
3811.32336914,0.00231738
3813.25217651,0.00239327
3815.18098389,0.00216541
3817.10979126,0.00196642
3819.03859863,0.00234274
3820.96740601,0.00195177
3822.89621338,0.00215187
3824.82502075,0.00240901
3826.75382812,0.00220932
3828.68263550,0.00232755
3830.61144287,0.00219835
3832.54025024,0.00213839
3834.46905762,0.00220292
3836.39786499,0.00213643
3838.32667236,0.00197359
3840.25547974,0.00214817
3842.18428711,0.00223424
3844.11309448,0.00214998
3846.04190186,0.00235048
3847.97070923,0.00224542
3849.89951660,0.00226257
3851.82832397,0.00198110
3853.75713135,0.00145950
3855.68593872,0.00189714
3857.61474609,0.00232836
3859.54355347,0.00217150
3861.47236084,0.00219754
3863.40116821,0.00218890
3865.32997559,0.00198177
3867.25878296,0.00216859
3869.18759033,0.00200394
3871.11639770,0.00186161
3873.04520508,0.00220578
3874.97401245,0.00199798
3876.90281982,0.00213591
3878.83162720,0.00222272
3880.76043457,0.00195716
3882.68924194,0.00218633
3884.61804932,0.00200569
3886.54685669,0.00202907
3888.47566406,0.00230673
3890.40447144,0.00201314
3892.33327881,0.00200522
3894.26208618,0.00221063
3896.19089355,0.00221626
3898.11970093,0.00213467
3900.04850830,0.00199902
3901.97731567,0.00197092
3903.90612305,0.00195404
3905.83493042,0.00205153
3907.76373779,0.00217530
3909.69254517,0.00213537
3911.62135254,0.00217551
3913.55015991,0.00214310
3915.47896728,0.00207774
3917.40777466,0.00204929
3919.33658203,0.00204083
3921.26538940,0.00213853
3923.19419678,0.00204796
3925.12300415,0.00196410
3927.05181152,0.00200788
3928.98061890,0.00208715
3930.90942627,0.00212455
3932.83823364,0.00204930
3934.76704102,0.00213901
3936.69584839,0.00213066
3938.62465576,0.00203440
3940.55346313,0.00209331
3942.48227051,0.00202849
3944.41107788,0.00196670
3946.33988525,0.00206241
3948.26869263,0.00207441
3950.19750000,0.00210822
3952.12630737,0.00213943
3954.05511475,0.00197449
3955.98392212,0.00199511
3957.91272949,0.00206039
3959.84153687,0.00205271
3961.77034424,0.00206725
3963.69915161,0.00200283
3965.62795898,0.00208862
3967.55676636,0.00201898
3969.48557373,0.00195943
3971.41438110,0.00202205
3973.34318848,0.00196957
3975.27199585,0.00204910
3977.20080322,0.00196712
3979.12961060,0.00190179
3981.05841797,0.00204844
3982.98722534,0.00209276
3984.91603271,0.00205048
3986.84484009,0.00204611
3988.77364746,0.00206196
3990.70245483,0.00198654
3992.63126221,0.00196874
3994.56006958,0.00194294
3996.48887695,0.00198381
3998.41768433,0.00206764
4000.34649170,0.00199396
4002.27529907,0.00197191
4004.20410645,0.00196098
4006.13291382,0.00194590
4008.06172119,0.00190603
4009.99052856,0.00194210
4011.91933594,0.00201836
4013.84814331,0.00190686
4015.77695068,0.00191319
4017.70575806,0.00195385
4019.63456543,0.00189242
4021.56337280,0.00190516
4023.49218018,0.00188384
4025.42098755,0.00193659
4027.34979492,0.00201968
4029.27860229,0.00189953
4031.20740967,0.00188431
4033.13621704,0.00189962
4035.06502441,0.00181069
4036.99383179,0.00192464
4038.92263916,0.00193656
4040.85144653,0.00185814
4042.78025391,0.00193224
4044.70906128,0.00194955
4046.63786865,0.00186292
4048.56667603,0.00182301
4050.49548340,0.00191270
4052.42429077,0.00187315
4054.35309814,0.00182843
4056.28190552,0.00184457
4058.21071289,0.00184287
4060.13952026,0.00194648
4062.06832764,0.00189472
4063.99713501,0.00182653
4065.92594238,0.00187746
4067.85474976,0.00191336
4069.78355713,0.00189887
4071.71236450,0.00187609
4073.64117187,0.00187812
4075.56997925,0.00178874
4077.49878662,0.00177740
4079.42759399,0.00178087
4081.35640137,0.00180552
4083.28520874,0.00181979
4085.21401611,0.00175721
4087.14282349,0.00182048
4089.07163086,0.00180425
4091.00043823,0.00183859
4092.92924561,0.00187993
4094.85805298,0.00182758
4096.78686035,0.00181046
4098.71566772,0.00176043
4100.64447510,0.00184477
4102.57328247,0.00183802
4104.50208984,0.00179888
4106.43089722,0.00184351
4108.35970459,0.00182361
4110.28851196,0.00181067
4112.21731934,0.00177758
4114.14612671,0.00180718
4116.07493408,0.00177980
4118.00374145,0.00185737
4119.93254883,0.00182448
4121.86135620,0.00163241
4123.79016357,0.00174815
4125.71897095,0.00168182
4127.64777832,0.00169023
4129.57658569,0.00181968
4131.50539307,0.00172334
4133.43420044,0.00174206
4135.36300781,0.00171215
4137.29181519,0.00177318
4139.22062256,0.00175933
4141.14942993,0.00167515
4143.07823730,0.00177203
4145.00704468,0.00169651
4146.93585205,0.00171874
4148.86465942,0.00173891
4150.79346680,0.00163571
4152.72227417,0.00174608
4154.65108154,0.00178989
4156.57988892,0.00169546
4158.50869629,0.00171099
4160.43750366,0.00168546
4162.36631103,0.00162818
4164.29511841,0.00175937
4166.22392578,0.00171254
4168.15273315,0.00158720
4170.08154053,0.00170516
4172.01034790,0.00166160
4173.93915527,0.00158858
4175.86796265,0.00168104
4177.79677002,0.00169651
4179.72557739,0.00167816
4181.65438477,0.00166499
4183.58319214,0.00167289
4185.51199951,0.00172186
4187.44080688,0.00169177
4189.36961426,0.00170067
4191.29842163,0.00169725
4193.22722900,0.00165897
4195.15603638,0.00181116
4197.08484375,0.00172615
4199.01365112,0.00157275
4200.94245850,0.00168976
4202.87126587,0.00165688
4204.80007324,0.00162045
4206.72888062,0.00162497
4208.65768799,0.00162831
4210.58649536,0.00165397
4212.51530273,0.00160079
4214.44411011,0.00156757
4216.37291748,0.00156057
4218.30172485,0.00161074
4220.23053223,0.00162032
4222.15933960,0.00160660
4224.08814697,0.00154266
4226.01695435,0.00151847
4227.94576172,0.00158341
4229.87456909,0.00154596
4231.80337646,0.00160891
4233.73218384,0.00161641
4235.66099121,0.00158112
4237.58979858,0.00156968
4239.51860596,0.00151708
4241.44741333,0.00156817
4243.37622070,0.00154588
4245.30502808,0.00154938
4247.23383545,0.00147413
4249.16264282,0.00150187
4251.09145020,0.00164477
4253.02025757,0.00151562
4254.94906494,0.00151330
4256.87787231,0.00155112
4258.80667969,0.00156820
4260.73548706,0.00151288
4262.66429443,0.00143679
4264.59310181,0.00157569
4266.52190918,0.00150124
4268.45071655,0.00148261
4270.37952393,0.00151954
4272.30833130,0.00146760
4274.23713867,0.00152469
4276.16594604,0.00149832
4278.09475342,0.00151378
4280.02356079,0.00142859
4281.95236816,0.00143801
4283.88117554,0.00156881
4285.80998291,0.00145050
4287.73879028,0.00148851
4289.66759766,0.00156239
4291.59640503,0.00149180
4293.52521240,0.00145589
4295.45401978,0.00143997
4297.38282715,0.00150022
4299.31163452,0.00147674
4301.24044189,0.00139319
4303.16924927,0.00138060
4305.09805664,0.00143492
4307.02686401,0.00148218
4308.95567139,0.00137150
4310.88447876,0.00137995
4312.81328613,0.00152871
4314.74209351,0.00142939
4316.67090088,0.00136843
4318.59970825,0.00146868
4320.52851562,0.00142882
4322.45732300,0.00143701
4324.38613037,0.00142911
4326.31493774,0.00138256
4328.24374512,0.00148249
4330.17255249,0.00150872
4332.10135986,0.00151316
4334.03016724,0.00143451
4335.95897461,0.00134795
4337.88778198,0.00143027
4339.81658936,0.00140215
4341.74539673,0.00140074
4343.67420410,0.00135975
4345.60301147,0.00129134
4347.53181885,0.00140778
4349.46062622,0.00139936
4351.38943359,0.00136078
4353.31824097,0.00138255
4355.24704834,0.00138502
4357.17585571,0.00140826
4359.10466309,0.00140402
4361.03347046,0.00139941
4362.96227783,0.00136688
4364.89108520,0.00136945
4366.81989258,0.00138317
4368.74869995,0.00141303
4370.67750732,0.00142489
4372.60631470,0.00130526
4374.53512207,0.00132945
4376.46392944,0.00140146
4378.39273682,0.00134827
4380.32154419,0.00141912
4382.25035156,0.00143031
4384.17915894,0.00131093
4386.10796631,0.00134693
4388.03677368,0.00138957
4389.96558105,0.00134388
4391.89438843,0.00132879
4393.82319580,0.00132020
4395.75200317,0.00133509
4397.68081055,0.00131769
4399.60961792,0.00130600
4401.53842529,0.00134142
4403.46723267,0.00131001
4405.39604004,0.00130940
4407.32484741,0.00132980
4409.25365478,0.00129147
4411.18246216,0.00125849
4413.11126953,0.00126913
4415.04007690,0.00136494
4416.96888428,0.00135231
4418.89769165,0.00127163
4420.82649902,0.00131658
4422.75530640,0.00131008
4424.68411377,0.00131281
4426.61292114,0.00132941
4428.54172852,0.00129882
4430.47053589,0.00127861
4432.39934326,0.00127146
4434.32815063,0.00134407
4436.25695801,0.00127575
4438.18576538,0.00125297
4440.11457275,0.00135912
4442.04338013,0.00126384
4443.97218750,0.00123113
4445.90099487,0.00128633
4447.82980225,0.00125343
4449.75860962,0.00121941
4451.68741699,0.00127596
4453.61622437,0.00130746
4455.54503174,0.00130063
4457.47383911,0.00126572
4459.40264648,0.00113082
4461.33145386,0.00122462
4463.26026123,0.00125291
4465.18906860,0.00120208
4467.11787598,0.00128714
4469.04668335,0.00120268
4470.97549072,0.00123029
4472.90429810,0.00126985
4474.83310547,0.00123553
4476.76191284,0.00119976
4478.69072021,0.00121211
4480.61952759,0.00123974
4482.54833496,0.00110913
4484.47714233,0.00121272
4486.40594971,0.00124251
4488.33475708,0.00120070
4490.26356445,0.00123292
4492.19237183,0.00110060
4494.12117920,0.00115513
4496.04998657,0.00120620
4497.97879395,0.00119033
4499.90760132,0.00120223
4501.83640869,0.00120540
4503.76521606,0.00121827
4505.69402344,0.00121610
4507.62283081,0.00120808
4509.55163818,0.00112500
4511.48044556,0.00119424
4513.40925293,0.00124334
4515.33806030,0.00120889
4517.26686768,0.00118083
4519.19567505,0.00114118
4521.12448242,0.00119507
4523.05328979,0.00119047
4524.98209717,0.00120289
4526.91090454,0.00113981
4528.83971191,0.00115757
4530.76851929,0.00123670
4532.69732666,0.00111700
4534.62613403,0.00113322
4536.55494141,0.00114275
4538.48374878,0.00109514
4540.41255615,0.00111689
4542.34136353,0.00110650
4544.27017090,0.00115519
4546.19897827,0.00119251
4548.12778564,0.00114544
4550.05659302,0.00114151
4551.98540039,0.00108987
4553.91420776,0.00106934
4555.84301514,0.00117557
4557.77182251,0.00108249
4559.70062988,0.00106953
4561.62943726,0.00111554
4563.55824463,0.00108811
4565.48705200,0.00117915
4567.41585937,0.00108921
4569.34466675,0.00106899
4571.27347412,0.00108467
4573.20228149,0.00103531
4575.13108887,0.00109253
4577.05989624,0.00108836
4578.98870361,0.00108661
4580.91751099,0.00112316
4582.84631836,0.00117305
4584.77512573,0.00105582
4586.70393311,0.00100551
4588.63274048,0.00107861
4590.56154785,0.00106158
4592.49035522,0.00107992
4594.41916260,0.00107699
4596.34796997,0.00112900
4598.27677734,0.00111962
4600.20558472,0.00111245
4602.13439209,0.00106162
4604.06319946,0.00103390
4605.99200684,0.00111452
4607.92081421,0.00099709
4609.84962158,0.00110300
4611.77842895,0.00115335
4613.70723633,0.00098265
4615.63604370,0.00103310
4617.56485107,0.00106010
4619.49365845,0.00099646
4621.42246582,0.00101905
4623.35127319,0.00109630
4625.28008057,0.00103488
4627.20888794,0.00105881
4629.13769531,0.00105036
4631.06650269,0.00103191
4632.99531006,0.00110308
4634.92411743,0.00098805
4636.85292480,0.00102732
4638.78173218,0.00099100
4640.71053955,0.00096942
4642.63934692,0.00104520
4644.56815430,0.00094152
4646.49696167,0.00099375
4648.42576904,0.00102653
4650.35457642,0.00106243
4652.28338379,0.00104717
4654.21219116,0.00101790
4656.14099853,0.00105164
4658.06980591,0.00095180
4659.99861328,0.00101684
4661.92742065,0.00103392
4663.85622803,0.00100839
4665.78503540,0.00105276
4667.71384277,0.00098654
4669.64265015,0.00101448
4671.57145752,0.00100163
4673.50026489,0.00095683
4675.42907227,0.00098937
4677.35787964,0.00094624
4679.28668701,0.00098150
4681.21549438,0.00104047
4683.14430176,0.00100214
4685.07310913,0.00101267
4687.00191650,0.00098711
4688.93072388,0.00101384
4690.85953125,0.00101835
4692.78833862,0.00091659
4694.71714600,0.00098965
4696.64595337,0.00103773
4698.57476074,0.00099212
4700.50356812,0.00092627
4702.43237549,0.00094327
4704.36118286,0.00105327
4706.28999023,0.00095893
4708.21879761,0.00094307
4710.14760498,0.00097195
4712.07641235,0.00086394
4714.00521973,0.00092049
4715.93402710,0.00098155
4717.86283447,0.00093997
4719.79164185,0.00092495
4721.72044922,0.00090016
4723.64925659,0.00091793
4725.57806396,0.00092274
4727.50687134,0.00094246
4729.43567871,0.00100297
4731.36448608,0.00094798
4733.29329346,0.00093523
4735.22210083,0.00088474
4737.15090820,0.00087423
4739.07971558,0.00096127
4741.00852295,0.00089899
4742.93733032,0.00097613
4744.86613770,0.00094029
4746.79494507,0.00083602
4748.72375244,0.00090845
4750.65255981,0.00086540
4752.58136719,0.00088835
4754.51017456,0.00090960
4756.43898193,0.00093003
4758.36778931,0.00091160
4760.29659668,0.00090851
4762.22540405,0.00098257
4764.15421143,0.00088158
4766.08301880,0.00087762
4768.01182617,0.00090031
4769.94063354,0.00088037
4771.86944092,0.00087527
4773.79824829,0.00086320
4775.72705566,0.00087597
4777.65586304,0.00084770
4779.58467041,0.00095542
4781.51347778,0.00094685
4783.44228516,0.00083114
4785.37109253,0.00087109
4787.29989990,0.00091706
4789.22870728,0.00088034
4791.15751465,0.00085030
4793.08632202,0.00090198
4795.01512939,0.00083537
4796.94393677,0.00080527
4798.87274414,0.00086054
4800.80155151,0.00082896
4802.73035889,0.00081269
4804.65916626,0.00083589
4806.58797363,0.00086901
4808.51678101,0.00086942
4810.44558838,0.00090163
4812.37439575,0.00086728
4814.30320312,0.00083478
4816.23201050,0.00085644
4818.16081787,0.00083894
4820.08962524,0.00085303
4822.01843262,0.00080970
4823.94723999,0.00088429
4825.87604736,0.00090383
4827.80485474,0.00080876
4829.73366211,0.00088413
4831.66246948,0.00083891
4833.59127686,0.00080361
4835.52008423,0.00086158
4837.44889160,0.00080951
4839.37769897,0.00080618
4841.30650635,0.00084014
4843.23531372,0.00083558
4845.16412109,0.00082087
4847.09292847,0.00082493
4849.02173584,0.00079106
4850.95054321,0.00077844
4852.87935059,0.00085709
4854.80815796,0.00080968
4856.73696533,0.00077639
4858.66577270,0.00083443
4860.59458008,0.00077525
4862.52338745,0.00079649
4864.45219482,0.00080935
4866.38100220,0.00075425
4868.30980957,0.00081556
4870.23861694,0.00084580
4872.16742432,0.00085588
4874.09623169,0.00084102
4876.02503906,0.00082589
4877.95384644,0.00081649
4879.88265381,0.00078575
4881.81146118,0.00081759
4883.74026855,0.00075551
4885.66907593,0.00072752
4887.59788330,0.00079890
4889.52669067,0.00078825
4891.45549805,0.00077744
4893.38430542,0.00076530
4895.31311279,0.00075867
4897.24192017,0.00077013
4899.17072754,0.00073528
4901.09953491,0.00079194
4903.02834228,0.00084598
4904.95714966,0.00074718
4906.88595703,0.00074220
4908.81476440,0.00072540
4910.74357178,0.00075700
4912.67237915,0.00086554
4914.60118652,0.00069570
4916.52999390,0.00063186
4918.45880127,0.00072336
4920.38760864,0.00075158
4922.31641602,0.00076729
4924.24522339,0.00072293
4926.17403076,0.00079191
4928.10283813,0.00081674
4930.03164551,0.00077099
4931.96045288,0.00075282
4933.88926025,0.00073671
4935.81806763,0.00077014
4937.74687500,0.00072961
4939.67568237,0.00070557
4941.60448975,0.00072432
4943.53329712,0.00075002
4945.46210449,0.00075924
4947.39091187,0.00075688
4949.31971924,0.00081344
4951.24852661,0.00072682
4953.17733398,0.00065926
4955.10614136,0.00076680
4957.03494873,0.00076904
4958.96375610,0.00075353
4960.89256348,0.00074495
4962.82137085,0.00070151
4964.75017822,0.00074618
4966.67898560,0.00069769
4968.60779297,0.00069167
4970.53660034,0.00074162
4972.46540771,0.00068353
4974.39421509,0.00074685
4976.32302246,0.00073933
4978.25182983,0.00064489
4980.18063721,0.00071649
4982.10944458,0.00076521
4984.03825195,0.00065919
4985.96705933,0.00065723
4987.89586670,0.00075462
4989.82467407,0.00072663
4991.75348145,0.00074521
4993.68228882,0.00068539
4995.61109619,0.00064051
4997.53990356,0.00070714
4999.46871094,0.00064903
5001.39751831,0.00065946
5003.32632568,0.00065835
5005.25513306,0.00062939
5007.18394043,0.00063237
5009.11274780,0.00071140
5011.04155518,0.00070966
5012.97036255,0.00057610
5014.89916992,0.00068289
5016.82797729,0.00070696
5018.75678467,0.00074260
5020.68559204,0.00080192
5022.61439941,0.00067666
5024.54320679,0.00065466
5026.47201416,0.00063585
5028.40082153,0.00066526
5030.32962891,0.00066329
5032.25843628,0.00069666
5034.18724365,0.00068393
5036.11605103,0.00055883
5038.04485840,0.00064756
5039.97366577,0.00069185
5041.90247314,0.00070769
5043.83128052,0.00070537
5045.76008789,0.00068265
5047.68889526,0.00069078
5049.61770264,0.00062039
5051.54651001,0.00064976
5053.47531738,0.00063729
5055.40412476,0.00062512
5057.33293213,0.00067412
5059.26173950,0.00062972
5061.19054687,0.00065373
5063.11935425,0.00070310
5065.04816162,0.00063320
5066.97696899,0.00059459
5068.90577637,0.00060722
5070.83458374,0.00065306
5072.76339111,0.00070107
5074.69219849,0.00059998
5076.62100586,0.00062731
5078.54981323,0.00067617
5080.47862061,0.00061770
5082.40742798,0.00066472
5084.33623535,0.00060885
5086.26504272,0.00058507
5088.19385010,0.00061682
5090.12265747,0.00064071
5092.05146484,0.00068833
5093.98027222,0.00065532
5095.90907959,0.00062937
5097.83788696,0.00061074
5099.76669434,0.00066292
5101.69550171,0.00060218
5103.62430908,0.00055550
5105.55311645,0.00067749
5107.48192383,0.00062091
5109.41073120,0.00057588
5111.33953857,0.00058207
5113.26834595,0.00059722
5115.19715332,0.00062165
5117.12596069,0.00054527
5119.05476807,0.00062805
5120.98357544,0.00065966
5122.91238281,0.00057826
5124.84119019,0.00062590
5126.76999756,0.00058868
5128.69880493,0.00064264
5130.62761230,0.00068440
5132.55641968,0.00052179
5134.48522705,0.00060071
5136.41403442,0.00065479
5138.34284180,0.00055882
5140.27164917,0.00060815
5142.20045654,0.00059532
5144.12926392,0.00055848
5146.05807129,0.00060381
5147.98687866,0.00063292
5149.91568603,0.00060937
5151.84449341,0.00060859
5153.77330078,0.00061477
5155.70210815,0.00058510
5157.63091553,0.00058123
5159.55972290,0.00060174
5161.48853027,0.00058792
5163.41733765,0.00053478
5165.34614502,0.00058367
5167.27495239,0.00057164
5169.20375977,0.00057410
5171.13256714,0.00059449
5173.06137451,0.00050642
5174.99018188,0.00059677
5176.91898926,0.00055660
5178.84779663,0.00056572
5180.77660400,0.00063247
5182.70541138,0.00047392
5184.63421875,0.00052937
5186.56302612,0.00054433
5188.49183350,0.00055616
5190.42064087,0.00056908
5192.34944824,0.00046578
5194.27825562,0.00057593
5196.20706299,0.00062005
5198.13587036,0.00053671
5200.06467773,0.00053311
5201.99348511,0.00058169
5203.92229248,0.00054646
5205.85109985,0.00048513
5207.77990723,0.00046654
5209.70871460,0.00048978
5211.63752197,0.00055580
5213.56632935,0.00048641
5215.49513672,0.00048979
5217.42394409,0.00056614
5219.35275146,0.00053967
5221.28155884,0.00053898
5223.21036621,0.00058438
5225.13917358,0.00052263
5227.06798096,0.00046508
5228.99678833,0.00062278
5230.92559570,0.00057208
5232.85440308,0.00043029
5234.78321045,0.00051575
5236.71201782,0.00055182
5238.64082520,0.00050296
5240.56963257,0.00048528
5242.49843994,0.00056225
5244.42724731,0.00056574
5246.35605469,0.00054797
5248.28486206,0.00055824
5250.21366943,0.00054968
5252.14247681,0.00055738
5254.07128418,0.00052247
5256.00009155,0.00056170
5257.92889893,0.00050525
5259.85770630,0.00046637
5261.78651367,0.00053729
5263.71532104,0.00051431
5265.64412842,0.00056451
5267.57293579,0.00053834
5269.50174316,0.00046003
5271.43055054,0.00053596
5273.35935791,0.00054610
5275.28816528,0.00049072
5277.21697266,0.00054094
5279.14578003,0.00053823
5281.07458740,0.00053272
5283.00339478,0.00056981
5284.93220215,0.00046056
5286.86100952,0.00046526
5288.78981689,0.00053396
5290.71862427,0.00053187
5292.64743164,0.00053243
5294.57623901,0.00048402
5296.50504639,0.00051868
5298.43385376,0.00051877
5300.36266113,0.00050197
5302.29146851,0.00053720
5304.22027588,0.00052903
5306.14908325,0.00053031
5308.07789062,0.00052501
5310.00669800,0.00048748
5311.93550537,0.00042476
5313.86431274,0.00045132
5315.79312012,0.00049719
5317.72192749,0.00048922
5319.65073486,0.00053206
5321.57954224,0.00054326
5323.50834961,0.00046121
5325.43715698,0.00044844
5327.36596436,0.00051159
5329.29477173,0.00047767
5331.22357910,0.00048189
5333.15238647,0.00047497
5335.08119385,0.00044780
5337.01000122,0.00048332
5338.93880859,0.00043900
5340.86761597,0.00046332
5342.79642334,0.00046512
5344.72523071,0.00046159
5346.65403809,0.00050213
5348.58284546,0.00045484
5350.51165283,0.00050499
5352.44046020,0.00049614
5354.36926758,0.00044032
5356.29807495,0.00048623
5358.22688232,0.00046361
5360.15568970,0.00042210
5362.08449707,0.00043050
5364.01330444,0.00040719
5365.94211182,0.00040058
5367.87091919,0.00049381
5369.79972656,0.00053033
5371.72853394,0.00049531
5373.65734131,0.00045905
5375.58614868,0.00046518
5377.51495605,0.00048351
5379.44376343,0.00040642
5381.37257080,0.00040275
5383.30137817,0.00044417
5385.23018555,0.00044006
5387.15899292,0.00040358
5389.08780029,0.00042883
5391.01660767,0.00050921
5392.94541504,0.00041570
5394.87422241,0.00038645
5396.80302978,0.00046329
5398.73183716,0.00046774
5400.66064453,0.00047483
5402.58945190,0.00044580
5404.51825928,0.00036261
5406.44706665,0.00034821
5408.37587402,0.00044795
5410.30468140,0.00042599
5412.23348877,0.00039358
5414.16229614,0.00042583
5416.09110352,0.00043068
5418.01991089,0.00047694
5419.94871826,0.00039290
5421.87752563,0.00041650
5423.80633301,0.00044917
5425.73514038,0.00036510
5427.66394775,0.00043757
5429.59275513,0.00036227
5431.52156250,0.00031102
5433.45036987,0.00037758
5435.37917725,0.00037976
5437.30798462,0.00041417
5439.23679199,0.00036629
5441.16559936,0.00040164
5443.09440674,0.00045360
5445.02321411,0.00040197
5446.95202148,0.00044422
5448.88082886,0.00042889
5450.80963623,0.00040718
5452.73844360,0.00046324
5454.66725098,0.00040224
5456.59605835,0.00039614
5458.52486572,0.00045535
5460.45367310,0.00041644
5462.38248047,0.00042234
5464.31128784,0.00043937
5466.24009521,0.00046254
5468.16890259,0.00044730
5470.09770996,0.00039231
5472.02651733,0.00040252
5473.95532471,0.00034155
5475.88413208,0.00039738
5477.81293945,0.00047370
5479.74174683,0.00038374
5481.67055420,0.00037875
5483.59936157,0.00038540
5485.52816895,0.00038522
5487.45697632,0.00040173
5489.38578369,0.00042818
5491.31459106,0.00043089
5493.24339844,0.00041316
5495.17220581,0.00045429
5497.10101318,0.00040726
5499.02982056,0.00042998
5500.95862793,0.00046772
5502.88743530,0.00035718
5504.81624268,0.00033616
5506.74505005,0.00038808
5508.67385742,0.00037885
5510.60266479,0.00032363
5512.53147217,0.00037862
5514.46027954,0.00041299
5516.38908691,0.00035611
5518.31789429,0.00038961
5520.24670166,0.00038794
5522.17550903,0.00037574
5524.10431641,0.00039124
5526.03312378,0.00037222
5527.96193115,0.00035285
5529.89073853,0.00036835
5531.81954590,0.00042679
5533.74835327,0.00039373
5535.67716064,0.00035859
5537.60596802,0.00041488
5539.53477539,0.00038639
5541.46358276,0.00031717
5543.39239014,0.00036402
5545.32119751,0.00039788
5547.25000488,0.00034191
5549.17881226,0.00039002
5551.10761963,0.00043397
5553.03642700,0.00032710
5554.96523437,0.00030105
5556.89404175,0.00035863
5558.82284912,0.00033964
5560.75165649,0.00030971
5562.68046387,0.00035280
5564.60927124,0.00036142
5566.53807861,0.00031482
5568.46688599,0.00035680
5570.39569336,0.00036834
5572.32450073,0.00032471
5574.25330811,0.00033630
5576.18211548,0.00033846
5578.11092285,0.00034188
5580.03973022,0.00033677
5581.96853760,0.00035640
5583.89734497,0.00035753
5585.82615234,0.00035942
5587.75495972,0.00041691
5589.68376709,0.00035378
5591.61257446,0.00032604
5593.54138184,0.00036234
5595.47018921,0.00034684
5597.39899658,0.00035312
5599.32780395,0.00033280
5601.25661133,0.00034334
5603.18541870,0.00037528
5605.11422607,0.00040618
5607.04303345,0.00039214
5608.97184082,0.00034407
5610.90064819,0.00033766
5612.82945557,0.00029898
5614.75826294,0.00033541
5616.68707031,0.00035394
5618.61587769,0.00028798
5620.54468506,0.00034295
5622.47349243,0.00037379
5624.40229980,0.00031821
5626.33110718,0.00034439
5628.25991455,0.00032650
5630.18872192,0.00030638
5632.11752930,0.00039478
5634.04633667,0.00033972
5635.97514404,0.00031700
5637.90395142,0.00038727
5639.83275879,0.00032925
5641.76156616,0.00033935
5643.69037353,0.00034888
5645.61918091,0.00028556
5647.54798828,0.00028428
5649.47679565,0.00036597
5651.40560303,0.00038956
5653.33441040,0.00030586
5655.26321777,0.00035110
5657.19202515,0.00036598
5659.12083252,0.00031246
5661.04963989,0.00039415
5662.97844727,0.00040733
5664.90725464,0.00030937
5666.83606201,0.00030877
5668.76486938,0.00037985
5670.69367676,0.00034925
5672.62248413,0.00032087
5674.55129150,0.00035108
5676.48009888,0.00034330
5678.40890625,0.00035468
5680.33771362,0.00029107
5682.26652100,0.00024352
5684.19532837,0.00036887
5686.12413574,0.00037265
5688.05294311,0.00030132
5689.98175049,0.00034311
5691.91055786,0.00029126
5693.83936523,0.00027480
5695.76817261,0.00032842
5697.69697998,0.00028684
5699.62578735,0.00030147
5701.55459473,0.00032533
5703.48340210,0.00029923
5705.41220947,0.00028469
5707.34101685,0.00028819
5709.26982422,0.00024986
5711.19863159,0.00023728
5713.12743896,0.00038519
5715.05624634,0.00035762
5716.98505371,0.00024977
5718.91386108,0.00036896
5720.84266846,0.00031671
5722.77147583,0.00020508
5724.70028320,0.00030047
5726.62909058,0.00029441
5728.55789795,0.00029284
5730.48670532,0.00028847
5732.41551270,0.00023470
5734.34432007,0.00033680
5736.27312744,0.00026459
5738.20193481,0.00026498
5740.13074219,0.00039168
5742.05954956,0.00025214
5743.98835693,0.00028817
5745.91716431,0.00032075
5747.84597168,0.00024411
5749.77477905,0.00027346
5751.70358643,0.00025541
5753.63239380,0.00033351
5755.56120117,0.00030602
5757.49000854,0.00023453
5759.41881592,0.00030229
5761.34762329,0.00030602
5763.27643066,0.00031410
5765.20523804,0.00033661
5767.13404541,0.00028940
5769.06285278,0.00022406
5770.99166016,0.00029899
5772.92046753,0.00034724
5774.84927490,0.00027134
5776.77808228,0.00027336
5778.70688965,0.00025431
5780.63569702,0.00025308
5782.56450439,0.00027787
5784.49331177,0.00023893
5786.42211914,0.00029267
5788.35092651,0.00033016
5790.27973389,0.00027655
5792.20854126,0.00030844
5794.13734863,0.00033876
5796.06615601,0.00029163
5797.99496338,0.00023700
5799.92377075,0.00025430
5801.85257812,0.00035309
5803.78138550,0.00030962
5805.71019287,0.00022563
5807.63900024,0.00027407
5809.56780762,0.00022789
5811.49661499,0.00017038
5813.42542236,0.00023537
5815.35422974,0.00022308
5817.28303711,0.00024415
5819.21184448,0.00032316
5821.14065186,0.00025097
5823.06945923,0.00026422
5824.99826660,0.00031067
5826.92707397,0.00027319
5828.85588135,0.00031184
5830.78468872,0.00025018
5832.71349609,0.00022399
5834.64230347,0.00027851
5836.57111084,0.00025579
5838.49991821,0.00028087
5840.42872559,0.00030911
5842.35753296,0.00028594
5844.28634033,0.00024714
5846.21514770,0.00026872
5848.14395508,0.00030204
5850.07276245,0.00031751
5852.00156982,0.00028493
5853.93037720,0.00019391
5855.85918457,0.00025901
5857.78799194,0.00029880
5859.71679932,0.00026725
5861.64560669,0.00028838
5863.57441406,0.00023998
5865.50322144,0.00024442
5867.43202881,0.00026851
5869.36083618,0.00023304
5871.28964355,0.00022307
5873.21845093,0.00022239
5875.14725830,0.00021447
5877.07606567,0.00025322
5879.00487305,0.00028750
5880.93368042,0.00020804
5882.86248779,0.00017825
5884.79129517,0.00023710
5886.72010254,0.00026033
5888.64890991,0.00024386
5890.57771728,0.00023499
5892.50652466,0.00028499
5894.43533203,0.00027386
5896.36413940,0.00019430
5898.29294678,0.00017827
5900.22175415,0.00022652
5902.15056152,0.00029128
5904.07936890,0.00026525
5906.00817627,0.00018316
5907.93698364,0.00025444
5909.86579102,0.00033032
5911.79459839,0.00023852
5913.72340576,0.00019495
5915.65221313,0.00019071
5917.58102051,0.00021691
5919.50982788,0.00029946
5921.43863525,0.00025083
5923.36744263,0.00023975
5925.29625000,0.00030349
5927.22505737,0.00029356
5929.15386475,0.00026259
5931.08267212,0.00024660
5933.01147949,0.00026496
5934.94028686,0.00018347
5936.86909424,0.00019504
5938.79790161,0.00030490
5940.72670898,0.00025573
5942.65551636,0.00020570
5944.58432373,0.00017875
5946.51313110,0.00026503
5948.44193848,0.00023842
5950.37074585,0.00016570
5952.29955322,0.00032536
5954.22836060,0.00029426
5956.15716797,0.00024878
5958.08597534,0.00025399
5960.01478271,0.00020561
5961.94359009,0.00020820
5963.87239746,0.00022752
5965.80120483,0.00028064
5967.73001221,0.00019836
5969.65881958,0.00023770
5971.58762695,0.00024741
5973.51643433,0.00015336
5975.44524170,0.00020030
5977.37404907,0.00018145
5979.30285645,0.00024679
5981.23166382,0.00026330
5983.16047119,0.00021927
5985.08927856,0.00020012
5987.01808594,0.00026113
5988.94689331,0.00032670
5990.87570068,0.00017094
5992.80450806,0.00021331
5994.73331543,0.00021393
5996.66212280,0.00017943
5998.59093018,0.00025670
6000.51973755,0.00018868
