399.26312622,0.00231724
401.19193359,0.00269562
403.12074097,0.00342960
405.04954834,0.00354165
406.97835571,0.00398595
408.90716309,0.00405702
410.83597046,0.00383179
412.76477783,0.00391187
414.69358521,0.00385733
416.62239258,0.00433131
418.55119995,0.00356611
420.48000732,0.00397317
422.40881470,0.00446216
424.33762207,0.00333141
426.26642944,0.00409244
428.19523682,0.00432756
430.12404419,0.00437701
432.05285156,0.00461597
433.98165894,0.00406044
435.91046631,0.00396180
437.83927368,0.00402809
439.76808105,0.00436561
441.69688843,0.00394520
443.62569580,0.00385635
445.55450317,0.00405858
447.48331055,0.00374862
449.41211792,0.00381918
451.34092529,0.00377972
453.26973267,0.00366339
455.19854004,0.00316132
457.12734741,0.00298565
459.05615479,0.00281493
460.98496216,0.00249296
462.91376953,0.00290729
464.84257690,0.00270927
466.77138428,0.00240268
468.70019165,0.00242616
470.62899902,0.00190336
472.55780640,0.00197593
474.48661377,0.00205487
476.41542114,0.00133640
478.34422852,0.00155031
480.27303589,0.00126516
482.20184326,0.00059143
484.13065063,0.00107417
486.05945801,0.00100688
487.98826538,0.00084425
489.91707275,0.00096639
491.84588013,0.00115702
493.77468750,0.00077320
495.70349487,0.00055490
497.63230225,0.00099095
499.56110962,0.00046808
501.48991699,0.00082441
503.41872437,0.00103903
505.34753174,0.00083240
507.27633911,0.00089354
509.20514648,0.00036809
511.13395386,0.00065969
513.06276123,0.00026945
514.99156860,0.00039465
516.92037598,0.00075136
518.84918335,0.00037751
520.77799072,0.00092147
522.70679810,0.00039035
524.63560547,0.00008691
526.56441284,0.00052322
528.49322021,0.00073166
530.42202759,0.00074746
532.35083496,0.00014666
534.27964233,0.00042645
536.20844971,0.00075678
538.13725708,0.00060220
540.06606445,0.00057519
541.99487183,0.00054791
543.92367920,0.00087854
545.85248657,0.00077813
547.78129395,0.00017020
549.71010132,0.00012855
551.63890869,0.00035515
553.56771606,0.00031533
555.49652344,0.00018340
557.42533081,0.00028274
559.35413818,0.00037401
561.28294556,0.00021704
563.21175293,0.00055959
565.14056030,0.00079358
567.06936768,0.00046699
568.99817505,0.00018455
570.92698242,-0.00000777
572.85578979,0.00023444
574.78459717,0.00036332
576.71340454,0.00052725
578.64221191,0.00072801
580.57101929,0.00038077
582.49982666,0.00038496
584.42863403,0.00035428
586.35744141,0.00048476
588.28624878,0.00060921
590.21505615,0.00023370
592.14386353,0.00033565
594.07267090,0.00035151
596.00147827,0.00041337
597.93028564,0.00017265
599.85909302,-0.00035796
601.78790039,0.00009578
603.71670776,0.00035350
605.64551514,0.00016289
607.57432251,0.00039889
609.50312988,0.00058722
611.43193726,0.00044178
613.36074463,0.00021879
615.28955200,0.00019241
617.21835938,0.00015388
619.14716675,0.00014900
621.07597412,0.00046861
623.00478149,0.00050521
624.93358887,0.00037759
626.86239624,0.00026667
628.79120361,-0.00000913
630.72001099,0.00097649
632.64881836,0.00226917
634.57762573,0.00233440
636.50643311,0.00275021
638.43524048,0.00324527
640.36404785,0.00299639
642.29285522,0.00346726
644.22166260,0.00432649
646.15046997,0.00437667
648.07927734,0.00454468
650.00808472,0.00502022
651.93689209,0.00516395
653.86569946,0.00530972
655.79450684,0.00524758
657.72331421,0.00540292
659.65212158,0.00616836
661.58092896,0.00606298
663.50973633,0.00615489
665.43854370,0.00666403
667.36735107,0.00581578
669.29615845,0.00629565
671.22496582,0.00751192
673.15377319,0.00731752
675.08258057,0.00798986
677.01138794,0.00848064
678.94019531,0.00790945
680.86900269,0.00797203
682.79781006,0.00839884
684.72661743,0.00811315
686.65542480,0.00786752
688.58423218,0.00832021
690.51303955,0.00828237
692.44184692,0.00864204
694.37065430,0.00928110
696.29946167,0.01003111
698.22826904,0.01210162
700.15707642,0.01276360
702.08588379,0.01210324
704.01469116,0.01170001
705.94349854,0.01020621
707.87230591,0.00862508
709.80111328,0.00690176
711.72992065,0.00498821
713.65872803,0.00357841
715.58753540,0.00176878
717.51634277,0.00112425
719.44515015,0.00117519
721.37395752,0.00081537
723.30276489,0.00090680
725.23157227,0.00029937
727.16037964,0.00018249
729.08918701,0.00054281
731.01799438,0.00019416
732.94680176,0.00037698
734.87560913,0.00032638
736.80441650,0.00013342
738.73322388,0.00035717
740.66203125,0.00033721
742.59083862,0.00009908
744.51964600,0.00029471
746.44845337,0.00071968
748.37726074,0.00037362
750.30606812,0.00042641
752.23487549,0.00074448
754.16368286,0.00020461
756.09249023,0.00011701
758.02129761,0.00057892
759.95010498,0.00066718
761.87891235,0.00071932
763.80771973,0.00077138
765.73652710,0.00076128
767.66533447,0.00082487
769.59414185,0.00067807
771.52294922,0.00072023
773.45175659,0.00078236
775.38056396,0.00074173
777.30937134,0.00066797
779.23817871,0.00068154
781.16698608,0.00100358
783.09579346,0.00065054
785.02460083,0.00078034
786.95340820,0.00110006
788.88221558,0.00072950
790.81102295,0.00097331
792.73983032,0.00099687
794.66863770,0.00103978
796.59744507,0.00118065
798.52625244,0.00147789
800.45505981,0.00192484
802.38386719,0.00166976
804.31267456,0.00145902
806.24148193,0.00123483
808.17028931,0.00125165
810.09909668,0.00097430
812.02790405,0.00084415
813.95671143,0.00109782
815.88551880,0.00071812
817.81432617,0.00090001
819.74313354,0.00073623
821.67194092,0.00053255
823.60074829,0.00093094
825.52955566,0.00104412
827.45836304,0.00135686
829.38717041,0.00144090
831.31597778,0.00198621
833.24478516,0.00275858
835.17359253,0.00260796
837.10239990,0.00259708
839.03120728,0.00299506
840.96001465,0.00284672
842.88882202,0.00251749
844.81762939,0.00221501
846.74643677,0.00176985
848.67524414,0.00188671
850.60405151,0.00189937
852.53285889,0.00185658
854.46166626,0.00169920
856.39047363,0.00119372
858.31928101,0.00114377
860.24808838,0.00107425
862.17689575,0.00109597
864.10570313,0.00103386
866.03451050,0.00096272
867.96331787,0.00077912
869.89212524,0.00057790
871.82093262,0.00078647
873.74973999,0.00074151
875.67854736,0.00093588
877.60735474,0.00051758
879.53616211,0.00050489
881.46496948,0.00098490
883.39377686,0.00029485
885.32258423,0.00059498
887.25139160,0.00072483
889.18019897,0.00034552
891.10900635,0.00064755
893.03781372,0.00048567
894.96662109,0.00048576
896.89542847,0.00055555
898.82423584,0.00060729
900.75304321,0.00071893
902.68185059,0.00083165
904.61065796,0.00100933
906.53946533,0.00098744
908.46827271,0.00097404
910.39708008,0.00098700
912.32588745,0.00127401
914.25469482,0.00124143
916.18350220,0.00140516
918.11230957,0.00182972
920.04111694,0.00170769
921.96992432,0.00203702
923.89873169,0.00219872
925.82753906,0.00237628
927.75634644,0.00276752
929.68515381,0.00284747
931.61396118,0.00323948
933.54276855,0.00322860
935.47157593,0.00339233
937.40038330,0.00380707
939.32919067,0.00379496
941.25799805,0.00379828
943.18680542,0.00388074
945.11561279,0.00418866
947.04442017,0.00402609
948.97322754,0.00391515
950.90203491,0.00396175
952.83084229,0.00376707
954.75964966,0.00383203
956.68845703,0.00360632
958.61726440,0.00382195
960.54607178,0.00402973
962.47487915,0.00374726
964.40368652,0.00394958
966.33249390,0.00415825
968.26130127,0.00435165
970.19010864,0.00454048
972.11891602,0.00469178
974.04772339,0.00475813
975.97653076,0.00526973
977.90533813,0.00600824
979.83414551,0.00595387
981.76295288,0.00656839
983.69176025,0.00762419
985.62056763,0.00823065
987.54937500,0.00929102
989.47818237,0.01028127
991.40698975,0.01101133
993.33579712,0.01236078
995.26460449,0.01363393
997.19341187,0.01432323
999.12221924,0.01577168
1001.05102661,0.01722856
1002.97983398,0.01805799
1004.90864136,0.01938246
1006.83744873,0.02062801
1008.76625610,0.02182394
1010.69506348,0.02329111
1012.62387085,0.02454640
1014.55267822,0.02557553
1016.48148560,0.02671492
1018.41029297,0.02830661
1020.33910034,0.02971658
1022.26790771,0.03078172
1024.19671509,0.03200155
1026.12552246,0.03300110
1028.05432983,0.03402360
1029.98313721,0.03535741
1031.91194458,0.03623672
1033.84075195,0.03686859
1035.76955933,0.03741541
1037.69836670,0.03763957
1039.62717407,0.03782284
1041.55598145,0.03775964
1043.48478882,0.03755879
1045.41359619,0.03726646
1047.34240356,0.03678555
1049.27121094,0.03612763
1051.20001831,0.03552853
1053.12882568,0.03516246
1055.05763306,0.03423593
1056.98644043,0.03329136
1058.91524780,0.03275611
1060.84405518,0.03189117
1062.77286255,0.03084222
1064.70166992,0.02963108
1066.63047729,0.02850427
1068.55928467,0.02750661
1070.48809204,0.02626457
1072.41689941,0.02510756
1074.34570679,0.02383842
1076.27451416,0.02263773
1078.20332153,0.02188459
1080.13212891,0.02066325
1082.06093628,0.01952562
1083.98974365,0.01886026
1085.91855103,0.01788867
1087.84735840,0.01718829
1089.77616577,0.01647821
1091.70497314,0.01562137
1093.63378052,0.01498924
1095.56258789,0.01439085
1097.49139526,0.01392833
1099.42020264,0.01356821
1101.34901001,0.01341942
1103.27781738,0.01291061
1105.20662476,0.01256301
1107.13543213,0.01275305
1109.06423950,0.01238408
1110.99304687,0.01207368
1112.92185425,0.01201615
1114.85066162,0.01181552
1116.77946899,0.01173001
1118.70827637,0.01165204
1120.63708374,0.01157813
1122.56589111,0.01165380
1124.49469849,0.01197351
1126.42350586,0.01221481
1128.35231323,0.01235188
1130.28112061,0.01273938
1132.20992798,0.01313892
1134.13873535,0.01353554
1136.06754272,0.01407523
1137.99635010,0.01464705
1139.92515747,0.01550245
1141.85396484,0.01653385
1143.78277222,0.01773452
1145.71157959,0.01894277
1147.64038696,0.01987853
1149.56919434,0.02117533
1151.49800171,0.02233638
1153.42680908,0.02312141
1155.35561646,0.02430188
1157.28442383,0.02543225
1159.21323120,0.02602689
1161.14203857,0.02699552
1163.07084595,0.02835673
1164.99965332,0.02929730
1166.92846069,0.03059138
1168.85726807,0.03163217
1170.78607544,0.03250649
1172.71488281,0.03389882
1174.64369019,0.03501036
1176.57249756,0.03657367
1178.50130493,0.03793567
1180.43011230,0.03912669
1182.35891968,0.04087558
1184.28772705,0.04273415
1186.21653442,0.04489634
1188.14534180,0.04678833
1190.07414917,0.04879672
1192.00295654,0.05113433
1193.93176392,0.05352335
1195.86057129,0.05597598
1197.78937866,0.05849506
1199.71818604,0.06114381
1201.64699341,0.06365508
1203.57580078,0.06637590
1205.50460815,0.06902823
1207.43341553,0.07149687
1209.36222290,0.07372990
1211.29103027,0.07592523
1213.21983765,0.07819729
1215.14864502,0.08015275
1217.07745239,0.08206767
1219.00625977,0.08362340
1220.93506714,0.08485655
1222.86387451,0.08557887
1224.79268188,0.08645540
1226.72148926,0.08752172
1228.65029663,0.08768485
1230.57910400,0.08794820
1232.50791138,0.08824521
1234.43671875,0.08824906
1236.36552612,0.08820388
1238.29433350,0.08806081
1240.22314087,0.08780213
1242.15194824,0.08748481
1244.08075562,0.08709671
1246.00956299,0.08657134
1247.93837036,0.08634942
1249.86717773,0.08582579
1251.79598511,0.08506399
1253.72479248,0.08396853
1255.65359985,0.08280885
1257.58240723,0.08186816
1259.51121460,0.08036132
1261.44002197,0.07927596
1263.36882935,0.07810159
1265.29763672,0.07698207
1267.22644409,0.07637903
1269.15525146,0.07527509
1271.08405884,0.07407187
1273.01286621,0.07279001
1274.94167358,0.07146056
1276.87048096,0.06999669
1278.79928833,0.06867285
1280.72809570,0.06736509
1282.65690308,0.06588705
1284.58571045,0.06474691
1286.51451782,0.06359408
1288.44332520,0.06243789
1290.37213257,0.06144777
1292.30093994,0.06110692
1294.22974731,0.06065360
1296.15855469,0.05994629
1298.08736206,0.06001055
1300.01616943,0.06007159
1301.94497681,0.06032250
1303.87378418,0.06103334
1305.80259155,0.06150412
1307.73139893,0.06210109
1309.66020630,0.06346662
1311.58901367,0.06448247
1313.51782104,0.06521674
1315.44662842,0.06693280
1317.37543579,0.06833027
1319.30424316,0.06996244
1321.23305054,0.07266021
1323.16185791,0.07482076
1325.09066528,0.07692990
1327.01947266,0.07929975
1328.94828003,0.08103054
1330.87708740,0.08310378
1332.80589478,0.08533426
1334.73470215,0.08682890
1336.66350952,0.08766527
1338.59231689,0.08677111
1340.52112427,0.08779744
1342.44993164,0.09162846
1344.37873901,0.09243129
1346.30754639,0.09225805
1348.23635376,0.09218171
1350.16516113,0.09127562
1352.09396851,0.09137544
1354.02277588,0.09007984
1355.95158325,0.08903116
1357.88039062,0.08902548
1359.80919800,0.08755951
1361.73800537,0.08334717
1363.66681274,0.08195146
1365.59562012,0.08641479
1367.52442749,0.08458263
1369.45323486,0.08324028
1371.38204224,0.08509052
1373.31084961,0.08020242
1375.23965698,0.08035070
1377.16846436,0.08292018
1379.09727173,0.08266664
1381.02607910,0.08275843
1382.95488647,0.08244380
1384.88369385,0.08255243
1386.81250122,0.07844631
1388.74130859,0.07947201
1390.67011597,0.08666255
1392.59892334,0.08409062
1394.52773071,0.07847863
1396.45653809,0.08242568
1398.38534546,0.08225862
1400.31415283,0.08181651
1402.24296021,0.08876772
1404.17176758,0.08375733
1406.10057495,0.08394763
1408.02938232,0.08776432
1409.95818970,0.08435398
1411.88699707,0.08628084
1413.81580444,0.08313313
1415.74461182,0.08464818
1417.67341919,0.07651263
1419.60222656,0.06739235
1421.53103394,0.07853242
1423.45984131,0.07619877
1425.38864868,0.07351184
1427.31745605,0.07517312
1429.24626343,0.06910562
1431.17507080,0.06700742
1433.10387817,0.06817354
1435.03268555,0.06223195
1436.96149292,0.05196513
1438.89030029,0.05934015
1440.81910767,0.06159763
1442.74791504,0.05658474
1444.67672241,0.05963167
1446.60552979,0.05440763
1448.53433716,0.05495150
1450.46314453,0.05707950
1452.39195190,0.05799022
1454.32075928,0.06037141
1456.24956665,0.04919722
1458.17837402,0.05089423
1460.10718140,0.06906778
1462.03598877,0.07404847
1463.96479614,0.07304953
1465.89360352,0.07594942
1467.82241089,0.08715455
1469.75121826,0.09406752
1471.68002563,0.08285162
1473.60883301,0.08708931
1475.53764038,0.10019308
1477.46644775,0.10780245
1479.39525513,0.11908987
1481.32406250,0.12065230
1483.25286987,0.12839749
1485.18167725,0.13289335
1487.11048462,0.13005900
1489.03929199,0.12941928
1490.96809937,0.12985346
1492.89690674,0.15241449
1494.82571411,0.14948866
1496.75452148,0.13283725
1498.68332886,0.15124080
1500.61213623,0.15650727
1502.54094360,0.16799650
1504.46975098,0.15946779
1506.39855835,0.11349992
1508.32736572,0.13876948
1510.25617310,0.16566184
1512.18498047,0.16006568
1514.11378784,0.17440262
1516.04259521,0.15643498
1517.97140259,0.16282737
1519.90020996,0.15810959
1521.82901733,0.13485882
1523.75782471,0.16689330
1525.68663208,0.16447583
1527.61543945,0.16324224
1529.54424683,0.18214878
1531.47305420,0.17480332
1533.40186157,0.15931059
1535.33066895,0.16891742
1537.25947632,0.18257308
1539.18828369,0.12857796
1541.11709106,0.13306734
1543.04589844,0.16241887
1544.97470581,0.15491998
1546.90351318,0.18525410
1548.83232056,0.17271164
1550.76112793,0.17768219
1552.68993530,0.17744972
1554.61874268,0.15959090
1556.54755005,0.17215076
1558.47635742,0.11928831
1560.40516479,0.12765872
1562.33397217,0.18647842
1564.26277954,0.17623186
1566.19158691,0.18109712
1568.12039429,0.17963877
1570.04920166,0.15774077
1571.97800903,0.18284164
1573.90681641,0.18638670
1575.83562378,0.14588031
1577.76443115,0.16519764
1579.69323853,0.18863782
1581.62204590,0.17992896
1583.55085327,0.18474345
1585.47966064,0.18205053
1587.40846802,0.18327138
1589.33727539,0.18168142
1591.26608276,0.18149404
1593.19489014,0.18197159
1595.12369751,0.17969093
1597.05250488,0.18216833
1598.98131226,0.18092176
1600.91011963,0.18223085
1602.83892700,0.17858997
1604.76773437,0.18178320
1606.69654175,0.17931238
1608.62534912,0.17860627
1610.55415649,0.17852038
1612.48296387,0.17964667
1614.41177124,0.18293492
1616.34057861,0.14780891
1618.26938599,0.15972042
1620.19819336,0.18863377
1622.12700073,0.16650277
1624.05580811,0.16657853
1625.98461548,0.17557900
1627.91342285,0.17482309
1629.84223022,0.17346090
1631.77103760,0.18588574
1633.69984497,0.17141026
1635.62865234,0.13923162
1637.55745972,0.16300346
1639.48626709,0.18121314
1641.41507446,0.17649122
1643.34388184,0.18142958
1645.27268921,0.16309325
1647.20149658,0.14127173
1649.13030396,0.17776404
1651.05911133,0.16986680
1652.98791870,0.10548343
1654.91672607,0.14485854
1656.84553345,0.18562314
1658.77434082,0.17718749
1660.70314819,0.18247887
1662.63195557,0.16496064
1664.56076294,0.17380950
1666.48957031,0.18820266
1668.41837769,0.16323929
1670.34718506,0.15729630
1672.27599243,0.18019463
1674.20479980,0.16622424
1676.13360718,0.15802220
1678.06241455,0.18398815
1679.99122192,0.17692828
1681.92002930,0.17476168
1683.84883667,0.14113209
1685.77764404,0.13776612
1687.70645142,0.19328903
1689.63525879,0.16718864
1691.56406616,0.18351610
1693.49287354,0.18869562
1695.42168091,0.13477142
1697.35048828,0.16806282
1699.27929565,0.14769644
1701.20810303,0.13038972
1703.13691040,0.18179905
1705.06571777,0.16668707
1706.99452515,0.16717148
1708.92333252,0.18309914
1710.85213989,0.17549604
1712.78094727,0.17879762
1714.70975464,0.16539058
1716.63856201,0.14738506
1718.56736938,0.14468554
1720.49617676,0.17283523
1722.42498413,0.18071049
1724.35379150,0.16658559
1726.28259888,0.18191725
1728.21140625,0.16812792
1730.14021362,0.16866162
1732.06902100,0.16498613
1733.99782837,0.12328623
1735.92663574,0.15448977
1737.85544312,0.17298055
1739.78425049,0.15250316
1741.71305786,0.16668186
1743.64186523,0.16923189
1745.57067261,0.16932419
1747.49947998,0.17093095
1749.42828735,0.16319029
1751.35709473,0.15535590
1753.28590210,0.17282903
1755.21470947,0.18205369
1757.14351685,0.16457346
1759.07232422,0.18197238
1761.00113159,0.17116579
1762.92993896,0.16392463
1764.85874634,0.18944603
1766.78755371,0.16958775
1768.71636108,0.17085357
1770.64516846,0.17034796
1772.57397583,0.15158693
1774.50278320,0.16989727
1776.43159058,0.18044679
1778.36039795,0.17775932
1780.28920532,0.17544702
1782.21801270,0.17704353
1784.14682007,0.17669529
1786.07562744,0.17291997
1788.00443481,0.18252201
1789.93324219,0.17788601
1791.86204956,0.15951675
1793.79085693,0.16651671
1795.71966431,0.17995846
1797.64847168,0.17722955
1799.57727905,0.17442855
1801.50608643,0.17128590
1803.43489380,0.17704225
1805.36370117,0.18153271
1807.29250854,0.17858741
1809.22131592,0.17935294
1811.15012329,0.17412964
1813.07893066,0.17966215
1815.00773804,0.18098351
1816.93654541,0.17837073
1818.86535278,0.18006676
1820.79416016,0.17937332
1822.72296753,0.18218100
1824.65177490,0.16945067
1826.58058228,0.17570119
1828.50938965,0.17651972
1830.43819702,0.16444707
1832.36700439,0.18009391
1834.29581177,0.17918399
1836.22461914,0.17864215
1838.15342651,0.17796516
1840.08223389,0.17884733
1842.01104126,0.17977294
1843.93984863,0.15805613
1845.86865601,0.16859746
1847.79746338,0.17906028
1849.72627075,0.17475235
1851.65507812,0.18045732
1853.58388550,0.17668840
1855.51269287,0.17836207
1857.44150024,0.17737782
1859.37030762,0.17626433
1861.29911499,0.17753866
1863.22792236,0.17522693
1865.15672974,0.17734239
1867.08553711,0.17110285
1869.01434448,0.16347882
1870.94315186,0.17022552
1872.87195923,0.17724493
1874.80076660,0.17435394
1876.72957397,0.17517304
1878.65838135,0.17466052
1880.58718872,0.17361175
1882.51599609,0.17520359
1884.44480347,0.17208081
1886.37361084,0.17492476
1888.30241821,0.17086950
1890.23122559,0.16701707
1892.16003296,0.17387182
1894.08884033,0.17120835
1896.01764771,0.17041340
1897.94645508,0.17263240
1899.87526245,0.17152965
1901.80406982,0.17201245
1903.73287720,0.17096546
1905.66168457,0.17166317
1907.59049194,0.16991317
1909.51929932,0.16881308
1911.44810669,0.16989221
1913.37691406,0.17000473
1915.30572144,0.17155255
1917.23452881,0.16378641
1919.16333618,0.16373591
1921.09214355,0.17047879
1923.02095093,0.16481796
1924.94975830,0.16793400
1926.87856567,0.17005453
1928.80737305,0.16792992
1930.73618042,0.17005888
1932.66498779,0.16745496
1934.59379517,0.16925126
1936.52260254,0.16815111
1938.45140991,0.16834545
1940.38021729,0.16842040
1942.30902466,0.16262907
1944.23783203,0.16582179
1946.16663940,0.16766560
1948.09544678,0.16717765
1950.02425415,0.16793555
1951.95306152,0.16739175
1953.88186890,0.16768569
1955.81067627,0.16681817
1957.73948364,0.16738078
1959.66829102,0.16693941
1961.59709839,0.16654685
1963.52590576,0.16719350
1965.45471313,0.16603759
1967.38352051,0.16436189
1969.31232788,0.16553558
1971.24113525,0.16683504
1973.16994263,0.16581397
1975.09875000,0.16634038
1977.02755737,0.16559045
1978.95636475,0.16567692
1980.88517212,0.16555956
1982.81397949,0.16474584
1984.74278687,0.16551003
1986.67159424,0.16402563
1988.60040161,0.16434288
1990.52920898,0.16295302
1992.45801636,0.16082957
1994.38682373,0.16330114
1996.31563110,0.16382560
1998.24443848,0.16290754
2000.17324585,0.16302286
2002.10205322,0.16260019
2004.03086060,0.16215490
2005.95966797,0.16187699
2007.88847534,0.16140780
2009.81728271,0.16146888
2011.74609009,0.16106167
2013.67489746,0.16096047
2015.60370483,0.15997925
2017.53251221,0.15834413
2019.46131958,0.15952811
2021.39012695,0.15939496
2023.31893433,0.15894023
2025.24774170,0.15895808
2027.17654907,0.15827262
2029.10535645,0.15834880
2031.03416382,0.15757903
2032.96297119,0.15757234
2034.89177856,0.15709636
2036.82058594,0.15663576
2038.74939331,0.15664843
2040.67820068,0.15565264
2042.60700806,0.15550181
2044.53581543,0.15545532
2046.46462280,0.15531510
2048.39343018,0.15496007
2050.32223755,0.15462551
2052.25104492,0.15428668
2054.17985229,0.15389581
2056.10865967,0.15372327
2058.03746704,0.15327832
2059.96627441,0.15296502
2061.89508179,0.15275295
2063.82388916,0.15225649
2065.75269653,0.15154386
2067.68150391,0.15198132
2069.61031128,0.15176988
2071.53911865,0.15121883
2073.46792603,0.15131018
2075.39673340,0.15068330
2077.32554077,0.15071121
2079.25434814,0.15033710
2081.18315552,0.15013206
2083.11196289,0.14983696
2085.04077026,0.14932053
2086.96957764,0.14932974
2088.89838501,0.14862788
2090.82719238,0.14865962
2092.75599976,0.14848471
2094.68480713,0.14817786
2096.61361450,0.14799273
2098.54242187,0.14762489
2100.47122925,0.14754038
2102.40003662,0.14710906
2104.32884399,0.14689231
2106.25765137,0.14656660
2108.18645874,0.14651865
2110.11526611,0.14622766
2112.04407349,0.14587301
2113.97288086,0.14567859
2115.90168823,0.14534238
2117.83049561,0.14534780
2119.75930298,0.14495257
2121.68811035,0.14488487
2123.61691772,0.14464343
2125.54572510,0.14446615
2127.47453247,0.14447725
2129.40333984,0.14406164
2131.33214722,0.14384641
2133.26095459,0.14369139
2135.18976196,0.14353479
2137.11856934,0.14309439
2139.04737671,0.14318591
2140.97618408,0.14299960
2142.90499146,0.14267966
2144.83379883,0.14263341
2146.76260620,0.14222249
2148.69141357,0.14232975
2150.62022095,0.14201537
2152.54902832,0.14174715
2154.47783569,0.14166760
2156.40664307,0.14151174
2158.33545044,0.14139012
2160.26425781,0.14113915
2162.19306519,0.14102709
2164.12187256,0.14068672
2166.05067993,0.14066349
2167.97948730,0.14044841
2169.90829468,0.14033622
2171.83710205,0.14012074
2173.76590942,0.13983855
2175.69471680,0.13984621
2177.62352417,0.13954455
2179.55233154,0.13952710
2181.48113892,0.13920030
2183.40994629,0.13918035
2185.33875366,0.13887925
2187.26756104,0.13860635
2189.19636841,0.13880551
2191.12517578,0.13833125
2193.05398315,0.13838586
2194.98279053,0.13812944
2196.91159790,0.13782056
2198.84040527,0.13772976
2200.76921265,0.13756955
2202.69802002,0.13750848
2204.62682739,0.13724184
2206.55563477,0.13719968
2208.48444214,0.13687903
2210.41324951,0.13685387
2212.34205688,0.13666975
2214.27086426,0.13651140
2216.19967163,0.13637577
2218.12847900,0.13595852
2220.05728638,0.13593689
2221.98609375,0.13564008
2223.91490112,0.13554510
2225.84370850,0.13527599
2227.77251587,0.13522151
2229.70132324,0.13510764
2231.63013062,0.13476197
2233.55893799,0.13474458
2235.48774536,0.13434356
2237.41655273,0.13430904
2239.34536011,0.13392171
2241.27416748,0.13367598
2243.20297485,0.13361642
2245.13178223,0.13329208
2247.06058960,0.13321263
2248.98939697,0.13285397
2250.91820435,0.13277084
2252.84701172,0.13246587
2254.77581909,0.13221583
2256.70462646,0.13205934
2258.63343384,0.13195565
2260.56224121,0.13183825
2262.49104858,0.13148981
2264.41985596,0.13148375
2266.34866333,0.13102794
2268.27747070,0.13097383
2270.20627808,0.13095164
2272.13508545,0.13058850
2274.06389282,0.13056245
2275.99270020,0.13042711
2277.92150757,0.13023563
2279.85031494,0.13000295
2281.77912231,0.13016143
2283.70792969,0.12995224
2285.63673706,0.12956536
2287.56554443,0.12934464
2289.49435181,0.12899214
2291.42315918,0.12872216
2293.35196655,0.12828410
2295.28077393,0.12789422
2297.20958130,0.12740512
2299.13838867,0.12710731
2301.06719604,0.12656963
2302.99600342,0.12585935
2304.92481079,0.12529802
2306.85361816,0.12456335
2308.78242554,0.12359452
2310.71123291,0.12227181
2312.64004028,0.12127767
2314.56884766,0.11994845
2316.49765503,0.11838691
2318.42646240,0.11683506
2320.35526978,0.11521398
2322.28407715,0.11357345
2324.21288452,0.11190824
2326.14169189,0.11079669
2328.07049927,0.10934102
2329.99930664,0.10788310
2331.92811401,0.10680135
2333.85692139,0.10652678
2335.78572876,0.10605423
2337.71453613,0.10547829
2339.64334351,0.10581929
2341.57215088,0.10602058
2343.50095825,0.10778257
2345.42976562,0.10975751
2347.35857300,0.11440887
2349.28738037,0.11888091
2351.21618774,0.11438034
2353.14499512,0.10819143
2355.07380249,0.10414347
2357.00260986,0.10059252
2358.93141724,0.09875028
2360.86022461,0.09753858
2362.78903198,0.09737428
2364.71783936,0.09787133
2366.64664673,0.09933446
2368.57545410,0.10137217
2370.50426147,0.10389926
2372.43306885,0.10711221
2374.36187622,0.11021863
2376.29068359,0.11334714
2378.21949097,0.11605144
2380.14829834,0.11820336
2382.07710571,0.11954321
2384.00591309,0.12046526
2385.93472046,0.12087436
2387.86352783,0.12095609
2389.79233521,0.12107499
2391.72114258,0.12082556
2393.64994995,0.12071870
2395.57875732,0.12055891
2397.50756470,0.12039486
2399.43637207,0.12025398
2401.36517944,0.12012994
2403.29398682,0.11989608
2405.22279419,0.11972891
2407.15160156,0.11969617
2409.08040894,0.11940987
2411.00921631,0.11935101
2412.93802368,0.11906898
2414.86683105,0.11891262
2416.79563843,0.11884017
2418.72444580,0.11856927
2420.65325317,0.11854776
2422.58206055,0.11833401
2424.51086792,0.11813016
2426.43967529,0.11802583
2428.36848267,0.11780763
2430.29729004,0.11754189
2432.22609741,0.11766805
2434.15490479,0.11749782
2436.08371216,0.11717442
2438.01251953,0.11715613
2439.94132690,0.11682917
2441.87013428,0.11679628
2443.79894165,0.11657292
2445.72774902,0.11649840
2447.65655640,0.11641158
2449.58536377,0.11605088
2451.51417114,0.11607626
2453.44297852,0.11578985
2455.37178589,0.11569300
2457.30059326,0.11552413
2459.22940063,0.11539698
2461.15820801,0.11523970
2463.08701538,0.11497082
2465.01582275,0.11504519
2466.94463013,0.11470225
2468.87343750,0.11460324
2470.80224487,0.11445220
2472.73105225,0.11429109
2474.65985962,0.11425768
2476.58866699,0.11399370
2478.51747437,0.11401278
2480.44628174,0.11374699
2482.37508911,0.11352633
2484.30389648,0.11343959
2486.23270386,0.11331932
2488.16151123,0.11320043
2490.09031860,0.11288989
2492.01912598,0.11277829
2493.94793335,0.11266770
2495.87674072,0.11244363
2497.80554810,0.11237168
2499.73435547,0.11224964
2501.66316284,0.11200386
2503.59197021,0.11200204
2505.52077759,0.11177211
2507.44958496,0.11154976
2509.37839233,0.11159352
2511.30719971,0.11135089
2513.23600708,0.11113425
2515.16481445,0.11102290
2517.09362183,0.11108348
2519.02242920,0.11085570
2520.95123657,0.11065302
2522.88004395,0.11067103
2524.80885132,0.11030203
2526.73765869,0.11021277
2528.66646606,0.11013574
2530.59527344,0.10995339
2532.52408081,0.10986155
2534.45288818,0.10964018
2536.38169556,0.10949758
2538.31050293,0.10944065
2540.23931030,0.10924622
2542.16811768,0.10898963
2544.09692505,0.10894853
2546.02573242,0.10875955
2547.95453979,0.10857897
2549.88334717,0.10843420
2551.81215454,0.10824160
2553.74096191,0.10815998
2555.66976929,0.10806676
2557.59857666,0.10798796
2559.52738403,0.10776152
2561.45619141,0.10762294
2563.38499878,0.10749155
2565.31380615,0.10736400
2567.24261353,0.10714515
2569.17142090,0.10695721
2571.10022827,0.10695337
2573.02903564,0.10670213
2574.95784302,0.10660197
2576.88665039,0.10649344
2578.81545776,0.10641748
2580.74426514,0.10618164
2582.67307251,0.10594767
2584.60187988,0.10608621
2586.53068726,0.10583335
2588.45949463,0.10560495
2590.38830200,0.10543688
2592.31710937,0.10534979
2594.24591675,0.10523984
2596.17472412,0.10499060
2598.10353149,0.10489134
2600.03233887,0.10471558
2601.96114624,0.10462968
2603.88995361,0.10445862
2605.81876099,0.10435510
2607.74756836,0.10410650
2609.67637573,0.10401661
2611.60518311,0.10402355
2613.53399048,0.10365841
2615.46279785,0.10362707
2617.39160522,0.10348408
2619.32041260,0.10334176
2621.24921997,0.10322502
2623.17802734,0.10308887
2625.10683472,0.10293400
2627.03564209,0.10267887
2628.96444946,0.10264698
2630.89325684,0.10245013
2632.82206421,0.10241452
2634.75087158,0.10211639
2636.67967895,0.10193454
2638.60848633,0.10196269
2640.53729370,0.10168567
2642.46610107,0.10163151
2644.39490845,0.10135175
2646.32371582,0.10130665
2648.25252319,0.10121063
2650.18133057,0.10100948
2652.11013794,0.10091047
2654.03894531,0.10070811
2655.96775269,0.10078400
2657.89656006,0.10055223
2659.82536743,0.10038874
2661.75417480,0.10010629
2663.68298218,0.09990841
2665.61178955,0.10000247
2667.54059692,0.09970577
2669.46940430,0.09961109
2671.39821167,0.09955615
2673.32701904,0.09938810
2675.25582642,0.09919126
2677.18463379,0.09906977
2679.11344116,0.09894771
2681.04224854,0.09873885
2682.97105591,0.09857415
2684.89986328,0.09847061
2686.82867065,0.09844409
2688.75747803,0.09811395
2690.68628540,0.09803520
2692.61509277,0.09792593
2694.54390015,0.09767056
2696.47270752,0.09760027
2698.40151489,0.09739445
2700.33032227,0.09742816
2702.25912964,0.09721150
2704.18793701,0.09703365
2706.11674438,0.09704781
2708.04555176,0.09674306
2709.97435913,0.09652985
2711.90316650,0.09647671
2713.83197388,0.09644023
2715.76078125,0.09622563
2717.68958862,0.09608890
2719.61839600,0.09593990
2721.54720337,0.09575731
2723.47601074,0.09568036
2725.40481812,0.09545996
2727.33362549,0.09531444
2729.26243286,0.09520160
2731.19124023,0.09502960
2733.12004761,0.09490633
2735.04885498,0.09479190
2736.97766235,0.09461483
2738.90646973,0.09447514
2740.83527710,0.09428698
2742.76408447,0.09409923
2744.69289185,0.09393921
2746.62169922,0.09386992
2748.55050659,0.09389801
2750.47931396,0.09354325
2752.40812134,0.09345198
2754.33692871,0.09340320
2756.26573608,0.09310252
2758.19454346,0.09305981
2760.12335083,0.09286772
2762.05215820,0.09275001
2763.98096558,0.09254321
2765.90977295,0.09236921
2767.83858032,0.09224915
2769.76738770,0.09199414
2771.69619507,0.09199075
2773.62500244,0.09182082
2775.55380981,0.09154983
2777.48261719,0.09133469
2779.41142456,0.09125772
2781.34023193,0.09113927
2783.26903931,0.09093466
2785.19784668,0.09088783
2787.12665405,0.09066710
2789.05546143,0.09043521
2790.98426880,0.09030792
2792.91307617,0.09019721
2794.84188354,0.08997807
2796.77069092,0.08985481
2798.69949829,0.08980016
2800.62830566,0.08958316
2802.55711304,0.08931170
2804.48592041,0.08906616
2806.41472778,0.08910063
2808.34353516,0.08896710
2810.27234253,0.08880270
2812.20114990,0.08864123
2814.12995728,0.08835348
2816.05876465,0.08829599
2817.98757202,0.08808309
2819.91637939,0.08789033
2821.84518677,0.08774164
2823.77399414,0.08760099
2825.70280151,0.08739980
2827.63160889,0.08718045
2829.56041626,0.08709312
2831.48922363,0.08684281
2833.41803101,0.08670852
2835.34683838,0.08652405
2837.27564575,0.08632955
2839.20445312,0.08605744
2841.13326050,0.08576506
2843.06206787,0.08562672
2844.99087524,0.08508846
2846.91968262,0.08456877
2848.84848999,0.08423096
2850.77729736,0.08400268
2852.70610474,0.08396316
2854.63491211,0.08386359
2856.56371948,0.08362883
2858.49252686,0.08355762
2860.42133423,0.08359607
2862.35014160,0.08336689
2864.27894897,0.08332351
2866.20775635,0.08317219
2868.13656372,0.08288765
2870.06537109,0.08281849
2871.99417847,0.08272952
2873.92298584,0.08262627
2875.85179321,0.08238842
2877.78060059,0.08234042
2879.70940796,0.08222026
2881.63821533,0.08202212
2883.56702270,0.08198968
2885.49583008,0.08185578
2887.42463745,0.08182500
2889.35344482,0.08160697
2891.28225220,0.08131231
2893.21105957,0.08119920
2895.13986694,0.08099768
2897.06867432,0.08077225
2898.99748169,0.08064111
2900.92628906,0.08042268
2902.85509644,0.08018450
2904.78390381,0.08005366
2906.71271118,0.07980615
2908.64151855,0.07956206
2910.57032593,0.07919985
2912.49913330,0.07879227
2914.42794067,0.07842222
2916.35674805,0.07807355
2918.28555542,0.07796192
2920.21436279,0.07777046
2922.14317017,0.07762264
2924.07197754,0.07750458
2926.00078491,0.07734208
2927.92959229,0.07732561
2929.85839966,0.07726198
2931.78720703,0.07712194
2933.71601440,0.07709675
2935.64482178,0.07719253
2937.57362915,0.07719113
2939.50243652,0.07719181
2941.43124390,0.07710045
2943.36005127,0.07701374
2945.28885864,0.07693925
2947.21766602,0.07683112
2949.14647339,0.07686331
2951.07528076,0.07656801
2953.00408813,0.07622783
2954.93289551,0.07608723
2956.86170288,0.07595713
2958.79051025,0.07571480
2960.71931763,0.07545367
2962.64812500,0.07541007
2964.57693237,0.07521735
2966.50573975,0.07514998
2968.43454712,0.07518555
2970.36335449,0.07519613
2972.29216187,0.07526071
2974.22096924,0.07526453
2976.14977661,0.07531495
2978.07858398,0.07519387
2980.00739136,0.07523327
2981.93619873,0.07534215
2983.86500610,0.07522855
2985.79381348,0.07514006
2987.72262085,0.07511856
2989.65142822,0.07501620
2991.58023560,0.07483742
2993.50904297,0.07480254
2995.43785034,0.07463412
2997.36665771,0.07450271
2999.29546509,0.07442068
3001.22427246,0.07431231
3003.15307983,0.07415509
3005.08188721,0.07382848
3007.01069458,0.07379610
3008.93950195,0.07368620
3010.86830933,0.07350789
3012.79711670,0.07329357
3014.72592407,0.07302019
3016.65473145,0.07308166
3018.58353882,0.07300454
3020.51234619,0.07282503
3022.44115356,0.07272595
3024.36996094,0.07255239
3026.29876831,0.07234885
3028.22757568,0.07230207
3030.15638306,0.07204711
3032.08519043,0.07170591
3034.01399780,0.07168198
3035.94280518,0.07152368
3037.87161255,0.07158983
3039.80041992,0.07149836
3041.72922729,0.07119296
3043.65803467,0.07113452
3045.58684204,0.07093358
3047.51564941,0.07079650
3049.44445679,0.07050657
3051.37326416,0.07050452
3053.30207153,0.07064845
3055.23087891,0.07021733
3057.15968628,0.07004386
3059.08849365,0.07004841
3061.01730103,0.06979863
3062.94610840,0.06967925
3064.87491577,0.06950010
3066.80372314,0.06922818
3068.73253052,0.06933413
3070.66133789,0.06924865
3072.59014526,0.06899476
3074.51895264,0.06899957
3076.44776001,0.06879231
3078.37656738,0.06852095
3080.30537476,0.06835692
3082.23418213,0.06835778
3084.16298950,0.06828029
3086.09179687,0.06821089
3088.02060425,0.06812746
3089.94941162,0.06775068
3091.87821899,0.06781334
3093.80702637,0.06776108
3095.73583374,0.06732465
3097.66464111,0.06726275
3099.59344849,0.06719691
3101.52225586,0.06686896
3103.45106323,0.06676798
3105.37987061,0.06685496
3107.30867798,0.06662923
3109.23748535,0.06646675
3111.16629272,0.06633238
3113.09510010,0.06607724
3115.02390747,0.06588706
3116.95271484,0.06563666
3118.88152222,0.06551926
3120.81032959,0.06536245
3122.73913696,0.06520597
3124.66794434,0.06512330
3126.59675171,0.06498785
3128.52555908,0.06492433
3130.45436645,0.06473398
3132.38317383,0.06444423
3134.31198120,0.06438491
3136.24078857,0.06435949
3138.16959595,0.06409201
3140.09840332,0.06391687
3142.02721069,0.06379402
3143.95601807,0.06356719
3145.88482544,0.06340002
3147.81363281,0.06323202
3149.74244019,0.06297439
3151.67124756,0.06280482
3153.60005493,0.06268941
3155.52886230,0.06245766
3157.45766968,0.06243061
3159.38647705,0.06220286
3161.31528442,0.06193883
3163.24409180,0.06199013
3165.17289917,0.06173633
3167.10170654,0.06150372
3169.03051392,0.06141493
3170.95932129,0.06126758
3172.88812866,0.06106303
3174.81693604,0.06098150
3176.74574341,0.06079228
3178.67455078,0.06048754
3180.60335815,0.06046937
3182.53216553,0.06028792
3184.46097290,0.06016633
3186.38978027,0.05993760
3188.31858765,0.05983600
3190.24739502,0.05981961
3192.17620239,0.05954932
3194.10500977,0.05962146
3196.03381714,0.05923884
3197.96262451,0.05899674
3199.89143188,0.05903981
3201.82023926,0.05882388
3203.74904663,0.05877005
3205.67785400,0.05861885
3207.60666138,0.05855159
3209.53546875,0.05827346
3211.46427612,0.05824161
3213.39308350,0.05815532
3215.32189087,0.05781122
3217.25069824,0.05792540
3219.17950562,0.05776275
3221.10831299,0.05756761
3223.03712036,0.05749572
3224.96592773,0.05747630
3226.89473511,0.05734763
3228.82354248,0.05715121
3230.75234985,0.05718017
3232.68115723,0.05702607
3234.60996460,0.05690558
3236.53877197,0.05679955
3238.46757935,0.05671256
3240.39638672,0.05664577
3242.32519409,0.05659126
3244.25400146,0.05639061
3246.18280884,0.05633368
3248.11161621,0.05644018
3250.04042358,0.05620198
3251.96923096,0.05626630
3253.89803833,0.05607970
3255.82684570,0.05591722
3257.75565308,0.05598469
3259.68446045,0.05581831
3261.61326782,0.05589055
3263.54207520,0.05568976
3265.47088257,0.05566092
3267.39968994,0.05565604
3269.32849731,0.05549829
3271.25730469,0.05543839
3273.18611206,0.05528170
3275.11491943,0.05524782
3277.04372681,0.05506521
3278.97253418,0.05511522
3280.90134155,0.05515882
3282.83014893,0.05505335
3284.75895630,0.05500123
3286.68776367,0.05490878
3288.61657104,0.05486688
3290.54537842,0.05469152
3292.47418579,0.05454843
3294.40299316,0.05452899
3296.33180054,0.05464311
3298.26060791,0.05445689
3300.18941528,0.05449071
3302.11822266,0.05451789
3304.04703003,0.05414563
3305.97583740,0.05416644
3307.90464478,0.05390930
3309.83345215,0.05384283
3311.76225952,0.05395349
3313.69106689,0.05386122
3315.61987427,0.05377880
3317.54868164,0.05363366
3319.47748901,0.05372964
3321.40629639,0.05352680
3323.33510376,0.05347576
3325.26391113,0.05341526
3327.19271851,0.05329721
3329.12152588,0.05337578
3331.05033325,0.05315447
3332.97914062,0.05319437
3334.90794800,0.05309895
3336.83675537,0.05276842
3338.76556274,0.05274893
3340.69437012,0.05285541
3342.62317749,0.05272015
3344.55198486,0.05255634
3346.48079224,0.05254931
3348.40959961,0.05246142
3350.33840698,0.05228304
3352.26721436,0.05216306
3354.19602173,0.05218763
3356.12482910,0.05196984
3358.05363647,0.05204094
3359.98244385,0.05189460
3361.91125122,0.05162367
3363.84005859,0.05176105
3365.76886597,0.05147344
3367.69767334,0.05146903
3369.62648071,0.05130892
3371.55528809,0.05128507
3373.48409546,0.05134929
3375.41290283,0.05109143
3377.34171020,0.05116350
3379.27051758,0.05097239
3381.19932495,0.05096149
3383.12813232,0.05070733
3385.05693970,0.05058623
3386.98574707,0.05057013
3388.91455444,0.05045110
3390.84336182,0.05044520
3392.77216919,0.04999769
3394.70097656,0.05021678
3396.62978394,0.04999319
3398.55859131,0.04973910
3400.48739868,0.04980238
3402.41620605,0.04958253
3404.34501343,0.04976030
3406.27382080,0.04951156
3408.20262817,0.04957090
3410.13143555,0.04951680
3412.06024292,0.04935686
3413.98905029,0.04931298
3415.91785767,0.04919741
3417.84666504,0.04920215
3419.77547241,0.04874150
3421.70427979,0.04871728
3423.63308716,0.04869836
3425.56189453,0.04874558
3427.49070190,0.04864390
3429.41950928,0.04846669
3431.34831665,0.04844259
3433.27712402,0.04814417
3435.20593140,0.04827821
3437.13473877,0.04796751
3439.06354614,0.04808336
3440.99235352,0.04796760
3442.92116089,0.04762953
3444.84996826,0.04786299
3446.77877563,0.04714544
3448.70758301,0.04731319
3450.63639038,0.04774186
3452.56519775,0.04753198
3454.49400513,0.04756577
3456.42281250,0.04744074
3458.35161987,0.04742438
3460.28042725,0.04719437
3462.20923462,0.04692045
3464.13804199,0.04706658
3466.06684937,0.04707791
3467.99565674,0.04675737
3469.92446411,0.04688797
3471.85327148,0.04691725
3473.78207886,0.04681808
3475.71088623,0.04670948
3477.63969360,0.04664761
3479.56850098,0.04675239
3481.49730835,0.04610129
3483.42611572,0.04629786
3485.35492310,0.04658300
3487.28373047,0.04621551
3489.21253784,0.04630245
3491.14134521,0.04638915
3493.07015259,0.04649188
3494.99895996,0.04616749
3496.92776733,0.04610743
3498.85657471,0.04620560
3500.78538208,0.04620493
3502.71418945,0.04548135
3504.64299683,0.04537431
3506.57180420,0.04650001
3508.50061157,0.04572216
3510.42941895,0.04543585
3512.35822632,0.04594143
3514.28703369,0.04599735
3516.21584106,0.04612064
3518.14464844,0.04582684
3520.07345581,0.04616544
3522.00226318,0.04563940
3523.93107056,0.04496329
3525.85987793,0.04517864
3527.78868530,0.04512098
3529.71749268,0.04519410
3531.64630005,0.04566480
3533.57510742,0.04600956
3535.50391479,0.04547957
3537.43272217,0.04521941
3539.36152954,0.04569767
3541.29033691,0.04577844
3543.21914429,0.04531653
3545.14795166,0.04436148
3547.07675903,0.04366519
3549.00556641,0.04509923
3550.93437378,0.04548647
3552.86318115,0.04428618
3554.79198853,0.04528517
3556.72079590,0.04559637
3558.64960327,0.04537326
3560.57841064,0.04495158
3562.50721802,0.04471568
3564.43602539,0.04503304
3566.36483276,0.04184810
3568.29364014,0.04076630
3570.22244751,0.04416774
3572.15125488,0.04549691
3574.08006226,0.04481678
3576.00886963,0.04500839
3577.93767700,0.04498673
3579.86648437,0.04474677
3581.79529175,0.04485365
3583.72409912,0.04494584
3585.65290649,0.04393693
3587.58171387,0.04021129
3589.51052124,0.04141788
3591.43932861,0.04524675
3593.36813599,0.04380897
3595.29694336,0.04305344
3597.22575073,0.04391858
3599.15455811,0.04421454
3601.08336548,0.04375026
3603.01217285,0.04422295
3604.94098022,0.04513042
3606.86978760,0.04346379
3608.79859497,0.04081945
3610.72740234,0.04176813
3612.65620972,0.04272576
3614.58501709,0.04140820
3616.51382446,0.04459698
3618.44263184,0.04115361
3620.37143921,0.03939772
3622.30024658,0.04477208
3624.22905395,0.04360382
3626.15786133,0.04562481
3628.08666870,0.03863863
3630.01547607,0.03484000
3631.94428345,0.04424507
3633.87309082,0.04320976
3635.80189819,0.04379259
3637.73070557,0.04474451
3639.65951294,0.04397538
3641.58832031,0.04449467
3643.51712769,0.04397926
3645.44593506,0.04430518
3647.37474243,0.03958003
3649.30354980,0.03626725
3651.23235718,0.03668625
3653.16116455,0.04371657
3655.08997192,0.04333148
3657.01877930,0.03865150
3658.94758667,0.04466797
3660.87639404,0.04360230
3662.80520142,0.04416094
3664.73400879,0.04419476
3666.66281616,0.04361146
3668.59162354,0.04230020
3670.52043091,0.03428598
3672.44923828,0.04181693
3674.37804565,0.03982573
3676.30685303,0.03261030
3678.23566040,0.04143574
3680.16446777,0.04246655
3682.09327515,0.04248171
3684.02208252,0.04381302
3685.95088989,0.04314667
3687.87969727,0.03865421
3689.80850464,0.03529312
3691.73731201,0.04052114
3693.66611938,0.04161638
3695.59492676,0.04272766
3697.52373413,0.04280347
3699.45254150,0.04231397
3701.38134888,0.04128312
3703.31015625,0.03955965
3705.23896362,0.04362164
3707.16777100,0.04142041
3709.09657837,0.04041453
3711.02538574,0.03810924
3712.95419312,0.03545828
3714.88300049,0.04181859
3716.81180786,0.04122525
3718.74061523,0.04149649
3720.66942261,0.04079909
3722.59822998,0.03925218
3724.52703735,0.04066078
3726.45584473,0.03767513
3728.38465210,0.04087029
3730.31345947,0.04052205
3732.24226685,0.03720658
3734.17107422,0.03625370
3736.09988159,0.03430413
3738.02868896,0.03636537
3739.95749634,0.03954901
3741.88630371,0.04147130
3743.81511108,0.03207836
3745.74391846,0.03009788
3747.67272583,0.03930375
3749.60153320,0.03370595
3751.53034058,0.03091981
3753.45914795,0.03578143
3755.38795532,0.03853542
3757.31676270,0.04012532
3759.24557007,0.03711239
3761.17437744,0.03841277
3763.10318481,0.04099570
3765.03199219,0.03812830
3766.96079956,0.03886074
3768.88960693,0.03851521
3770.81841431,0.03662740
3772.74722168,0.03982778
3774.67602905,0.03993127
3776.60483643,0.03975450
3778.53364380,0.03871597
3780.46245117,0.03714667
3782.39125854,0.03973801
3784.32006592,0.03879911
3786.24887329,0.03841967
3788.17768066,0.03935158
3790.10648804,0.03912176
3792.03529541,0.03887253
3793.96410278,0.03956880
3795.89291016,0.03722033
3797.82171753,0.03658824
3799.75052490,0.03865676
3801.67933228,0.03058545
3803.60813965,0.03562235
3805.53694702,0.03898885
3807.46575439,0.03169753
3809.39456177,0.03844979
3811.32336914,0.03781750
3813.25217651,0.03908134
3815.18098389,0.03533906
3817.10979126,0.03070475
3819.03859863,0.03898233
3820.96740601,0.03148995
3822.89621338,0.03305952
3824.82502075,0.03882255
3826.75382812,0.03496198
3828.68263550,0.03777299
3830.61144287,0.03632366
3832.54025024,0.03503908
3834.46905762,0.03578193
3836.39786499,0.03400982
3838.32667236,0.03070288
3840.25547974,0.03313782
3842.18428711,0.03585045
3844.11309448,0.03415231
3846.04190186,0.03696474
3847.97070923,0.03644717
3849.89951660,0.03654005
3851.82832397,0.03289099
3853.75713135,0.02436073
3855.68593872,0.02892298
3857.61474609,0.03656732
3859.54355347,0.03559439
3861.47236084,0.03515028
3863.40116821,0.03445312
3865.32997559,0.03188679
3867.25878296,0.03568566
3869.18759033,0.03265250
3871.11639770,0.03009749
3873.04520508,0.03584365
3874.97401245,0.03283545
3876.90281982,0.03551334
3878.83162720,0.03620413
3880.76043457,0.03089440
3882.68924194,0.03571794
3884.61804932,0.03325612
3886.54685669,0.03040905
3888.47566406,0.03580680
3890.40447144,0.03386742
3892.33327881,0.03164330
3894.26208618,0.03481530
3896.19089355,0.03541813
3898.11970093,0.03353669
3900.04850830,0.03180308
3901.97731567,0.03150692
3903.90612305,0.03108649
3905.83493042,0.03161153
3907.76373779,0.03473562
3909.69254517,0.03467583
3911.62135254,0.03440229
3913.55015991,0.03502633
3915.47896728,0.03373165
3917.40777466,0.03282812
3919.33658203,0.03248801
3921.26538940,0.03377382
3923.19419678,0.03359380
3925.12300415,0.03289131
3927.05181152,0.03352687
3928.98061890,0.03373227
3930.90942627,0.03317741
3932.83823364,0.03204912
3934.76704102,0.03336883
3936.69584839,0.03375344
3938.62465576,0.03344056
3940.55346313,0.03376786
3942.48227051,0.03234639
3944.41107788,0.03261891
3946.33988525,0.03326605
3948.26869263,0.03251620
3950.19750000,0.03242332
3952.12630737,0.03289979
3954.05511475,0.03297711
3955.98392212,0.03290022
3957.91272949,0.03278973
3959.84153687,0.03268529
3961.77034424,0.03259388
3963.69915161,0.03241582
3965.62795898,0.03279266
3967.55676636,0.03257316
3969.48557373,0.03233793
3971.41438110,0.03234364
3973.34318848,0.03225609
3975.27199585,0.03222598
3977.20080322,0.03202190
3979.12961060,0.03229465
3981.05841797,0.03204343
3982.98722534,0.03206348
3984.91603271,0.03208163
3986.84484009,0.03195547
3988.77364746,0.03193294
3990.70245483,0.03157025
3992.63126221,0.03182479
3994.56006958,0.03152636
3996.48887695,0.03151984
3998.41768433,0.03156151
4000.34649170,0.03140390
4002.27529907,0.03149307
4004.20410645,0.03126068
4006.13291382,0.03139964
4008.06172119,0.03109693
4009.99052856,0.03116651
4011.91933594,0.03119511
4013.84814331,0.03100755
4015.77695068,0.03102336
4017.70575806,0.03082662
4019.63456543,0.03091674
4021.56337280,0.03073319
4023.49218018,0.03083397
4025.42098755,0.03063758
4027.34979492,0.03056018
4029.27860229,0.03067420
4031.20740967,0.03042051
4033.13621704,0.03045628
4035.06502441,0.03030526
4036.99383179,0.03036603
4038.92263916,0.03015438
4040.85144653,0.03017587
4042.78025391,0.03019916
4044.70906128,0.02993236
4046.63786865,0.03002362
4048.56667603,0.02989425
4050.49548340,0.02995655
4052.42429077,0.02982368
4054.35309814,0.02972706
4056.28190552,0.02962642
4058.21071289,0.02958871
4060.13952026,0.02954953
4062.06832764,0.02936421
4063.99713501,0.02949646
4065.92594238,0.02931604
4067.85474976,0.02935279
4069.78355713,0.02920483
4071.71236450,0.02916190
4073.64117187,0.02917586
4075.56997925,0.02895626
4077.49878662,0.02902681
4079.42759399,0.02885630
4081.35640137,0.02900279
4083.28520874,0.02885921
4085.21401611,0.02877139
4087.14282349,0.02871964
4089.07163086,0.02850936
4091.00043823,0.02862046
4092.92924561,0.02845523
4094.85805298,0.02856476
4096.78686035,0.02839404
4098.71566772,0.02827711
4100.64447510,0.02826526
4102.57328247,0.02821463
4104.50208984,0.02823799
4106.43089722,0.02795034
4108.35970459,0.02810486
4110.28851196,0.02801072
4112.21731934,0.02787104
4114.14612671,0.02785334
4116.07493408,0.02780857
4118.00374145,0.02779226
4119.93254883,0.02769026
4121.86135620,0.02765820
4123.79016357,0.02744576
4125.71897095,0.02755394
4127.64777832,0.02744096
4129.57658569,0.02746424
4131.50539307,0.02737868
4133.43420044,0.02703331
4135.36300781,0.02722619
4137.29181519,0.02711459
4139.22062256,0.02710990
4141.14942993,0.02710169
4143.07823730,0.02701538
4145.00704468,0.02690937
4146.93585205,0.02685050
4148.86465942,0.02682738
4150.79346680,0.02671085
4152.72227417,0.02689813
4154.65108154,0.02661432
4156.57988892,0.02658577
4158.50869629,0.02663261
4160.43750366,0.02644620
4162.36631103,0.02646567
4164.29511841,0.02632262
4166.22392578,0.02626794
4168.15273315,0.02611396
4170.08154053,0.02625236
4172.01034790,0.02615831
4173.93915527,0.02599362
4175.86796265,0.02603948
4177.79677002,0.02592062
4179.72557739,0.02598528
4181.65438477,0.02582462
4183.58319214,0.02575951
4185.51199951,0.02570738
4187.44080688,0.02574822
4189.36961426,0.02562686
4191.29842163,0.02551385
4193.22722900,0.02563602
4195.15603638,0.02533657
4197.08484375,0.02536943
4199.01365112,0.02532545
4200.94245850,0.02527115
4202.87126587,0.02528315
4204.80007324,0.02514540
4206.72888062,0.02518063
4208.65768799,0.02506628
4210.58649536,0.02502111
4212.51530273,0.02491061
4214.44411011,0.02496278
4216.37291748,0.02488568
4218.30172485,0.02472586
4220.23053223,0.02473905
4222.15933960,0.02462560
4224.08814697,0.02463073
4226.01695435,0.02459009
4227.94576172,0.02457442
4229.87456909,0.02448519
4231.80337646,0.02447377
4233.73218384,0.02429582
4235.66099121,0.02422864
4237.58979858,0.02430312
4239.51860596,0.02406516
4241.44741333,0.02417191
4243.37622070,0.02407441
4245.30502808,0.02403512
4247.23383545,0.02401676
4249.16264282,0.02390746
4251.09145020,0.02395299
4253.02025757,0.02374362
4254.94906494,0.02380100
4256.87787231,0.02377902
4258.80667969,0.02369476
4260.73548706,0.02358743
4262.66429443,0.02355790
4264.59310181,0.02355625
4266.52190918,0.02345154
4268.45071655,0.02350116
4270.37952393,0.02331930
4272.30833130,0.02336461
4274.23713867,0.02329104
4276.16594604,0.02325821
4278.09475342,0.02323625
4280.02356079,0.02306579
4281.95236816,0.02316754
4283.88117554,0.02294319
4285.80998291,0.02301593
4287.73879028,0.02301705
4289.66759766,0.02281440
4291.59640503,0.02284180
4293.52521240,0.02279111
4295.45401978,0.02273935
4297.38282715,0.02264753
4299.31163452,0.02266917
4301.24044189,0.02247506
4303.16924927,0.02249861
4305.09805664,0.02251970
4307.02686401,0.02236142
4308.95567139,0.02244017
4310.88447876,0.02235657
4312.81328613,0.02229595
4314.74209351,0.02222561
4316.67090088,0.02223363
4318.59970825,0.02214960
4320.52851562,0.02210759
4322.45732300,0.02209299
4324.38613037,0.02203558
4326.31493774,0.02201324
4328.24374512,0.02175626
4330.17255249,0.02185454
4332.10135986,0.02181518
4334.03016724,0.02176591
4335.95897461,0.02180769
4337.88778198,0.02160293
4339.81658936,0.02157782
4341.74539673,0.02152786
4343.67420410,0.02155351
4345.60301147,0.02144730
4347.53181885,0.02144684
4349.46062622,0.02140471
4351.38943359,0.02132637
4353.31824097,0.02130357
4355.24704834,0.02113086
4357.17585571,0.02123408
4359.10466309,0.02104739
4361.03347046,0.02105334
4362.96227783,0.02110323
4364.89108520,0.02093735
4366.81989258,0.02097967
4368.74869995,0.02084915
4370.67750732,0.02084520
4372.60631470,0.02073586
4374.53512207,0.02070118
4376.46392944,0.02070992
4378.39273682,0.02067466
4380.32154419,0.02064335
4382.25035156,0.02048807
4384.17915894,0.02050047
4386.10796631,0.02041805
4388.03677368,0.02046513
4389.96558105,0.02039130
4391.89438843,0.02027283
4393.82319580,0.02024776
4395.75200317,0.02019491
4397.68081055,0.02027994
4399.60961792,0.02013032
4401.53842529,0.02013265
4403.46723267,0.02013670
4405.39604004,0.02000751
4407.32484741,0.01992390
4409.25365478,0.01990474
4411.18246216,0.01990734
4413.11126953,0.01977012
4415.04007690,0.01980533
4416.96888428,0.01974214
4418.89769165,0.01964657
4420.82649902,0.01963918
4422.75530640,0.01965663
4424.68411377,0.01954328
4426.61292114,0.01943099
4428.54172852,0.01956535
4430.47053589,0.01943771
4432.39934326,0.01938532
4434.32815063,0.01939280
4436.25695801,0.01925529
4438.18576538,0.01917464
4440.11457275,0.01921764
4442.04338013,0.01919742
4443.97218750,0.01904114
4445.90099487,0.01911755
4447.82980225,0.01904008
4449.75860962,0.01898819
4451.68741699,0.01896414
4453.61622437,0.01883932
4455.54503174,0.01881782
4457.47383911,0.01875254
4459.40264648,0.01879321
4461.33145386,0.01875523
4463.26026123,0.01872528
4465.18906860,0.01864264
4467.11787598,0.01861090
4469.04668335,0.01859501
4470.97549072,0.01846182
4472.90429810,0.01844625
4474.83310547,0.01836718
4476.76191284,0.01839960
4478.69072021,0.01838472
4480.61952759,0.01835242
4482.54833496,0.01822922
4484.47714233,0.01819925
4486.40594971,0.01833459
4488.33475708,0.01814008
4490.26356445,0.01807226
4492.19237183,0.01802347
4494.12117920,0.01802253
4496.04998657,0.01799357
4497.97879395,0.01791568
4499.90760132,0.01788096
4501.83640869,0.01776307
4503.76521606,0.01780402
4505.69402344,0.01770752
4507.62283081,0.01778515
4509.55163818,0.01769085
4511.48044556,0.01755844
4513.40925293,0.01764442
4515.33806030,0.01750821
4517.26686768,0.01757679
4519.19567505,0.01751933
4521.12448242,0.01752050
4523.05328979,0.01741035
4524.98209717,0.01727533
4526.91090454,0.01735189
4528.83971191,0.01721947
4530.76851929,0.01726961
4532.69732666,0.01718663
4534.62613403,0.01717061
4536.55494141,0.01715858
4538.48374878,0.01705096
4540.41255615,0.01707735
4542.34136353,0.01697928
4544.27017090,0.01695849
4546.19897827,0.01686854
4548.12778564,0.01689720
4550.05659302,0.01684702
4551.98540039,0.01670622
4553.91420776,0.01671718
4555.84301514,0.01671616
4557.77182251,0.01677352
4559.70062988,0.01665216
4561.62943726,0.01662365
4563.55824463,0.01662713
4565.48705200,0.01649274
4567.41585937,0.01644573
4569.34466675,0.01646824
4571.27347412,0.01643764
4573.20228149,0.01638321
4575.13108887,0.01638995
4577.05989624,0.01626289
4578.98870361,0.01625251
4580.91751099,0.01625441
4582.84631836,0.01617402
4584.77512573,0.01612430
4586.70393311,0.01606022
4588.63274048,0.01606440
4590.56154785,0.01602989
4592.49035522,0.01605109
4594.41916260,0.01588829
4596.34796997,0.01579863
4598.27677734,0.01596148
4600.20558472,0.01592606
4602.13439209,0.01580031
4604.06319946,0.01569936
4605.99200684,0.01567362
4607.92081421,0.01568894
4609.84962158,0.01569087
4611.77842895,0.01559222
4613.70723633,0.01557855
4615.63604370,0.01559058
4617.56485107,0.01547088
4619.49365845,0.01549033
4621.42246582,0.01548064
4623.35127319,0.01539499
4625.28008057,0.01530701
4627.20888794,0.01529437
4629.13769531,0.01525387
4631.06650269,0.01517440
4632.99531006,0.01518228
4634.92411743,0.01516503
4636.85292480,0.01512955
4638.78173218,0.01506205
4640.71053955,0.01509396
4642.63934692,0.01502165
4644.56815430,0.01496981
4646.49696167,0.01492899
4648.42576904,0.01484229
4650.35457642,0.01488843
4652.28338379,0.01472672
4654.21219116,0.01475961
4656.14099853,0.01476525
4658.06980591,0.01469319
4659.99861328,0.01477329
4661.92742065,0.01466111
4663.85622803,0.01467991
4665.78503540,0.01462565
4667.71384277,0.01451045
4669.64265015,0.01450646
4671.57145752,0.01453886
4673.50026489,0.01452468
4675.42907227,0.01443995
4677.35787964,0.01436234
4679.28668701,0.01426417
4681.21549438,0.01431724
4683.14430176,0.01427176
4685.07310913,0.01431097
4687.00191650,0.01425290
4688.93072388,0.01412621
4690.85953125,0.01423992
4692.78833862,0.01408740
4694.71714600,0.01405319
4696.64595337,0.01402868
4698.57476074,0.01397505
4700.50356812,0.01406704
4702.43237549,0.01399321
4704.36118286,0.01393014
4706.28999023,0.01385933
4708.21879761,0.01386168
4710.14760498,0.01384110
4712.07641235,0.01376637
4714.00521973,0.01373952
4715.93402710,0.01374408
4717.86283447,0.01372093
4719.79164185,0.01363963
4721.72044922,0.01362936
4723.64925659,0.01362096
4725.57806396,0.01360228
4727.50687134,0.01350732
4729.43567871,0.01351559
4731.36448608,0.01350584
4733.29329346,0.01342310
4735.22210083,0.01339776
4737.15090820,0.01331567
4739.07971558,0.01337719
4741.00852295,0.01332196
4742.93733032,0.01327696
4744.86613770,0.01327865
4746.79494507,0.01321236
4748.72375244,0.01329270
4750.65255981,0.01321834
4752.58136719,0.01310994
4754.51017456,0.01314226
4756.43898193,0.01316110
4758.36778931,0.01304077
4760.29659668,0.01299713
4762.22540405,0.01299440
4764.15421143,0.01295594
4766.08301880,0.01298598
4768.01182617,0.01286347
4769.94063354,0.01286716
4771.86944092,0.01285658
4773.79824829,0.01277906
4775.72705566,0.01278385
4777.65586304,0.01271229
4779.58467041,0.01272812
4781.51347778,0.01274204
4783.44228516,0.01269160
4785.37109253,0.01260835
4787.29989990,0.01261149
4789.22870728,0.01260749
4791.15751465,0.01259122
4793.08632202,0.01254687
4795.01512939,0.01247666
4796.94393677,0.01253437
4798.87274414,0.01242839
4800.80155151,0.01243750
4802.73035889,0.01242855
4804.65916626,0.01227446
4806.58797363,0.01229570
4808.51678101,0.01227112
4810.44558838,0.01220278
4812.37439575,0.01216390
4814.30320312,0.01223767
4816.23201050,0.01221684
4818.16081787,0.01212357
4820.08962524,0.01209741
4822.01843262,0.01212027
4823.94723999,0.01207088
4825.87604736,0.01192718
4827.80485474,0.01200074
4829.73366211,0.01192736
4831.66246948,0.01191282
4833.59127686,0.01192194
4835.52008423,0.01178939
4837.44889160,0.01187144
4839.37769897,0.01179697
4841.30650635,0.01179748
4843.23531372,0.01181557
4845.16412109,0.01163142
4847.09292847,0.01164473
4849.02173584,0.01178529
4850.95054321,0.01168718
4852.87935059,0.01155258
4854.80815796,0.01160301
4856.73696533,0.01153626
4858.66577270,0.01157132
4860.59458008,0.01153993
4862.52338745,0.01142525
4864.45219482,0.01144782
4866.38100220,0.01141082
4868.30980957,0.01142493
4870.23861694,0.01138813
4872.16742432,0.01136614
4874.09623169,0.01133378
4876.02503906,0.01129856
4877.95384644,0.01127427
4879.88265381,0.01123791
4881.81146118,0.01122969
4883.74026855,0.01117198
4885.66907593,0.01118818
4887.59788330,0.01111968
4889.52669067,0.01111800
4891.45549805,0.01104727
4893.38430542,0.01094444
4895.31311279,0.01102240
4897.24192017,0.01096306
4899.17072754,0.01096727
4901.09953491,0.01092826
4903.02834228,0.01088931
4904.95714966,0.01092676
4906.88595703,0.01092489
4908.81476440,0.01083822
4910.74357178,0.01072255
4912.67237915,0.01076789
4914.60118652,0.01073893
4916.52999390,0.01077682
4918.45880127,0.01070881
4920.38760864,0.01064748
4922.31641602,0.01071715
4924.24522339,0.01056160
4926.17403076,0.01052319
4928.10283813,0.01055885
4930.03164551,0.01053388
4931.96045288,0.01046625
4933.88926025,0.01051274
4935.81806763,0.01052350
4937.74687500,0.01039738
4939.67568237,0.01042341
4941.60448975,0.01033494
4943.53329712,0.01029837
4945.46210449,0.01033250
4947.39091187,0.01030033
4949.31971924,0.01028675
4951.24852661,0.01027519
4953.17733398,0.01026426
4955.10614136,0.01016238
4957.03494873,0.01016267
4958.96375610,0.01012821
4960.89256348,0.01002384
4962.82137085,0.01004397
4964.75017822,0.01007450
4966.67898560,0.01007258
4968.60779297,0.01005025
4970.53660034,0.00994645
4972.46540771,0.00992889
4974.39421509,0.01002939
4976.32302246,0.00991958
4978.25182983,0.00986116
4980.18063721,0.00986182
4982.10944458,0.00981257
4984.03825195,0.00979467
4985.96705933,0.00976070
4987.89586670,0.00982645
4989.82467407,0.00978490
4991.75348145,0.00974288
4993.68228882,0.00967215
4995.61109619,0.00964234
4997.53990356,0.00965302
4999.46871094,0.00954634
5001.39751831,0.00959646
5003.32632568,0.00952235
5005.25513306,0.00951276
5007.18394043,0.00957810
5009.11274780,0.00948470
5011.04155518,0.00946643
5012.97036255,0.00947488
5014.89916992,0.00947090
5016.82797729,0.00939059
5018.75678467,0.00937057
5020.68559204,0.00933396
5022.61439941,0.00929662
5024.54320679,0.00930053
5026.47201416,0.00928691
5028.40082153,0.00926403
5030.32962891,0.00919135
5032.25843628,0.00922917
5034.18724365,0.00915512
5036.11605103,0.00913774
5038.04485840,0.00914329
5039.97366577,0.00908157
5041.90247314,0.00914164
5043.83128052,0.00908012
5045.76008789,0.00907707
5047.68889526,0.00908360
5049.61770264,0.00904834
5051.54651001,0.00900723
5053.47531738,0.00902041
5055.40412476,0.00903039
5057.33293213,0.00890953
5059.26173950,0.00888305
5061.19054687,0.00884536
5063.11935425,0.00887677
5065.04816162,0.00885028
5066.97696899,0.00882893
5068.90577637,0.00878103
5070.83458374,0.00868541
5072.76339111,0.00884162
5074.69219849,0.00873624
5076.62100586,0.00862882
5078.54981323,0.00869451
5080.47862061,0.00866131
5082.40742798,0.00862651
5084.33623535,0.00858757
5086.26504272,0.00859057
5088.19385010,0.00855700
5090.12265747,0.00861311
5092.05146484,0.00856853
5093.98027222,0.00849590
5095.90907959,0.00851101
5097.83788696,0.00848149
5099.76669434,0.00845825
5101.69550171,0.00842020
5103.62430908,0.00847903
5105.55311645,0.00838544
5107.48192383,0.00839071
5109.41073120,0.00844809
5111.33953857,0.00833031
5113.26834595,0.00835131
5115.19715332,0.00826359
5117.12596069,0.00818655
5119.05476807,0.00817599
5120.98357544,0.00817613
5122.91238281,0.00824569
5124.84119019,0.00824022
5126.76999756,0.00814028
5128.69880493,0.00808263
5130.62761230,0.00815633
5132.55641968,0.00808045
5134.48522705,0.00800157
5136.41403442,0.00803376
5138.34284180,0.00801595
5140.27164917,0.00796175
5142.20045654,0.00793385
5144.12926392,0.00793025
5146.05807129,0.00789584
5147.98687866,0.00796033
5149.91568603,0.00792799
5151.84449341,0.00788169
5153.77330078,0.00794145
5155.70210815,0.00788245
5157.63091553,0.00779692
5159.55972290,0.00779906
5161.48853027,0.00783895
5163.41733765,0.00772052
5165.34614502,0.00768659
5167.27495239,0.00782518
5169.20375977,0.00776708
5171.13256714,0.00767617
5173.06137451,0.00768685
5174.99018188,0.00762672
5176.91898926,0.00767761
5178.84779663,0.00768322
5180.77660400,0.00756882
5182.70541138,0.00765585
5184.63421875,0.00750427
5186.56302612,0.00742607
5188.49183350,0.00757266
5190.42064087,0.00748200
5192.34944824,0.00751380
5194.27825562,0.00752757
5196.20706299,0.00745043
5198.13587036,0.00735004
5200.06467773,0.00742472
5201.99348511,0.00751965
5203.92229248,0.00740546
5205.85109985,0.00737908
5207.77990723,0.00718195
5209.70871460,0.00725373
5211.63752197,0.00740879
5213.56632935,0.00729656
5215.49513672,0.00732436
5217.42394409,0.00729520
5219.35275146,0.00725762
5221.28155884,0.00723722
5223.21036621,0.00724318
5225.13917358,0.00704958
5227.06798096,0.00703778
5228.99678833,0.00721842
5230.92559570,0.00703660
5232.85440308,0.00707173
5234.78321045,0.00713383
5236.71201782,0.00711698
5238.64082520,0.00707850
5240.56963257,0.00703029
5242.49843994,0.00703968
5244.42724731,0.00687621
5246.35605469,0.00694276
5248.28486206,0.00685053
5250.21366943,0.00679890
5252.14247681,0.00703398
5254.07128418,0.00692036
5256.00009155,0.00686855
5257.92889893,0.00690687
5259.85770630,0.00684692
5261.78651367,0.00679614
5263.71532104,0.00670073
5265.64412842,0.00672358
5267.57293579,0.00683231
5269.50174316,0.00678971
5271.43055054,0.00676536
5273.35935791,0.00683527
5275.28816528,0.00678018
5277.21697266,0.00680980
5279.14578003,0.00675855
5281.07458740,0.00664933
5283.00339478,0.00670230
5284.93220215,0.00656624
5286.86100952,0.00658168
5288.78981689,0.00667839
5290.71862427,0.00655744
5292.64743164,0.00660665
5294.57623901,0.00657198
5296.50504639,0.00653723
5298.43385376,0.00664880
5300.36266113,0.00656176
5302.29146851,0.00655594
5304.22027588,0.00659161
5306.14908325,0.00645938
5308.07789062,0.00636373
5310.00669800,0.00638716
5311.93550537,0.00644453
5313.86431274,0.00642041
5315.79312012,0.00635615
5317.72192749,0.00635373
5319.65073486,0.00645325
5321.57954224,0.00636306
5323.50834961,0.00630665
5325.43715698,0.00640508
5327.36596436,0.00621275
5329.29477173,0.00621682
5331.22357910,0.00632596
5333.15238647,0.00621137
5335.08119385,0.00625767
5337.01000122,0.00612262
5338.93880859,0.00586658
5340.86761597,0.00617694
5342.79642334,0.00628900
5344.72523071,0.00587312
5346.65403809,0.00601976
5348.58284546,0.00612782
5350.51165283,0.00606266
5352.44046020,0.00607842
5354.36926758,0.00579938
5356.29807495,0.00604773
5358.22688232,0.00616489
5360.15568970,0.00596932
5362.08449707,0.00600657
5364.01330444,0.00590843
5365.94211182,0.00594203
5367.87091919,0.00590377
5369.79972656,0.00598513
5371.72853394,0.00608519
5373.65734131,0.00593756
5375.58614868,0.00585756
5377.51495605,0.00581120
5379.44376343,0.00589002
5381.37257080,0.00588583
5383.30137817,0.00593252
5385.23018555,0.00588823
5387.15899292,0.00566627
5389.08780029,0.00579384
5391.01660767,0.00592611
5392.94541504,0.00573124
5394.87422241,0.00561006
5396.80302978,0.00573822
5398.73183716,0.00573400
5400.66064453,0.00575762
5402.58945190,0.00579536
5404.51825928,0.00566050
5406.44706665,0.00567474
5408.37587402,0.00567205
5410.30468140,0.00563233
5412.23348877,0.00549716
5414.16229614,0.00538044
5416.09110352,0.00557644
5418.01991089,0.00562502
5419.94871826,0.00551981
5421.87752563,0.00558638
5423.80633301,0.00557124
5425.73514038,0.00553258
5427.66394775,0.00550541
5429.59275513,0.00529773
5431.52156250,0.00543849
5433.45036987,0.00554889
5435.37917725,0.00528539
5437.30798462,0.00542970
5439.23679199,0.00549549
5441.16559936,0.00529672
5443.09440674,0.00535559
5445.02321411,0.00532021
5446.95202148,0.00524502
5448.88082886,0.00538140
5450.80963623,0.00537597
5452.73844360,0.00528451
5454.66725098,0.00528930
5456.59605835,0.00527902
5458.52486572,0.00532583
5460.45367310,0.00524438
5462.38248047,0.00520480
5464.31128784,0.00528233
5466.24009521,0.00522669
5468.16890259,0.00519625
5470.09770996,0.00515099
5472.02651733,0.00523844
5473.95532471,0.00522490
5475.88413208,0.00506404
5477.81293945,0.00513709
5479.74174683,0.00517810
5481.67055420,0.00518127
5483.59936157,0.00509926
5485.52816895,0.00507546
5487.45697632,0.00512929
5489.38578369,0.00502154
5491.31459106,0.00505394
5493.24339844,0.00501173
5495.17220581,0.00497358
5497.10101318,0.00507743
5499.02982056,0.00502094
5500.95862793,0.00503798
5502.88743530,0.00499338
5504.81624268,0.00496910
5506.74505005,0.00502362
5508.67385742,0.00489998
5510.60266479,0.00494601
5512.53147217,0.00496680
5514.46027954,0.00495247
5516.38908691,0.00492170
5518.31789429,0.00480233
5520.24670166,0.00493895
5522.17550903,0.00483786
5524.10431641,0.00478952
5526.03312378,0.00494286
5527.96193115,0.00482944
5529.89073853,0.00481462
5531.81954590,0.00480828
5533.74835327,0.00486375
5535.67716064,0.00484404
5537.60596802,0.00472905
5539.53477539,0.00477261
5541.46358276,0.00473763
5543.39239014,0.00477187
5545.32119751,0.00474241
5547.25000488,0.00470879
5549.17881226,0.00474261
5551.10761963,0.00465645
5553.03642700,0.00463909
5554.96523437,0.00461283
5556.89404175,0.00464169
5558.82284912,0.00470600
5560.75165649,0.00462208
5562.68046387,0.00457994
5564.60927124,0.00459074
5566.53807861,0.00451669
5568.46688599,0.00450243
5570.39569336,0.00452939
5572.32450073,0.00457070
5574.25330811,0.00461338
5576.18211548,0.00454508
5578.11092285,0.00457525
5580.03973022,0.00454923
5581.96853760,0.00446405
5583.89734497,0.00444106
5585.82615234,0.00440581
5587.75495972,0.00449238
5589.68376709,0.00445622
5591.61257446,0.00442410
5593.54138184,0.00448952
5595.47018921,0.00444627
5597.39899658,0.00443868
5599.32780395,0.00447016
5601.25661133,0.00443763
5603.18541870,0.00433440
5605.11422607,0.00434134
5607.04303345,0.00438047
5608.97184082,0.00436038
5610.90064819,0.00439520
5612.82945557,0.00443006
5614.75826294,0.00438962
5616.68707031,0.00431103
5618.61587769,0.00429211
5620.54468506,0.00429713
5622.47349243,0.00429259
5624.40229980,0.00425736
5626.33110718,0.00426436
5628.25991455,0.00425834
5630.18872192,0.00422940
5632.11752930,0.00421552
5634.04633667,0.00419107
5635.97514404,0.00424759
5637.90395142,0.00417516
5639.83275879,0.00413318
5641.76156616,0.00413565
5643.69037353,0.00413344
5645.61918091,0.00419463
5647.54798828,0.00411395
5649.47679565,0.00411545
5651.40560303,0.00408752
5653.33441040,0.00412819
5655.26321777,0.00410335
5657.19202515,0.00400442
5659.12083252,0.00414606
5661.04963989,0.00401891
5662.97844727,0.00398346
5664.90725464,0.00406513
5666.83606201,0.00402294
5668.76486938,0.00405010
5670.69367676,0.00398775
5672.62248413,0.00401033
5674.55129150,0.00400213
5676.48009888,0.00397237
5678.40890625,0.00398334
5680.33771362,0.00398447
5682.26652100,0.00395580
5684.19532837,0.00391331
5686.12413574,0.00395824
5688.05294311,0.00390266
5689.98175049,0.00387765
5691.91055786,0.00389459
5693.83936523,0.00389527
5695.76817261,0.00388444
5697.69697998,0.00386092
5699.62578735,0.00383831
5701.55459473,0.00379727
5703.48340210,0.00383293
5705.41220947,0.00376852
5707.34101685,0.00382022
5709.26982422,0.00384745
5711.19863159,0.00373954
5713.12743896,0.00382243
5715.05624634,0.00380275
5716.98505371,0.00376637
5718.91386108,0.00376406
5720.84266846,0.00374935
5722.77147583,0.00375202
5724.70028320,0.00369983
5726.62909058,0.00373054
5728.55789795,0.00371888
5730.48670532,0.00364076
5732.41551270,0.00363256
5734.34432007,0.00368603
5736.27312744,0.00364030
5738.20193481,0.00362336
5740.13074219,0.00369673
5742.05954956,0.00362071
5743.98835693,0.00359457
5745.91716431,0.00357757
5747.84597168,0.00352647
5749.77477905,0.00362197
5751.70358643,0.00362305
5753.63239380,0.00355771
5755.56120117,0.00354421
5757.49000854,0.00349921
5759.41881592,0.00355313
5761.34762329,0.00354992
5763.27643066,0.00348287
5765.20523804,0.00352220
5767.13404541,0.00350581
5769.06285278,0.00351589
5770.99166016,0.00347055
5772.92046753,0.00340513
5774.84927490,0.00346603
5776.77808228,0.00347504
5778.70688965,0.00341569
5780.63569702,0.00336374
5782.56450439,0.00342218
5784.49331177,0.00342323
5786.42211914,0.00341554
5788.35092651,0.00343143
5790.27973389,0.00336118
5792.20854126,0.00334825
5794.13734863,0.00332629
5796.06615601,0.00338409
5797.99496338,0.00337602
5799.92377075,0.00329546
5801.85257812,0.00327677
5803.78138550,0.00327706
5805.71019287,0.00337033
5807.63900024,0.00330903
5809.56780762,0.00324356
5811.49661499,0.00328338
5813.42542236,0.00326704
5815.35422974,0.00326773
5817.28303711,0.00331869
5819.21184448,0.00330144
5821.14065186,0.00321507
5823.06945923,0.00325824
5824.99826660,0.00325155
5826.92707397,0.00325555
5828.85588135,0.00323299
5830.78468872,0.00315631
5832.71349609,0.00319521
5834.64230347,0.00311976
5836.57111084,0.00312541
5838.49991821,0.00315334
5840.42872559,0.00312198
5842.35753296,0.00315837
5844.28634033,0.00310296
5846.21514770,0.00310658
5848.14395508,0.00314839
5850.07276245,0.00310456
5852.00156982,0.00309260
5853.93037720,0.00311041
5855.85918457,0.00310564
5857.78799194,0.00309249
5859.71679932,0.00300085
5861.64560669,0.00304933
5863.57441406,0.00310247
5865.50322144,0.00297448
5867.43202881,0.00303197
5869.36083618,0.00299004
5871.28964355,0.00294964
5873.21845093,0.00299151
5875.14725830,0.00291855
5877.07606567,0.00299298
5879.00487305,0.00297086
5880.93368042,0.00291082
5882.86248779,0.00292273
5884.79129517,0.00292818
5886.72010254,0.00291877
5888.64890991,0.00289579
5890.57771728,0.00295110
5892.50652466,0.00293826
5894.43533203,0.00293073
5896.36413940,0.00290074
5898.29294678,0.00286194
5900.22175415,0.00288121
5902.15056152,0.00290440
5904.07936890,0.00290815
5906.00817627,0.00282465
5907.93698364,0.00281503
5909.86579102,0.00286560
5911.79459839,0.00286802
5913.72340576,0.00282873
5915.65221313,0.00284948
5917.58102051,0.00282823
5919.50982788,0.00274982
5921.43863525,0.00276039
5923.36744263,0.00274008
5925.29625000,0.00277179
5927.22505737,0.00276198
5929.15386475,0.00271878
5931.08267212,0.00271760
5933.01147949,0.00274267
5934.94028686,0.00275681
5936.86909424,0.00266404
5938.79790161,0.00272795
5940.72670898,0.00275677
5942.65551636,0.00268973
5944.58432373,0.00270327
5946.51313110,0.00271060
5948.44193848,0.00269538
5950.37074585,0.00268365
5952.29955322,0.00272040
5954.22836060,0.00263848
5956.15716797,0.00261117
5958.08597534,0.00262672
5960.01478271,0.00262821
5961.94359009,0.00266218
5963.87239746,0.00258422
5965.80120483,0.00258836
5967.73001221,0.00258789
5969.65881958,0.00263736
5971.58762695,0.00267365
5973.51643433,0.00256917
5975.44524170,0.00257017
5977.37404907,0.00261459
5979.30285645,0.00260295
5981.23166382,0.00254339
5983.16047119,0.00252312
5985.08927856,0.00252557
5987.01808594,0.00259313
5988.94689331,0.00256752
5990.87570068,0.00246403
5992.80450806,0.00247893
5994.73331543,0.00247146
5996.66212280,0.00249581
5998.59093018,0.00244049
6000.51973755,0.00251382
