399.26312622,0.00079634
401.19193359,0.00122252
403.12074097,0.00128659
405.04954834,0.00098155
406.97835571,0.00082736
408.90716309,0.00117281
410.83597046,0.00138498
412.76477783,0.00121876
414.69358521,0.00184024
416.62239258,0.00186842
418.55119995,0.00130538
420.48000732,0.00135479
422.40881470,0.00121835
424.33762207,0.00116128
426.26642944,0.00156503
428.19523682,0.00161069
430.12404419,0.00142294
432.05285156,0.00170945
433.98165894,0.00145673
435.91046631,0.00146912
437.83927368,0.00172313
439.76808105,0.00127267
441.69688843,0.00152300
443.62569580,0.00115436
445.55450317,0.00101367
447.48331055,0.00160245
449.41211792,0.00111099
451.34092529,0.00126740
453.26973267,0.00158390
455.19854004,0.00138232
457.12734741,0.00127073
459.05615479,0.00069530
460.98496216,0.00049099
462.91376953,0.00084120
464.84257690,0.00082921
466.77138428,0.00088347
468.70019165,0.00104201
470.62899902,0.00082616
472.55780640,0.00087428
474.48661377,0.00061415
476.41542114,0.00050392
478.34422852,0.00080837
480.27303589,0.00013530
482.20184326,-0.00001650
484.13065063,0.00037824
486.05945801,0.00008169
487.98826538,0.00008003
489.91707275,0.00035184
491.84588013,0.00037477
493.77468750,0.00027506
495.70349487,0.00040102
497.63230225,0.00054142
499.56110962,0.00042325
501.48991699,0.00027703
503.41872437,-0.00002843
505.34753174,0.00007126
507.27633911,0.00034545
509.20514648,0.00034826
511.13395386,0.00036522
513.06276123,0.00027594
514.99156860,0.00051660
516.92037598,0.00031670
518.84918335,0.00022845
520.77799072,0.00049636
522.70679810,0.00013192
524.63560547,0.00030213
526.56441284,0.00034236
528.49322021,0.00013948
530.42202759,0.00008927
532.35083496,-0.00007449
534.27964233,0.00037999
536.20844971,0.00022137
538.13725708,-0.00022549
540.06606445,0.00014742
541.99487183,0.00026072
543.92367920,0.00016465
545.85248657,0.00026912
547.78129395,0.00023526
549.71010132,0.00016415
551.63890869,0.00020479
553.56771606,0.00008488
555.49652344,0.00026706
557.42533081,0.00040522
559.35413818,0.00009053
561.28294556,0.00017139
563.21175293,0.00003057
565.14056030,0.00008413
567.06936768,0.00013788
568.99817505,-0.00018579
570.92698242,0.00014679
572.85578979,0.00029328
574.78459717,0.00004416
576.71340454,-0.00007079
578.64221191,0.00030916
580.57101929,0.00019879
582.49982666,0.00016630
584.42863403,0.00064839
586.35744141,0.00004351
588.28624878,-0.00010928
590.21505615,0.00013486
592.14386353,0.00037416
594.07267090,0.00020584
596.00147827,-0.00039570
597.93028564,-0.00007666
599.85909302,0.00006087
601.78790039,0.00017876
603.71670776,-0.00000268
605.64551514,0.00008262
607.57432251,0.00040087
609.50312988,0.00024631
611.43193726,0.00037366
613.36074463,0.00000483
615.28955200,0.00007640
617.21835938,0.00013602
619.14716675,-0.00003244
621.07597412,0.00019919
623.00478149,0.00008721
624.93358887,-0.00001800
626.86239624,-0.00002297
628.79120361,0.00022640
630.72001099,0.00028408
632.64881836,0.00062578
634.57762573,0.00097868
636.50643311,0.00111526
638.43524048,0.00128411
640.36404785,0.00122840
642.29285522,0.00173298
644.22166260,0.00153060
646.15046997,0.00166610
648.07927734,0.00199506
650.00808472,0.00172516
651.93689209,0.00219156
653.86569946,0.00188717
655.79450684,0.00185595
657.72331421,0.00222786
659.65212158,0.00243381
661.58092896,0.00257085
663.50973633,0.00245303
665.43854370,0.00303714
667.36735107,0.00277840
669.29615845,0.00253132
671.22496582,0.00294754
673.15377319,0.00310713
675.08258057,0.00326616
677.01138794,0.00315463
678.94019531,0.00321230
680.86900269,0.00340440
682.79781006,0.00360578
684.72661743,0.00309868
686.65542480,0.00278271
688.58423218,0.00320343
690.51303955,0.00311294
692.44184692,0.00350129
694.37065430,0.00394215
696.29946167,0.00405818
698.22826904,0.00473511
700.15707642,0.00530881
702.08588379,0.00521170
704.01469116,0.00454148
705.94349854,0.00397346
707.87230591,0.00359992
709.80111328,0.00276302
711.72992065,0.00217623
713.65872803,0.00160942
715.58753540,0.00061220
717.51634277,0.00050615
719.44515015,0.00037706
721.37395752,0.00018737
723.30276489,0.00045150
725.23157227,0.00043417
727.16037964,0.00039464
729.08918701,0.00008256
731.01799438,0.00020662
732.94680176,0.00019701
734.87560913,0.00007965
736.80441650,0.00047956
738.73322388,0.00036199
740.66203125,0.00032598
742.59083862,0.00037512
744.51964600,0.00033501
746.44845337,-0.00002847
748.37726074,0.00001400
750.30606812,0.00041133
752.23487549,0.00032445
754.16368286,0.00022945
756.09249023,0.00014164
758.02129761,0.00030109
759.95010498,0.00011623
761.87891235,0.00022435
763.80771973,0.00031059
765.73652710,0.00019967
767.66533447,0.00053503
769.59414185,0.00004440
771.52294922,0.00009658
773.45175659,0.00047657
775.38056396,0.00049032
777.30937134,0.00037093
779.23817871,0.00025424
781.16698608,0.00055044
783.09579346,0.00035186
785.02460083,0.00048363
786.95340820,0.00053979
788.88221558,0.00043612
790.81102295,0.00048356
792.73983032,0.00056927
794.66863770,0.00078282
796.59744507,0.00037574
798.52625244,0.00078029
800.45505981,0.00110846
802.38386719,0.00067369
804.31267456,0.00051958
806.24148193,0.00046763
808.17028931,0.00069907
810.09909668,0.00054265
812.02790405,0.00037226
813.95671143,0.00039565
815.88551880,0.00018811
817.81432617,0.00019465
819.74313354,0.00049689
821.67194092,0.00041447
823.60074829,0.00041572
825.52955566,0.00078371
827.45836304,0.00058716
829.38717041,0.00075866
831.31597778,0.00087487
833.24478516,0.00076687
835.17359253,0.00108229
837.10239990,0.00122680
839.03120728,0.00124684
840.96001465,0.00100946
842.88882202,0.00104866
844.81762939,0.00109568
846.74643677,0.00091510
848.67524414,0.00062306
850.60405151,0.00074430
852.53285889,0.00107929
854.46166626,0.00052455
856.39047363,0.00060289
858.31928101,0.00072571
860.24808838,0.00050461
862.17689575,0.00055646
864.10570313,0.00041495
866.03451050,0.00041409
867.96331787,0.00030516
869.89212524,0.00033863
871.82093262,0.00017103
873.74973999,0.00032767
875.67854736,0.00039036
877.60735474,0.00014631
879.53616211,0.00045321
881.46496948,0.00041639
883.39377686,0.00056060
885.32258423,0.00034336
887.25139160,0.00012144
889.18019897,0.00042103
891.10900635,0.00030294
893.03781372,0.00021880
894.96662109,0.00024105
896.89542847,0.00063544
898.82423584,0.00056657
900.75304321,0.00041746
902.68185059,0.00060349
904.61065796,0.00037195
906.53946533,0.00050516
908.46827271,0.00069825
910.39708008,0.00055291
912.32588745,0.00062233
914.25469482,0.00098728
916.18350220,0.00084768
918.11230957,0.00081422
920.04111694,0.00126270
921.96992432,0.00102357
923.89873169,0.00097317
925.82753906,0.00140860
927.75634644,0.00119197
929.68515381,0.00110864
931.61396118,0.00156026
933.54276855,0.00143651
935.47157593,0.00159167
937.40038330,0.00184431
939.32919067,0.00153185
941.25799805,0.00178334
943.18680542,0.00191564
945.11561279,0.00177404
947.04442017,0.00168639
948.97322754,0.00169928
950.90203491,0.00179103
952.83084229,0.00172232
954.75964966,0.00181046
956.68845703,0.00160505
958.61726440,0.00146482
960.54607178,0.00161398
962.47487915,0.00175241
964.40368652,0.00173667
966.33249390,0.00185670
968.26130127,0.00206565
970.19010864,0.00193930
972.11891602,0.00221233
974.04772339,0.00224002
975.97653076,0.00244476
977.90533813,0.00281995
979.83414551,0.00250902
981.76295288,0.00289173
983.69176025,0.00343865
985.62056763,0.00375993
987.54937500,0.00412185
989.47818237,0.00428975
991.40698975,0.00477256
993.33579712,0.00527777
995.26460449,0.00574849
997.19341187,0.00635860
999.12221924,0.00654719
1001.05102661,0.00692620
1002.97983398,0.00781391
1004.90864136,0.00819485
1006.83744873,0.00874460
1008.76625610,0.00925483
1010.69506348,0.00957258
1012.62387085,0.01029394
1014.55267822,0.01065718
1016.48148560,0.01128177
1018.41029297,0.01182545
1020.33910034,0.01226722
1022.26790771,0.01298801
1024.19671509,0.01333232
1026.12552246,0.01373218
1028.05432983,0.01414837
1029.98313721,0.01474096
1031.91194458,0.01495664
1033.84075195,0.01507687
1035.76955933,0.01562031
1037.69836670,0.01557154
1039.62717407,0.01565597
1041.55598145,0.01585941
1043.48478882,0.01562575
1045.41359619,0.01540719
1047.34240356,0.01517219
1049.27121094,0.01501462
1051.20001831,0.01488459
1053.12882568,0.01445549
1055.05763306,0.01405141
1056.98644043,0.01394253
1058.91524780,0.01371295
1060.84405518,0.01311099
1062.77286255,0.01265107
1064.70166992,0.01245808
1066.63047729,0.01172857
1068.55928467,0.01143886
1070.48809204,0.01131023
1072.41689941,0.01047881
1074.34570679,0.01016237
1076.27451416,0.00952899
1078.20332153,0.00902926
1080.13212891,0.00893966
1082.06093628,0.00833861
1083.98974365,0.00789532
1085.91855103,0.00754761
1087.84735840,0.00734626
1089.77616577,0.00690882
1091.70497314,0.00665691
1093.63378052,0.00650493
1095.56258789,0.00615664
1097.49139526,0.00614965
1099.42020264,0.00575374
1101.34901001,0.00566912
1103.27781738,0.00577557
1105.20662476,0.00560489
1107.13543213,0.00545956
1109.06423950,0.00519464
1110.99304687,0.00522669
1112.92185425,0.00526885
1114.85066162,0.00514977
1116.77946899,0.00489543
1118.70827637,0.00487916
1120.63708374,0.00512518
1122.56589111,0.00525829
1124.49469849,0.00525056
1126.42350586,0.00526799
1128.35231323,0.00556684
1130.28112061,0.00563701
1132.20992798,0.00570180
1134.13873535,0.00588297
1136.06754272,0.00617972
1137.99635010,0.00653747
1139.92515747,0.00672439
1141.85396484,0.00709233
1143.78277222,0.00757881
1145.71157959,0.00830723
1147.64038696,0.00879164
1149.56919434,0.00915836
1151.49800171,0.00975604
1153.42680908,0.01005366
1155.35561646,0.01034482
1157.28442383,0.01098235
1159.21323120,0.01139479
1161.14203857,0.01149474
1163.07084595,0.01209389
1164.99965332,0.01230211
1166.92846069,0.01265378
1168.85726807,0.01347471
1170.78607544,0.01378098
1172.71488281,0.01461647
1174.64369019,0.01495307
1176.57249756,0.01522862
1178.50130493,0.01616485
1180.43011230,0.01654521
1182.35891968,0.01716933
1184.28772705,0.01784969
1186.21653442,0.01860661
1188.14534180,0.01968835
1190.07414917,0.02057203
1192.00295654,0.02144114
1193.93176392,0.02245691
1195.86057129,0.02342946
1197.78937866,0.02438644
1199.71818604,0.02562592
1201.64699341,0.02682103
1203.57580078,0.02794002
1205.50460815,0.02878610
1207.43341553,0.02961978
1209.36222290,0.03084956
1211.29103027,0.03160460
1213.21983765,0.03221663
1215.14864502,0.03329384
1217.07745239,0.03402134
1219.00625977,0.03453807
1220.93506714,0.03533862
1222.86387451,0.03550200
1224.79268188,0.03557288
1226.72148926,0.03602353
1228.65029663,0.03616162
1230.57910400,0.03636713
1232.50791138,0.03645330
1234.43671875,0.03652586
1236.36552612,0.03649864
1238.29433350,0.03642818
1240.22314087,0.03650633
1242.15194824,0.03618027
1244.08075562,0.03612677
1246.00956299,0.03602567
1247.93837036,0.03565551
1249.86717773,0.03551680
1251.79598511,0.03516314
1253.72479248,0.03486013
1255.65359985,0.03461119
1257.58240723,0.03402375
1259.51121460,0.03338738
1261.44002197,0.03300002
1263.36882935,0.03257632
1265.29763672,0.03215982
1267.22644409,0.03200765
1269.15525146,0.03153152
1271.08405884,0.03083183
1273.01286621,0.03054237
1274.94167358,0.03005453
1276.87048096,0.02928990
1278.79928833,0.02880413
1280.72809570,0.02828295
1282.65690308,0.02778510
1284.58571045,0.02730829
1286.51451782,0.02676561
1288.44332520,0.02628764
1290.37213257,0.02594531
1292.30093994,0.02574217
1294.22974731,0.02557388
1296.15855469,0.02567464
1298.08736206,0.02551859
1300.01616943,0.02534505
1301.94497681,0.02543614
1303.87378418,0.02550649
1305.80259155,0.02590656
1307.73139893,0.02622195
1309.66020630,0.02671300
1311.58901367,0.02698427
1313.51782104,0.02731893
1315.44662842,0.02842891
1317.37543579,0.02895582
1319.30424316,0.02964064
1321.23305054,0.03077566
1323.16185791,0.03147335
1325.09066528,0.03237604
1327.01947266,0.03335778
1328.94828003,0.03396736
1330.87708740,0.03481969
1332.80589478,0.03589439
1334.73470215,0.03642549
1336.66350952,0.03663231
1338.59231689,0.03636146
1340.52112427,0.03682967
1342.44993164,0.03833534
1344.37873901,0.03849594
1346.30754639,0.03838276
1348.23635376,0.03845351
1350.16516113,0.03805748
1352.09396851,0.03797710
1354.02277588,0.03751972
1355.95158325,0.03717566
1357.88039062,0.03709557
1359.80919800,0.03644750
1361.73800537,0.03483399
1363.66681274,0.03445479
1365.59562012,0.03606788
1367.52442749,0.03531566
1369.45323486,0.03488732
1371.38204224,0.03541009
1373.31084961,0.03372726
1375.23965698,0.03393347
1377.16846436,0.03470934
1379.09727173,0.03446716
1381.02607910,0.03444899
1382.95488647,0.03444357
1384.88369385,0.03444714
1386.81250122,0.03288562
1388.74130859,0.03336959
1390.67011597,0.03623911
1392.59892334,0.03528273
1394.52773071,0.03298923
1396.45653809,0.03457415
1398.38534546,0.03435965
1400.31415283,0.03427700
1402.24296021,0.03708234
1404.17176758,0.03498846
1406.10057495,0.03519291
1408.02938232,0.03657116
1409.95818970,0.03530311
1411.88699707,0.03597633
1413.81580444,0.03471658
1415.74461182,0.03538473
1417.67341919,0.03193799
1419.60222656,0.02871338
1421.53103394,0.03299825
1423.45984131,0.03195051
1425.38864868,0.03104399
1427.31745605,0.03147710
1429.24626343,0.02920400
1431.17507080,0.02826210
1433.10387817,0.02871429
1435.03268555,0.02623779
1436.96149292,0.02222993
1438.89030029,0.02538492
1440.81910767,0.02592638
1442.74791504,0.02428662
1444.67672241,0.02543097
1446.60552979,0.02305239
1448.53433716,0.02355575
1450.46314453,0.02433456
1452.39195190,0.02476715
1454.32075928,0.02549470
1456.24956665,0.02107086
1458.17837402,0.02221395
1460.10718140,0.02935197
1462.03598877,0.03118992
1463.96479614,0.03081766
1465.89360352,0.03218091
1467.82241089,0.03660832
1469.75121826,0.03903743
1471.68002563,0.03484554
1473.60883301,0.03671870
1475.53764038,0.04176021
1477.46644775,0.04494272
1479.39525513,0.04933244
1481.32406250,0.04993812
1483.25286987,0.05313633
1485.18167725,0.05474953
1487.11048462,0.05376558
1489.03929199,0.05334909
1490.96809937,0.05368049
1492.89690674,0.06267518
1494.82571411,0.06078134
1496.75452148,0.05479778
1498.68332886,0.06222972
1500.61213623,0.06389844
1502.54094360,0.06848149
1504.46975098,0.06417087
1506.39855835,0.04715358
1508.32736572,0.05805894
1510.25617310,0.06747298
1512.18498047,0.06552377
1514.11378784,0.07061173
1516.04259521,0.06369501
1517.97140259,0.06681570
1519.90020996,0.06404664
1521.82901733,0.05583900
1523.75782471,0.06824775
1525.68663208,0.06673747
1527.61543945,0.06673627
1529.54424683,0.07366636
1531.47305420,0.07073508
1533.40186157,0.06476569
1535.33066895,0.06905714
1537.25947632,0.07332660
1539.18828369,0.05219361
1541.11709106,0.05554681
1543.04589844,0.06599326
1544.97470581,0.06337877
1546.90351318,0.07500251
1548.83232056,0.06971268
1550.76112793,0.07222630
1552.68993530,0.07136446
1554.61874268,0.06527479
1556.54755005,0.06948144
1558.47635742,0.04878253
1560.40516479,0.05381323
1562.33397217,0.07557511
1564.26277954,0.07114665
1566.19158691,0.07335544
1568.12039429,0.07221575
1570.04920166,0.06441802
1571.97800903,0.07454202
1573.90681641,0.07464692
1575.83562378,0.05940313
1577.76443115,0.06761861
1579.69323853,0.07575879
1581.62204590,0.07265233
1583.55085327,0.07461478
1585.47966064,0.07350837
1587.40846802,0.07399936
1589.33727539,0.07320064
1591.26608276,0.07336496
1593.19489014,0.07330891
1595.12369751,0.07263350
1597.05250488,0.07357761
1598.98131226,0.07302544
1600.91011963,0.07345586
1602.83892700,0.07199424
1604.76773437,0.07348774
1606.69654175,0.07225331
1608.62534912,0.07205648
1610.55415649,0.07197921
1612.48296387,0.07254908
1614.41177124,0.07317372
1616.34057861,0.05975502
1618.26938599,0.06577420
1620.19819336,0.07562287
1622.12700073,0.06662937
1624.05580811,0.06768196
1625.98461548,0.07099196
1627.91342285,0.07033207
1629.84223022,0.06994636
1631.77103760,0.07489633
1633.69984497,0.06862694
1635.62865234,0.05691220
1637.55745972,0.06651664
1639.48626709,0.07269979
1641.41507446,0.07111465
1643.34388184,0.07290092
1645.27268921,0.06522528
1647.20149658,0.05766870
1649.13030396,0.07212891
1651.05911133,0.06733213
1652.98791870,0.04334179
1654.91672607,0.05995607
1656.84553345,0.07456744
1658.77434082,0.07133724
1660.70314819,0.07322726
1662.63195557,0.06648558
1664.56076294,0.07028506
1666.48957031,0.07507524
1668.41837769,0.06550970
1670.34718506,0.06410615
1672.27599243,0.07247119
1674.20479980,0.06646681
1676.13360718,0.06438082
1678.06241455,0.07400928
1679.99122192,0.07103484
1681.92002930,0.07017072
1683.84883667,0.05669688
1685.77764404,0.05722337
1687.70645142,0.07759412
1689.63525879,0.06693794
1691.56406616,0.07433765
1693.49287354,0.07456880
1695.42168091,0.05494251
1697.35048828,0.06805051
1699.27929565,0.05905917
1701.20810303,0.05416770
1703.13691040,0.07330233
1705.06571777,0.06678597
1706.99452515,0.06765977
1708.92333252,0.07334322
1710.85213989,0.07054520
1712.78094727,0.07173030
1714.70975464,0.06638646
1716.63856201,0.05945323
1718.56736938,0.05877575
1720.49617676,0.06978744
1722.42498413,0.07204367
1724.35379150,0.06720455
1726.28259888,0.07293035
1728.21140625,0.06715728
1730.14021362,0.06797332
1732.06902100,0.06560308
1733.99782837,0.05032778
1735.92663574,0.06312935
1737.85544312,0.06909620
1739.78425049,0.06155907
1741.71305786,0.06720465
1743.64186523,0.06797387
1745.57067261,0.06802438
1747.49947998,0.06851944
1749.42828735,0.06536897
1751.35709473,0.06289035
1753.28590210,0.06981997
1755.21470947,0.07239115
1757.14351685,0.06645305
1759.07232422,0.07294153
1761.00113159,0.06815413
1762.92993896,0.06648792
1764.85874634,0.07552283
1766.78755371,0.06779291
1768.71636108,0.06883223
1770.64516846,0.06805417
1772.57397583,0.06135038
1774.50278320,0.06862479
1776.43159058,0.07211401
1778.36039795,0.07106014
1780.28920532,0.07038077
1782.21801270,0.07088767
1784.14682007,0.07072850
1786.07562744,0.06939641
1788.00443481,0.07305542
1789.93324219,0.07097776
1791.86204956,0.06409507
1793.79085693,0.06716293
1795.71966431,0.07188375
1797.64847168,0.07081089
1799.57727905,0.06983979
1801.50608643,0.06866212
1803.43489380,0.07086691
1805.36370117,0.07238607
1807.29250854,0.07148151
1809.22131592,0.07152720
1811.15012329,0.06973705
1813.07893066,0.07194233
1815.00773804,0.07216927
1816.93654541,0.07143332
1818.86535278,0.07183018
1820.79416016,0.07163341
1822.72296753,0.07254645
1824.65177490,0.06780522
1826.58058228,0.07037728
1828.50938965,0.07022321
1830.43819702,0.06614980
1832.36700439,0.07194307
1834.29581177,0.07126395
1836.22461914,0.07131740
1838.15342651,0.07114211
1840.08223389,0.07152386
1842.01104126,0.07127742
1843.93984863,0.06351086
1845.86865601,0.06802527
1847.79746338,0.07135873
1849.72627075,0.06966846
1851.65507812,0.07182868
1853.58388550,0.07039215
1855.51269287,0.07111853
1857.44150024,0.07067095
1859.37030762,0.07028082
1861.29911499,0.07073241
1863.22792236,0.06989601
1865.15672974,0.07072726
1867.08553711,0.06811378
1869.01434448,0.06534780
1870.94315186,0.06808078
1872.87195923,0.07037252
1874.80076660,0.06939873
1876.72957397,0.06977879
1878.65838135,0.06945248
1880.58718872,0.06918815
1882.51599609,0.06952526
1884.44480347,0.06845134
1886.37361084,0.06952342
1888.30241821,0.06773113
1890.23122559,0.06657888
1892.16003296,0.06923200
1894.08884033,0.06813364
1896.01764771,0.06767183
1897.94645508,0.06840776
1899.87526245,0.06814799
1901.80406982,0.06824999
1903.73287720,0.06773950
1905.66168457,0.06803033
1907.59049194,0.06742302
1909.51929932,0.06688969
1911.44810669,0.06727760
1913.37691406,0.06752408
1915.30572144,0.06796229
1917.23452881,0.06497048
1919.16333618,0.06512614
1921.09214355,0.06750809
1923.02095093,0.06535888
1924.94975830,0.06660972
1926.87856567,0.06725928
1928.80737305,0.06654988
1930.73618042,0.06737325
1932.66498779,0.06634697
1934.59379517,0.06699497
1936.52260254,0.06646060
1938.45140991,0.06664051
1940.38021729,0.06655418
1942.30902466,0.06436169
1944.23783203,0.06569561
1946.16663940,0.06622476
1948.09544678,0.06610082
1950.02425415,0.06628824
1951.95306152,0.06595477
1953.88186890,0.06620152
1955.81067627,0.06582157
1957.73948364,0.06601202
1959.66829102,0.06592189
1961.59709839,0.06575948
1963.52590576,0.06590237
1965.45471313,0.06541723
1967.38352051,0.06477579
1969.31232788,0.06527382
1971.24113525,0.06572743
1973.16994263,0.06526982
1975.09875000,0.06556357
1977.02755737,0.06505662
1978.95636475,0.06502227
1980.88517212,0.06509280
1982.81397949,0.06465760
1984.74278687,0.06507637
1986.67159424,0.06452097
1988.60040161,0.06454638
1990.52920898,0.06412563
1992.45801636,0.06343089
1994.38682373,0.06431217
1996.31563110,0.06430448
1998.24443848,0.06400474
2000.17324585,0.06402027
2002.10205322,0.06373811
2004.03086060,0.06363455
2005.95966797,0.06356192
2007.88847534,0.06330463
2009.81728271,0.06321260
2011.74609009,0.06310797
2013.67489746,0.06305176
2015.60370483,0.06263811
2017.53251221,0.06201143
2019.46131958,0.06246622
2021.39012695,0.06248304
2023.31893433,0.06212661
2025.24774170,0.06213849
2027.17654907,0.06195021
2029.10535645,0.06185554
2031.03416382,0.06163134
2032.96297119,0.06157693
2034.89177856,0.06134224
2036.82058594,0.06126763
2038.74939331,0.06119305
2040.67820068,0.06072208
2042.60700806,0.06075598
2044.53581543,0.06066360
2046.46462280,0.06048829
2048.39343018,0.06049273
2050.32223755,0.06039230
2052.25104492,0.06024048
2054.17985229,0.06007366
2056.10865967,0.05994909
2058.03746704,0.05973320
2059.96627441,0.05958293
2061.89508179,0.05961112
2063.82388916,0.05931382
2065.75269653,0.05887456
2067.68150391,0.05915100
2069.61031128,0.05922454
2071.53911865,0.05881437
2073.46792603,0.05871805
2075.39673340,0.05876337
2077.32554077,0.05859494
2079.25434814,0.05838644
2081.18315552,0.05840628
2083.11196289,0.05819804
2085.04077026,0.05820359
2086.96957764,0.05803268
2088.89838501,0.05768249
2090.82719238,0.05763743
2092.75599976,0.05747908
2094.68480713,0.05758571
2096.61361450,0.05730797
2098.54242187,0.05726878
2100.47122925,0.05723756
2102.40003662,0.05690240
2104.32884399,0.05704723
2106.25765137,0.05676878
2108.18645874,0.05676159
2110.11526611,0.05671818
2112.04407349,0.05646884
2113.97288086,0.05637617
2115.90168823,0.05629588
2117.83049561,0.05649249
2119.75930298,0.05624958
2121.68811035,0.05608152
2123.61691772,0.05603896
2125.54572510,0.05597720
2127.47453247,0.05589157
2129.40333984,0.05576723
2131.33214722,0.05568875
2133.26095459,0.05546843
2135.18976196,0.05551087
2137.11856934,0.05541251
2139.04737671,0.05538657
2140.97618408,0.05520212
2142.90499146,0.05514359
2144.83379883,0.05530142
2146.76260620,0.05497894
2148.69141357,0.05495060
2150.62022095,0.05483200
2152.54902832,0.05477498
2154.47783569,0.05471119
2156.40664307,0.05463294
2158.33545044,0.05468627
2160.26425781,0.05436112
2162.19306519,0.05431701
2164.12187256,0.05429608
2166.05067993,0.05428175
2167.97948730,0.05414738
2169.90829468,0.05405394
2171.83710205,0.05403727
2173.76590942,0.05383018
2175.69471680,0.05399644
2177.62352417,0.05388030
2179.55233154,0.05377018
2181.48113892,0.05377824
2183.40994629,0.05368378
2185.33875366,0.05354747
2187.26756104,0.05331575
2189.19636841,0.05341442
2191.12517578,0.05334042
2193.05398315,0.05333452
2194.98279053,0.05329797
2196.91159790,0.05315911
2198.84040527,0.05316732
2200.76921265,0.05293154
2202.69802002,0.05287506
2204.62682739,0.05288303
2206.55563477,0.05276812
2208.48444214,0.05265599
2210.41324951,0.05261871
2212.34205688,0.05265227
2214.27086426,0.05261258
2216.19967163,0.05253923
2218.12847900,0.05238121
2220.05728638,0.05222072
2221.98609375,0.05225926
2223.91490112,0.05230720
2225.84370850,0.05190994
2227.77251587,0.05174409
2229.70132324,0.05186323
2231.63013062,0.05168219
2233.55893799,0.05164932
2235.48774536,0.05155698
2237.41655273,0.05147375
2239.34536011,0.05155265
2241.27416748,0.05138302
2243.20297485,0.05126080
2245.13178223,0.05116458
2247.06058960,0.05094062
2248.98939697,0.05093607
2250.91820435,0.05085927
2252.84701172,0.05073503
2254.77581909,0.05071670
2256.70462646,0.05054612
2258.63343384,0.05058863
2260.56224121,0.05054844
2262.49104858,0.05041409
2264.41985596,0.05031696
2266.34866333,0.05016360
2268.27747070,0.05029397
2270.20627808,0.05018028
2272.13508545,0.05001314
2274.06389282,0.05004200
2275.99270020,0.04994326
2277.92150757,0.04981750
2279.85031494,0.04983306
2281.77912231,0.04981616
2283.70792969,0.04962348
2285.63673706,0.04959307
2287.56554443,0.04944060
2289.49435181,0.04934842
2291.42315918,0.04916958
2293.35196655,0.04894607
2295.28077393,0.04904230
2297.20958130,0.04878812
2299.13838867,0.04861030
2301.06719604,0.04851876
2302.99600342,0.04823408
2304.92481079,0.04787707
2306.85361816,0.04755282
2308.78242554,0.04722580
2310.71123291,0.04679973
2312.64004028,0.04653335
2314.56884766,0.04595283
2316.49765503,0.04542036
2318.42646240,0.04479528
2320.35526978,0.04406461
2322.28407715,0.04359856
2324.21288452,0.04293902
2326.14169189,0.04258168
2328.07049927,0.04209404
2329.99930664,0.04145842
2331.92811401,0.04114554
2333.85692139,0.04094879
2335.78572876,0.04073798
2337.71453613,0.04061444
2339.64334351,0.04061315
2341.57215088,0.04069445
2343.50095825,0.04142519
2345.42976562,0.04220662
2347.35857300,0.04388193
2349.28738037,0.04524713
2351.21618774,0.04362477
2353.14499512,0.04153591
2355.07380249,0.04001125
2357.00260986,0.03865806
2358.93141724,0.03797948
2360.86022461,0.03762950
2362.78903198,0.03750539
2364.71783936,0.03769260
2366.64664673,0.03831942
2368.57545410,0.03906691
2370.50426147,0.04012576
2372.43306885,0.04116658
2374.36187622,0.04217198
2376.29068359,0.04344572
2378.21949097,0.04440046
2380.14829834,0.04505009
2382.07710571,0.04553983
2384.00591309,0.04585949
2385.93472046,0.04588388
2387.86352783,0.04596393
2389.79233521,0.04596338
2391.72114258,0.04583871
2393.64994995,0.04587052
2395.57875732,0.04578827
2397.50756470,0.04573864
2399.43637207,0.04561226
2401.36517944,0.04570503
2403.29398682,0.04565619
2405.22279419,0.04541487
2407.15160156,0.04547510
2409.08040894,0.04533456
2411.00921631,0.04520631
2412.93802368,0.04514729
2414.86683105,0.04509668
2416.79563843,0.04497778
2418.72444580,0.04494957
2420.65325317,0.04494456
2422.58206055,0.04477976
2424.51086792,0.04477391
2426.43967529,0.04464418
2428.36848267,0.04460481
2430.29729004,0.04452284
2432.22609741,0.04443042
2434.15490479,0.04440084
2436.08371216,0.04436523
2438.01251953,0.04448599
2439.94132690,0.04425425
2441.87013428,0.04411723
2443.79894165,0.04408450
2445.72774902,0.04402737
2447.65655640,0.04402681
2449.58536377,0.04392980
2451.51417114,0.04391824
2453.44297852,0.04374533
2455.37178589,0.04369751
2457.30059326,0.04371461
2459.22940063,0.04356652
2461.15820801,0.04342712
2463.08701538,0.04340586
2465.01582275,0.04332094
2466.94463013,0.04325635
2468.87343750,0.04337193
2470.80224487,0.04320160
2472.73105225,0.04314478
2474.65985962,0.04307213
2476.58866699,0.04303756
2478.51747437,0.04311807
2480.44628174,0.04287427
2482.37508911,0.04283389
2484.30389648,0.04279742
2486.23270386,0.04274739
2488.16151123,0.04272005
2490.09031860,0.04268959
2492.01912598,0.04262720
2493.94793335,0.04245201
2495.87674072,0.04242666
2497.80554810,0.04231369
2499.73435547,0.04233611
2501.66316284,0.04224591
2503.59197021,0.04216868
2505.52077759,0.04223282
2507.44958496,0.04205690
2509.37839233,0.04205143
2511.30719971,0.04201750
2513.23600708,0.04191458
2515.16481445,0.04185840
2517.09362183,0.04179803
2519.02242920,0.04169837
2520.95123657,0.04171347
2522.88004395,0.04174120
2524.80885132,0.04155383
2526.73765869,0.04141356
2528.66646606,0.04124249
2530.59527344,0.04137654
2532.52408081,0.04128921
2534.45288818,0.04108983
2536.38169556,0.04128182
2538.31050293,0.04111285
2540.23931030,0.04103351
2542.16811768,0.04095634
2544.09692505,0.04087929
2546.02573242,0.04096308
2547.95453979,0.04085503
2549.88334717,0.04077885
2551.81215454,0.04063746
2553.74096191,0.04058154
2555.66976929,0.04054761
2557.59857666,0.04056223
2559.52738403,0.04051896
2561.45619141,0.04030237
2563.38499878,0.04026449
2565.31380615,0.04023699
2567.24261353,0.04018667
2569.17142090,0.04010136
2571.10022827,0.04008581
2573.02903564,0.04008300
2574.95784302,0.03997727
2576.88665039,0.03990930
2578.81545776,0.03987944
2580.74426514,0.03988077
2582.67307251,0.03966988
2584.60187988,0.03959706
2586.53068726,0.03971051
2588.45949463,0.03949730
2590.38830200,0.03942484
2592.31710937,0.03955030
2594.24591675,0.03938699
2596.17472412,0.03928441
2598.10353149,0.03933804
2600.03233887,0.03926651
2601.96114624,0.03914105
2603.88995361,0.03905069
2605.81876099,0.03906599
2607.74756836,0.03898175
2609.67637573,0.03887993
2611.60518311,0.03883686
2613.53399048,0.03871058
2615.46279785,0.03867884
2617.39160522,0.03870483
2619.32041260,0.03873076
2621.24921997,0.03857517
2623.17802734,0.03846128
2625.10683472,0.03847108
2627.03564209,0.03838705
2628.96444946,0.03843269
2630.89325684,0.03832771
2632.82206421,0.03822508
2634.75087158,0.03823176
2636.67967895,0.03807062
2638.60848633,0.03804826
2640.53729370,0.03803273
2642.46610107,0.03786614
2644.39490845,0.03787130
2646.32371582,0.03785864
2648.25252319,0.03773214
2650.18133057,0.03780411
2652.11013794,0.03773697
2654.03894531,0.03766908
2655.96775269,0.03771272
2657.89656006,0.03750994
2659.82536743,0.03735646
2661.75417480,0.03731007
2663.68298218,0.03729917
2665.61178955,0.03716870
2667.54059692,0.03711221
2669.46940430,0.03720056
2671.39821167,0.03709445
2673.32701904,0.03694557
2675.25582642,0.03682857
2677.18463379,0.03682829
2679.11344116,0.03680250
2681.04224854,0.03680492
2682.97105591,0.03668664
2684.89986328,0.03647670
2686.82867065,0.03655402
2688.75747803,0.03648905
2690.68628540,0.03644401
2692.61509277,0.03641815
2694.54390015,0.03631397
2696.47270752,0.03628471
2698.40151489,0.03624498
2700.33032227,0.03630597
2702.25912964,0.03614598
2704.18793701,0.03595278
2706.11674438,0.03603372
2708.04555176,0.03605791
2709.97435913,0.03582752
2711.90316650,0.03567100
2713.83197388,0.03572728
2715.76078125,0.03573698
2717.68958862,0.03572090
2719.61839600,0.03564689
2721.54720337,0.03557953
2723.47601074,0.03551014
2725.40481812,0.03543313
2727.33362549,0.03530177
2729.26243286,0.03532804
2731.19124023,0.03530671
2733.12004761,0.03501578
2735.04885498,0.03519693
2736.97766235,0.03518847
2738.90646973,0.03500532
2740.83527710,0.03506733
2742.76408447,0.03492236
2744.69289185,0.03488774
2746.62169922,0.03469926
2748.55050659,0.03464229
2750.47931396,0.03469443
2752.40812134,0.03461850
2754.33692871,0.03465131
2756.26573608,0.03441691
2758.19454346,0.03434040
2760.12335083,0.03442944
2762.05215820,0.03427427
2763.98096558,0.03414466
2765.90977295,0.03418455
2767.83858032,0.03411335
2769.76738770,0.03402115
2771.69619507,0.03401405
2773.62500244,0.03379929
2775.55380981,0.03374937
2777.48261719,0.03380485
2779.41142456,0.03365511
2781.34023193,0.03357992
2783.26903931,0.03364960
2785.19784668,0.03353497
2787.12665405,0.03344094
2789.05546143,0.03346005
2790.98426880,0.03323194
2792.91307617,0.03327896
2794.84188354,0.03330023
2796.77069092,0.03317956
2798.69949829,0.03318724
2800.62830566,0.03294826
2802.55711304,0.03288424
2804.48592041,0.03283994
2806.41472778,0.03275628
2808.34353516,0.03274995
2810.27234253,0.03264042
2812.20114990,0.03259455
2814.12995728,0.03250600
2816.05876465,0.03241998
2817.98757202,0.03236892
2819.91637939,0.03232341
2821.84518677,0.03226625
2823.77399414,0.03227147
2825.70280151,0.03217801
2827.63160889,0.03199861
2829.56041626,0.03200740
2831.48922363,0.03192371
2833.41803101,0.03179862
2835.34683838,0.03179996
2837.27564575,0.03182661
2839.20445312,0.03162688
2841.13326050,0.03137476
2843.06206787,0.03131792
2844.99087524,0.03121998
2846.91968262,0.03108644
2848.84848999,0.03089789
2850.77729736,0.03081373
2852.70610474,0.03080684
2854.63491211,0.03078607
2856.56371948,0.03069523
2858.49252686,0.03057455
2860.42133423,0.03065760
2862.35014160,0.03063459
2864.27894897,0.03056631
2866.20775635,0.03049238
2868.13656372,0.03038268
2870.06537109,0.03040969
2871.99417847,0.03040028
2873.92298584,0.03029680
2875.85179321,0.03026157
2877.78060059,0.03024593
2879.70940796,0.03015758
2881.63821533,0.03021360
2883.56702270,0.03007872
2885.49583008,0.02993074
2887.42463745,0.02994509
2889.35344482,0.02979034
2891.28225220,0.02979148
2893.21105957,0.02977976
2895.13986694,0.02967420
2897.06867432,0.02948691
2898.99748169,0.02948604
2900.92628906,0.02948597
2902.85509644,0.02923225
2904.78390381,0.02933058
2906.71271118,0.02917821
2908.64151855,0.02891118
2910.57032593,0.02888758
2912.49913330,0.02875936
2914.42794067,0.02861876
2916.35674805,0.02846891
2918.28555542,0.02843991
2920.21436279,0.02835294
2922.14317017,0.02833479
2924.07197754,0.02825982
2926.00078491,0.02818590
2927.92959229,0.02821538
2929.85839966,0.02812854
2931.78720703,0.02822698
2933.71601440,0.02821202
2935.64482178,0.02821531
2937.57362915,0.02819757
2939.50243652,0.02812202
2941.43124390,0.02816878
2943.36005127,0.02802727
2945.28885864,0.02804389
2947.21766602,0.02805189
2949.14647339,0.02795140
2951.07528076,0.02785418
2953.00408813,0.02780235
2954.93289551,0.02786073
2956.86170288,0.02769551
2958.79051025,0.02754484
2960.71931763,0.02747254
2962.64812500,0.02735596
2964.57693237,0.02729425
2966.50573975,0.02725745
2968.43454712,0.02729667
2970.36335449,0.02742711
2972.29216187,0.02741194
2974.22096924,0.02740080
2976.14977661,0.02742041
2978.07858398,0.02723959
2980.00739136,0.02733095
2981.93619873,0.02738966
2983.86500610,0.02733044
2985.79381348,0.02735223
2987.72262085,0.02715012
2989.65142822,0.02714912
2991.58023560,0.02719607
2993.50904297,0.02711231
2995.43785034,0.02708704
2997.36665771,0.02713424
2999.29546509,0.02709261
3001.22427246,0.02695170
3003.15307983,0.02696610
3005.08188721,0.02683829
3007.01069458,0.02677297
3008.93950195,0.02676373
3010.86830933,0.02657701
3012.79711670,0.02651960
3014.72592407,0.02649504
3016.65473145,0.02638578
3018.58353882,0.02633337
3020.51234619,0.02637830
3022.44115356,0.02635820
3024.36996094,0.02628006
3026.29876831,0.02613684
3028.22757568,0.02610187
3030.15638306,0.02604140
3032.08519043,0.02589393
3034.01399780,0.02589796
3035.94280518,0.02577342
3037.87161255,0.02586394
3039.80041992,0.02587228
3041.72922729,0.02570885
3043.65803467,0.02572867
3045.58684204,0.02557138
3047.51564941,0.02555810
3049.44445679,0.02546897
3051.37326416,0.02544651
3053.30207153,0.02551417
3055.23087891,0.02530183
3057.15968628,0.02522776
3059.08849365,0.02517567
3061.01730103,0.02516530
3062.94610840,0.02506716
3064.87491577,0.02501491
3066.80372314,0.02504877
3068.73253052,0.02498079
3070.66133789,0.02509862
3072.59014526,0.02497709
3074.51895264,0.02482272
3076.44776001,0.02476992
3078.37656738,0.02462791
3080.30537476,0.02469562
3082.23418213,0.02457652
3084.16298950,0.02443026
3086.09179687,0.02451933
3088.02060425,0.02451691
3089.94941162,0.02453053
3091.87821899,0.02444174
3093.80702637,0.02429254
3095.73583374,0.02425465
3097.66464111,0.02420110
3099.59344849,0.02420826
3101.52225586,0.02402893
3103.45106323,0.02392145
3105.37987061,0.02400576
3107.30867798,0.02385475
3109.23748535,0.02382137
3111.16629272,0.02376362
3113.09510010,0.02368865
3115.02390747,0.02365425
3116.95271484,0.02348699
3118.88152222,0.02354257
3120.81032959,0.02346543
3122.73913696,0.02331064
3124.66794434,0.02333839
3126.59675171,0.02333533
3128.52555908,0.02332113
3130.45436645,0.02316554
3132.38317383,0.02305132
3134.31198120,0.02311935
3136.24078857,0.02304566
3138.16959595,0.02287993
3140.09840332,0.02286623
3142.02721069,0.02278028
3143.95601807,0.02271545
3145.88482544,0.02275316
3147.81363281,0.02263855
3149.74244019,0.02250889
3151.67124756,0.02242272
3153.60005493,0.02238605
3155.52886230,0.02232442
3157.45766968,0.02223265
3159.38647705,0.02209420
3161.31528442,0.02204195
3163.24409180,0.02218525
3165.17289917,0.02208611
3167.10170654,0.02199187
3169.03051392,0.02199069
3170.95932129,0.02188331
3172.88812866,0.02187472
3174.81693604,0.02175055
3176.74574341,0.02158144
3178.67455078,0.02157189
3180.60335815,0.02151383
3182.53216553,0.02144777
3184.46097290,0.02146330
3186.38978027,0.02137457
3188.31858765,0.02129024
3190.24739502,0.02126632
3192.17620239,0.02120642
3194.10500977,0.02113038
3196.03381714,0.02105451
3197.96262451,0.02099369
3199.89143188,0.02094562
3201.82023926,0.02099604
3203.74904663,0.02081681
3205.67785400,0.02072525
3207.60666138,0.02080490
3209.53546875,0.02062741
3211.46427612,0.02062941
3213.39308350,0.02055807
3215.32189087,0.02051640
3217.25069824,0.02049960
3219.17950562,0.02045250
3221.10831299,0.02058357
3223.03712036,0.02041020
3224.96592773,0.02043085
3226.89473511,0.02041304
3228.82354248,0.02022515
3230.75234985,0.02022855
3232.68115723,0.02016352
3234.60996460,0.02015860
3236.53877197,0.02007911
3238.46757935,0.02009179
3240.39638672,0.02011104
3242.32519409,0.02014902
3244.25400146,0.02001903
3246.18280884,0.01974393
3248.11161621,0.01992529
3250.04042358,0.01993442
3251.96923096,0.01983171
3253.89803833,0.01981364
3255.82684570,0.01976017
3257.75565308,0.01980663
3259.68446045,0.01976063
3261.61326782,0.01970972
3263.54207520,0.01967739
3265.47088257,0.01970347
3267.39968994,0.01968355
3269.32849731,0.01962321
3271.25730469,0.01950794
3273.18611206,0.01945816
3275.11491943,0.01952591
3277.04372681,0.01950834
3278.97253418,0.01948133
3280.90134155,0.01941792
3282.83014893,0.01952001
3284.75895630,0.01943876
3286.68776367,0.01934224
3288.61657104,0.01941857
3290.54537842,0.01926736
3292.47418579,0.01926155
3294.40299316,0.01924198
3296.33180054,0.01927646
3298.26060791,0.01926981
3300.18941528,0.01920502
3302.11822266,0.01926598
3304.04703003,0.01916479
3305.97583740,0.01908637
3307.90464478,0.01893072
3309.83345215,0.01895092
3311.76225952,0.01899757
3313.69106689,0.01896604
3315.61987427,0.01905866
3317.54868164,0.01899447
3319.47748901,0.01904185
3321.40629639,0.01897380
3323.33510376,0.01883063
3325.26391113,0.01883480
3327.19271851,0.01883704
3329.12152588,0.01879491
3331.05033325,0.01872420
3332.97914062,0.01877763
3334.90794800,0.01867921
3336.83675537,0.01862762
3338.76556274,0.01867976
3340.69437012,0.01856944
3342.62317749,0.01852286
3344.55198486,0.01854428
3346.48079224,0.01854040
3348.40959961,0.01850386
3350.33840698,0.01840438
3352.26721436,0.01837912
3354.19602173,0.01842813
3356.12482910,0.01835272
3358.05363647,0.01833278
3359.98244385,0.01824121
3361.91125122,0.01815608
3363.84005859,0.01817238
3365.76886597,0.01812164
3367.69767334,0.01816238
3369.62648071,0.01800121
3371.55528809,0.01803281
3373.48409546,0.01813727
3375.41290283,0.01800291
3377.34171020,0.01798806
3379.27051758,0.01786546
3381.19932495,0.01791823
3383.12813232,0.01792717
3385.05693970,0.01777193
3386.98574707,0.01775171
3388.91455444,0.01777678
3390.84336182,0.01764733
3392.77216919,0.01756040
3394.70097656,0.01774549
3396.62978394,0.01756723
3398.55859131,0.01755694
3400.48739868,0.01762384
3402.41620605,0.01743731
3404.34501343,0.01749570
3406.27382080,0.01743711
3408.20262817,0.01741032
3410.13143555,0.01734170
3412.06024292,0.01732985
3413.98905029,0.01730622
3415.91785767,0.01722408
3417.84666504,0.01726508
3419.77547241,0.01712146
3421.70427979,0.01707399
3423.63308716,0.01702895
3425.56189453,0.01713278
3427.49070190,0.01707313
3429.41950928,0.01687136
3431.34831665,0.01701510
3433.27712402,0.01697741
3435.20593140,0.01695875
3437.13473877,0.01693239
3439.06354614,0.01683951
3440.99235352,0.01672454
3442.92116089,0.01678848
3444.84996826,0.01685172
3446.77877563,0.01650768
3448.70758301,0.01659780
3450.63639038,0.01667923
3452.56519775,0.01654212
3454.49400513,0.01662168
3456.42281250,0.01655564
3458.35161987,0.01656492
3460.28042725,0.01652552
3462.20923462,0.01640262
3464.13804199,0.01645552
3466.06684937,0.01646702
3467.99565674,0.01640397
3469.92446411,0.01634339
3471.85327148,0.01633324
3473.78207886,0.01633411
3475.71088623,0.01624225
3477.63969360,0.01635337
3479.56850098,0.01626892
3481.49730835,0.01603847
3483.42611572,0.01625895
3485.35492310,0.01621375
3487.28373047,0.01614766
3489.21253784,0.01619741
3491.14134521,0.01618425
3493.07015259,0.01631830
3494.99895996,0.01617210
3496.92776733,0.01604215
3498.85657471,0.01605036
3500.78538208,0.01608851
3502.71418945,0.01585557
3504.64299683,0.01586912
3506.57180420,0.01618069
3508.50061157,0.01592823
3510.42941895,0.01597092
3512.35822632,0.01605212
3514.28703369,0.01602114
3516.21584106,0.01604867
3518.14464844,0.01592034
3520.07345581,0.01608906
3522.00226318,0.01592906
3523.93107056,0.01573701
3525.85987793,0.01579367
3527.78868530,0.01568199
3529.71749268,0.01576740
3531.64630005,0.01595537
3533.57510742,0.01591097
3535.50391479,0.01579194
3537.43272217,0.01586180
3539.36152954,0.01599352
3541.29033691,0.01590797
3543.21914429,0.01573107
3545.14795166,0.01547609
3547.07675903,0.01524688
3549.00556641,0.01584352
3550.93437378,0.01585535
3552.86318115,0.01532741
3554.79198853,0.01583354
3556.72079590,0.01580964
3558.64960327,0.01574067
3560.57841064,0.01566929
3562.50721802,0.01550221
3564.43602539,0.01569310
3566.36483276,0.01458825
3568.29364014,0.01427962
3570.22244751,0.01541661
3572.15125488,0.01574199
3574.08006226,0.01566281
3576.00886963,0.01572968
3577.93767700,0.01566431
3579.86648437,0.01557293
3581.79529175,0.01552131
3583.72409912,0.01559416
3585.65290649,0.01521421
3587.58171387,0.01402302
3589.51052124,0.01454255
3591.43932861,0.01569115
3593.36813599,0.01524364
3595.29694336,0.01504915
3597.22575073,0.01527554
3599.15455811,0.01543891
3601.08336548,0.01531282
3603.01217285,0.01536360
3604.94098022,0.01562916
3606.86978760,0.01510219
3608.79859497,0.01418361
3610.72740234,0.01451907
3612.65620972,0.01486343
3614.58501709,0.01452941
3616.51382446,0.01546420
3618.44263184,0.01415721
3620.37143921,0.01387436
3622.30024658,0.01563779
3624.22905395,0.01519556
3626.15786133,0.01582038
3628.08666870,0.01337790
3630.01547607,0.01235668
3631.94428345,0.01533765
3633.87309082,0.01494909
3635.80189819,0.01520966
3637.73070557,0.01543280
3639.65951294,0.01523848
3641.58832031,0.01532906
3643.51712769,0.01527875
3645.44593506,0.01540694
3647.37474243,0.01379830
3649.30354980,0.01274255
3651.23235718,0.01287805
3653.16116455,0.01527413
3655.08997192,0.01497324
3657.01877930,0.01347743
3658.94758667,0.01550356
3660.87639404,0.01512123
3662.80520142,0.01534789
3664.73400879,0.01520884
3666.66281616,0.01514183
3668.59162354,0.01464904
3670.52043091,0.01201986
3672.44923828,0.01454376
3674.37804565,0.01366623
3676.30685303,0.01156221
3678.23566040,0.01449393
3680.16446777,0.01469868
3682.09327515,0.01476568
3684.02208252,0.01511887
3685.95088989,0.01492083
3687.87969727,0.01337817
3689.80850464,0.01231405
3691.73731201,0.01412804
3693.66611938,0.01452565
3695.59492676,0.01485757
3697.52373413,0.01468926
3699.45254150,0.01457263
3701.38134888,0.01427093
3703.31015625,0.01374761
3705.23896362,0.01510084
3707.16777100,0.01436316
3709.09657837,0.01405301
3711.02538574,0.01315150
3712.95419312,0.01244688
3714.88300049,0.01453860
3716.81180786,0.01425966
3718.74061523,0.01444070
3720.66942261,0.01401886
3722.59822998,0.01358480
3724.52703735,0.01405634
3726.45584473,0.01301965
3728.38465210,0.01415590
3730.31345947,0.01395855
3732.24226685,0.01287098
3734.17107422,0.01253610
3736.09988159,0.01196359
3738.02868896,0.01263111
3739.95749634,0.01366687
3741.88630371,0.01427035
3743.81511108,0.01104251
3745.74391846,0.01065077
3747.67272583,0.01365337
3749.60153320,0.01159804
3751.53034058,0.01082506
3753.45914795,0.01248184
3755.38795532,0.01332253
3757.31676270,0.01377975
3759.24557007,0.01285325
3761.17437744,0.01328922
3763.10318481,0.01402897
3765.03199219,0.01317430
3766.96079956,0.01349325
3768.88960693,0.01328508
3770.81841431,0.01273474
3772.74722168,0.01378389
3774.67602905,0.01371288
3776.60483643,0.01373941
3778.53364380,0.01327248
3780.46245117,0.01272075
3782.39125854,0.01370845
3784.32006592,0.01340165
3786.24887329,0.01325959
3788.17768066,0.01349671
3790.10648804,0.01347046
3792.03529541,0.01338696
3793.96410278,0.01352884
3795.89291016,0.01279838
3797.82171753,0.01266876
3799.75052490,0.01318325
3801.67933228,0.01051143
3803.60813965,0.01238285
3805.53694702,0.01328344
3807.46575439,0.01092272
3809.39456177,0.01323011
3811.32336914,0.01294972
3813.25217651,0.01342425
3815.18098389,0.01205535
3817.10979126,0.01070600
3819.03859863,0.01337991
3820.96740601,0.01077118
3822.89621338,0.01143534
3824.82502075,0.01330612
3826.75382812,0.01209000
3828.68263550,0.01289796
3830.61144287,0.01243735
3832.54025024,0.01210781
3834.46905762,0.01230804
3836.39786499,0.01171660
3838.32667236,0.01050743
3840.25547974,0.01139588
3842.18428711,0.01232479
3844.11309448,0.01173173
3846.04190186,0.01264204
3847.97070923,0.01242140
3849.89951660,0.01250034
3851.82832397,0.01123206
3853.75713135,0.00848137
3855.68593872,0.01014722
3857.61474609,0.01253796
3859.54355347,0.01204249
3861.47236084,0.01200551
3863.40116821,0.01184488
3865.32997559,0.01102325
3867.25878296,0.01224877
3869.18759033,0.01112390
3871.11639770,0.01040307
3873.04520508,0.01223920
3874.97401245,0.01120073
3876.90281982,0.01218271
3878.83162720,0.01231008
3880.76043457,0.01059355
3882.68924194,0.01219033
3884.61804932,0.01141620
3886.54685669,0.01058767
3888.47566406,0.01221207
3890.40447144,0.01146793
3892.33327881,0.01085917
3894.26208618,0.01182503
3896.19089355,0.01195900
3898.11970093,0.01150356
3900.04850830,0.01087699
3901.97731567,0.01076383
3903.90612305,0.01071875
3905.83493042,0.01089924
3907.76373779,0.01183131
3909.69254517,0.01178590
3911.62135254,0.01181776
3913.55015991,0.01187503
3915.47896728,0.01136463
3917.40777466,0.01112247
3919.33658203,0.01111951
3921.26538940,0.01156976
3923.19419678,0.01132993
3925.12300415,0.01117674
3927.05181152,0.01137454
3928.98061890,0.01142692
3930.90942627,0.01137169
3932.83823364,0.01093183
3934.76704102,0.01125280
3936.69584839,0.01138297
3938.62465576,0.01138973
3940.55346313,0.01147616
3942.48227051,0.01098854
3944.41107788,0.01106615
3946.33988525,0.01127047
3948.26869263,0.01105173
3950.19750000,0.01103128
3952.12630737,0.01121004
3954.05511475,0.01112167
3955.98392212,0.01108425
3957.91272949,0.01105735
3959.84153687,0.01104781
3961.77034424,0.01100122
3963.69915161,0.01090048
3965.62795898,0.01113236
3967.55676636,0.01097518
3969.48557373,0.01094837
3971.41438110,0.01100216
3973.34318848,0.01089507
3975.27199585,0.01086300
3977.20080322,0.01077976
3979.12961060,0.01095371
3981.05841797,0.01073608
3982.98722534,0.01074544
3984.91603271,0.01083708
3986.84484009,0.01075106
3988.77364746,0.01078046
3990.70245483,0.01059799
3992.63126221,0.01070205
3994.56006958,0.01059073
3996.48887695,0.01054133
3998.41768433,0.01065763
4000.34649170,0.01064415
4002.27529907,0.01055246
4004.20410645,0.01052377
4006.13291382,0.01060159
4008.06172119,0.01038624
4009.99052856,0.01053255
4011.91933594,0.01043941
4013.84814331,0.01036738
4015.77695068,0.01048811
4017.70575806,0.01032421
4019.63456543,0.01043884
4021.56337280,0.01030947
4023.49218018,0.01031757
4025.42098755,0.01030493
4027.34979492,0.01027911
4029.27860229,0.01030335
4031.20740967,0.01015586
4033.13621704,0.01022284
4035.06502441,0.01012590
4036.99383179,0.01020119
4038.92263916,0.01013476
4040.85144653,0.01007988
4042.78025391,0.01011662
4044.70906128,0.01002848
4046.63786865,0.01004257
4048.56667603,0.00991292
4050.49548340,0.01008080
4052.42429077,0.01000506
4054.35309814,0.00992504
4056.28190552,0.00996769
4058.21071289,0.00982411
4060.13952026,0.00986675
4062.06832764,0.00980774
4063.99713501,0.00993445
4065.92594238,0.00987991
4067.85474976,0.00981098
4069.78355713,0.00982726
4071.71236450,0.00967826
4073.64117187,0.00976914
4075.56997925,0.00978778
4077.49878662,0.00976879
4079.42759399,0.00971119
4081.35640137,0.00972623
4083.28520874,0.00973466
4085.21401611,0.00963729
4087.14282349,0.00956518
4089.07163086,0.00955217
4091.00043823,0.00965550
4092.92924561,0.00956736
4094.85805298,0.00951436
4096.78686035,0.00948077
4098.71566772,0.00950987
4100.64447510,0.00948289
4102.57328247,0.00932744
4104.50208984,0.00939041
4106.43089722,0.00931938
4108.35970459,0.00929994
4110.28851196,0.00928929
4112.21731934,0.00922614
4114.14612671,0.00930412
4116.07493408,0.00925138
4118.00374145,0.00919553
4119.93254883,0.00923195
4121.86135620,0.00921421
4123.79016357,0.00910960
4125.71897095,0.00909013
4127.64777832,0.00908875
4129.57658569,0.00901858
4131.50539307,0.00907769
4133.43420044,0.00915872
4135.36300781,0.00903617
4137.29181519,0.00905569
4139.22062256,0.00907138
4141.14942993,0.00894019
4143.07823730,0.00903646
4145.00704468,0.00888131
4146.93585205,0.00888831
4148.86465942,0.00902023
4150.79346680,0.00885508
4152.72227417,0.00888525
4154.65108154,0.00885271
4156.57988892,0.00887715
4158.50869629,0.00877832
4160.43750366,0.00871689
4162.36631103,0.00875342
4164.29511841,0.00863145
4166.22392578,0.00868741
4168.15273315,0.00867228
4170.08154053,0.00877156
4172.01034790,0.00868340
4173.93915527,0.00857198
4175.86796265,0.00864428
4177.79677002,0.00855648
4179.72557739,0.00857759
4181.65438477,0.00853232
4183.58319214,0.00855598
4185.51199951,0.00841529
4187.44080688,0.00840124
4189.36961426,0.00855892
4191.29842163,0.00847383
4193.22722900,0.00850172
4195.15603638,0.00841398
4197.08484375,0.00841750
4199.01365112,0.00834713
4200.94245850,0.00830066
4202.87126587,0.00836797
4204.80007324,0.00823616
4206.72888062,0.00827528
4208.65768799,0.00825779
4210.58649536,0.00825217
4212.51530273,0.00822898
4214.44411011,0.00816594
4216.37291748,0.00816679
4218.30172485,0.00818621
4220.23053223,0.00822109
4222.15933960,0.00808762
4224.08814697,0.00812228
4226.01695435,0.00813278
4227.94576172,0.00806882
4229.87456909,0.00810279
4231.80337646,0.00806017
4233.73218384,0.00796307
4235.66099121,0.00790796
4237.58979858,0.00801623
4239.51860596,0.00798222
4241.44741333,0.00788316
4243.37622070,0.00793075
4245.30502808,0.00797877
4247.23383545,0.00786263
4249.16264282,0.00778834
4251.09145020,0.00782743
4253.02025757,0.00776025
4254.94906494,0.00782256
4256.87787231,0.00776262
4258.80667969,0.00770924
4260.73548706,0.00774499
4262.66429443,0.00771382
4264.59310181,0.00781148
4266.52190918,0.00771931
4268.45071655,0.00769195
4270.37952393,0.00768419
4272.30833130,0.00762913
4274.23713867,0.00770492
4276.16594604,0.00757149
4278.09475342,0.00758169
4280.02356079,0.00765678
4281.95236816,0.00750684
4283.88117554,0.00754461
4285.80998291,0.00757245
4287.73879028,0.00747655
4289.66759766,0.00752170
4291.59640503,0.00743118
4293.52521240,0.00735142
4295.45401978,0.00736045
4297.38282715,0.00734079
4299.31163452,0.00740950
4301.24044189,0.00733460
4303.16924927,0.00734271
4305.09805664,0.00734796
4307.02686401,0.00730060
4308.95567139,0.00732377
4310.88447876,0.00728772
4312.81328613,0.00734876
4314.74209351,0.00726897
4316.67090088,0.00723255
4318.59970825,0.00718656
4320.52851562,0.00717686
4322.45732300,0.00726948
4324.38613037,0.00713763
4326.31493774,0.00722582
4328.24374512,0.00712229
4330.17255249,0.00697460
4332.10135986,0.00712662
4334.03016724,0.00710276
4335.95897461,0.00716581
4337.88778198,0.00709929
4339.81658936,0.00695442
4341.74539673,0.00695609
4343.67420410,0.00696530
4345.60301147,0.00701557
4347.53181885,0.00696736
4349.46062622,0.00697908
4351.38943359,0.00696830
4353.31824097,0.00686849
4355.24704834,0.00692885
4357.17585571,0.00691479
4359.10466309,0.00680824
4361.03347046,0.00684428
4362.96227783,0.00684647
4364.89108520,0.00678583
4366.81989258,0.00677896
4368.74869995,0.00675025
4370.67750732,0.00666700
4372.60631470,0.00667703
4374.53512207,0.00673313
4376.46392944,0.00665855
4378.39273682,0.00666452
4380.32154419,0.00673591
4382.25035156,0.00674208
4384.17915894,0.00666474
4386.10796631,0.00656155
4388.03677368,0.00654057
4389.96558105,0.00653177
4391.89438843,0.00660215
4393.82319580,0.00650424
4395.75200317,0.00647867
4397.68081055,0.00658952
4399.60961792,0.00645360
4401.53842529,0.00654403
4403.46723267,0.00657012
4405.39604004,0.00645841
4407.32484741,0.00653743
4409.25365478,0.00641927
4411.18246216,0.00630818
4413.11126953,0.00637786
4415.04007690,0.00640618
4416.96888428,0.00634506
4418.89769165,0.00630841
4420.82649902,0.00631419
4422.75530640,0.00630504
4424.68411377,0.00626767
4426.61292114,0.00626511
4428.54172852,0.00629108
4430.47053589,0.00621460
4432.39934326,0.00621681
4434.32815063,0.00620455
4436.25695801,0.00618270
4438.18576538,0.00626050
4440.11457275,0.00618532
4442.04338013,0.00617454
4443.97218750,0.00619038
4445.90099487,0.00609984
4447.82980225,0.00612483
4449.75860962,0.00608135
4451.68741699,0.00600051
4453.61622437,0.00606659
4455.54503174,0.00612605
4457.47383911,0.00608156
4459.40264648,0.00596316
4461.33145386,0.00598599
4463.26026123,0.00603155
4465.18906860,0.00593110
4467.11787598,0.00592759
4469.04668335,0.00594292
4470.97549072,0.00594898
4472.90429810,0.00592147
4474.83310547,0.00592091
4476.76191284,0.00598420
4478.69072021,0.00585740
4480.61952759,0.00580970
4482.54833496,0.00587929
4484.47714233,0.00585014
4486.40594971,0.00577285
4488.33475708,0.00579442
4490.26356445,0.00582220
4492.19237183,0.00575969
4494.12117920,0.00577694
4496.04998657,0.00569011
4497.97879395,0.00566872
4499.90760132,0.00570054
4501.83640869,0.00571042
4503.76521606,0.00577834
4505.69402344,0.00565772
4507.62283081,0.00562469
4509.55163818,0.00569387
4511.48044556,0.00572330
4513.40925293,0.00561485
4515.33806030,0.00557501
4517.26686768,0.00563054
4519.19567505,0.00553701
4521.12448242,0.00566406
4523.05328979,0.00560578
4524.98209717,0.00546880
4526.91090454,0.00555791
4528.83971191,0.00551037
4530.76851929,0.00547202
4532.69732666,0.00548076
4534.62613403,0.00547807
4536.55494141,0.00538128
4538.48374878,0.00546374
4540.41255615,0.00549281
4542.34136353,0.00536987
4544.27017090,0.00544830
4546.19897827,0.00536287
4548.12778564,0.00530982
4550.05659302,0.00529592
4551.98540039,0.00524019
4553.91420776,0.00531629
4555.84301514,0.00530393
4557.77182251,0.00522619
4559.70062988,0.00521874
4561.62943726,0.00526272
4563.55824463,0.00524617
4565.48705200,0.00522996
4567.41585937,0.00520038
4569.34466675,0.00522601
4571.27347412,0.00523504
4573.20228149,0.00517056
4575.13108887,0.00512574
4577.05989624,0.00513132
4578.98870361,0.00522270
4580.91751099,0.00505064
4582.84631836,0.00503006
4584.77512573,0.00511981
4586.70393311,0.00500695
4588.63274048,0.00508992
4590.56154785,0.00507160
4592.49035522,0.00507030
4594.41916260,0.00508662
4596.34796997,0.00502950
4598.27677734,0.00506409
4600.20558472,0.00503657
4602.13439209,0.00494984
4604.06319946,0.00489563
4605.99200684,0.00497827
4607.92081421,0.00494292
4609.84962158,0.00493725
4611.77842895,0.00497455
4613.70723633,0.00491685
4615.63604370,0.00489015
4617.56485107,0.00483881
4619.49365845,0.00490839
4621.42246582,0.00492773
4623.35127319,0.00491886
4625.28008057,0.00483270
4627.20888794,0.00479144
4629.13769531,0.00483455
4631.06650269,0.00477375
4632.99531006,0.00484302
4634.92411743,0.00473566
4636.85292480,0.00474542
4638.78173218,0.00480816
4640.71053955,0.00470354
4642.63934692,0.00470653
4644.56815430,0.00467879
4646.49696167,0.00482494
4648.42576904,0.00473185
4650.35457642,0.00457654
4652.28338379,0.00462441
4654.21219116,0.00461538
4656.14099853,0.00467103
4658.06980591,0.00462046
4659.99861328,0.00460609
4661.92742065,0.00453815
4663.85622803,0.00458650
4665.78503540,0.00456867
4667.71384277,0.00443624
4669.64265015,0.00463357
4671.57145752,0.00453885
4673.50026489,0.00447587
4675.42907227,0.00453728
4677.35787964,0.00446386
4679.28668701,0.00454712
4681.21549438,0.00447094
4683.14430176,0.00446957
4685.07310913,0.00449473
4687.00191650,0.00439977
4688.93072388,0.00445058
4690.85953125,0.00445375
4692.78833862,0.00441632
4694.71714600,0.00441564
4696.64595337,0.00440067
4698.57476074,0.00440973
4700.50356812,0.00439825
4702.43237549,0.00435601
4704.36118286,0.00440416
4706.28999023,0.00441336
4708.21879761,0.00435242
4710.14760498,0.00437634
4712.07641235,0.00433246
4714.00521973,0.00426542
4715.93402710,0.00429383
4717.86283447,0.00432016
4719.79164185,0.00432585
4721.72044922,0.00427904
4723.64925659,0.00419890
4725.57806396,0.00418968
4727.50687134,0.00422954
4729.43567871,0.00424789
4731.36448608,0.00421072
4733.29329346,0.00416711
4735.22210083,0.00416285
4737.15090820,0.00412227
4739.07971558,0.00413673
4741.00852295,0.00413315
4742.93733032,0.00405448
4744.86613770,0.00414306
4746.79494507,0.00419954
4748.72375244,0.00410639
4750.65255981,0.00408663
4752.58136719,0.00411762
4754.51017456,0.00404820
4756.43898193,0.00397824
4758.36778931,0.00404844
4760.29659668,0.00401309
4762.22540405,0.00396128
4764.15421143,0.00405949
4766.08301880,0.00404539
4768.01182617,0.00395754
4769.94063354,0.00397146
4771.86944092,0.00400203
4773.79824829,0.00398578
4775.72705566,0.00407160
4777.65586304,0.00406272
4779.58467041,0.00388703
4781.51347778,0.00390993
4783.44228516,0.00392243
4785.37109253,0.00385019
4787.29989990,0.00388824
4789.22870728,0.00387652
4791.15751465,0.00381703
4793.08632202,0.00384292
4795.01512939,0.00388482
4796.94393677,0.00383578
4798.87274414,0.00383681
4800.80155151,0.00387147
4802.73035889,0.00384903
4804.65916626,0.00380561
4806.58797363,0.00375034
4808.51678101,0.00376422
4810.44558838,0.00380342
4812.37439575,0.00379718
4814.30320312,0.00371760
4816.23201050,0.00376515
4818.16081787,0.00379364
4820.08962524,0.00364086
4822.01843262,0.00369989
4823.94723999,0.00374296
4825.87604736,0.00369891
4827.80485474,0.00367468
4829.73366211,0.00362575
4831.66246948,0.00367671
4833.59127686,0.00364875
4835.52008423,0.00361301
4837.44889160,0.00360237
4839.37769897,0.00365732
4841.30650635,0.00369702
4843.23531372,0.00362212
4845.16412109,0.00364403
4847.09292847,0.00368562
4849.02173584,0.00369554
4850.95054321,0.00360607
4852.87935059,0.00359463
4854.80815796,0.00353705
4856.73696533,0.00341193
4858.66577270,0.00355144
4860.59458008,0.00353869
4862.52338745,0.00344970
4864.45219482,0.00347448
4866.38100220,0.00348379
4868.30980957,0.00347849
4870.23861694,0.00346518
4872.16742432,0.00345612
4874.09623169,0.00341651
4876.02503906,0.00352457
4877.95384644,0.00353325
4879.88265381,0.00347513
4881.81146118,0.00346762
4883.74026855,0.00336658
4885.66907593,0.00337669
4887.59788330,0.00339459
4889.52669067,0.00342177
4891.45549805,0.00342233
4893.38430542,0.00334541
4895.31311279,0.00338188
4897.24192017,0.00348379
4899.17072754,0.00342528
4901.09953491,0.00331590
4903.02834228,0.00330052
4904.95714966,0.00328202
4906.88595703,0.00337431
4908.81476440,0.00329122
4910.74357178,0.00322342
4912.67237915,0.00329257
4914.60118652,0.00320071
4916.52999390,0.00325927
4918.45880127,0.00328101
4920.38760864,0.00326481
4922.31641602,0.00325990
4924.24522339,0.00327484
4926.17403076,0.00324975
4928.10283813,0.00311299
4930.03164551,0.00322980
4931.96045288,0.00323935
4933.88926025,0.00319967
4935.81806763,0.00321517
4937.74687500,0.00317749
4939.67568237,0.00317886
4941.60448975,0.00317733
4943.53329712,0.00326879
4945.46210449,0.00317509
4947.39091187,0.00313206
4949.31971924,0.00314147
4951.24852661,0.00313160
4953.17733398,0.00317921
4955.10614136,0.00311449
4957.03494873,0.00315997
4958.96375610,0.00307742
4960.89256348,0.00307986
4962.82137085,0.00311016
4964.75017822,0.00303244
4966.67898560,0.00308921
4968.60779297,0.00299319
4970.53660034,0.00301472
4972.46540771,0.00305952
4974.39421509,0.00304413
4976.32302246,0.00303174
4978.25182983,0.00296509
4980.18063721,0.00305264
4982.10944458,0.00303830
4984.03825195,0.00297798
4985.96705933,0.00297141
4987.89586670,0.00293648
4989.82467407,0.00291936
4991.75348145,0.00295359
4993.68228882,0.00298601
4995.61109619,0.00291727
4997.53990356,0.00285197
4999.46871094,0.00287863
5001.39751831,0.00296764
5003.32632568,0.00289363
5005.25513306,0.00282818
5007.18394043,0.00290563
5009.11274780,0.00290804
5011.04155518,0.00286569
5012.97036255,0.00284554
5014.89916992,0.00287984
5016.82797729,0.00285541
5018.75678467,0.00285763
5020.68559204,0.00283761
5022.61439941,0.00278408
5024.54320679,0.00282499
5026.47201416,0.00281195
5028.40082153,0.00285280
5030.32962891,0.00278264
5032.25843628,0.00271667
5034.18724365,0.00286519
5036.11605103,0.00280861
5038.04485840,0.00272535
5039.97366577,0.00283293
5041.90247314,0.00283549
5043.83128052,0.00275521
5045.76008789,0.00268810
5047.68889526,0.00264299
5049.61770264,0.00270535
5051.54651001,0.00268378
5053.47531738,0.00261717
5055.40412476,0.00266398
5057.33293213,0.00270646
5059.26173950,0.00272037
5061.19054687,0.00268144
5063.11935425,0.00270145
5065.04816162,0.00266497
5066.97696899,0.00260501
5068.90577637,0.00267350
5070.83458374,0.00263983
5072.76339111,0.00262819
5074.69219849,0.00263852
5076.62100586,0.00258083
5078.54981323,0.00257773
5080.47862061,0.00257499
5082.40742798,0.00257924
5084.33623535,0.00261238
5086.26504272,0.00255098
5088.19385010,0.00251014
5090.12265747,0.00257966
5092.05146484,0.00255704
5093.98027222,0.00259845
5095.90907959,0.00256272
5097.83788696,0.00244947
5099.76669434,0.00258454
5101.69550171,0.00260303
5103.62430908,0.00250972
5105.55311645,0.00248159
5107.48192383,0.00248246
5109.41073120,0.00246467
5111.33953857,0.00243254
5113.26834595,0.00250855
5115.19715332,0.00247616
5117.12596069,0.00244114
5119.05476807,0.00248512
5120.98357544,0.00245072
5122.91238281,0.00245814
5124.84119019,0.00245404
5126.76999756,0.00239930
5128.69880493,0.00246241
5130.62761230,0.00247685
5132.55641968,0.00232506
5134.48522705,0.00237258
5136.41403442,0.00242504
5138.34284180,0.00237382
5140.27164917,0.00243743
5142.20045654,0.00236843
5144.12926392,0.00237320
5146.05807129,0.00243051
5147.98687866,0.00233907
5149.91568603,0.00237449
5151.84449341,0.00236987
5153.77330078,0.00231225
5155.70210815,0.00235466
5157.63091553,0.00231443
5159.55972290,0.00230217
5161.48853027,0.00232736
5163.41733765,0.00228027
5165.34614502,0.00229022
5167.27495239,0.00228132
5169.20375977,0.00229643
5171.13256714,0.00230936
5173.06137451,0.00223894
5174.99018188,0.00226765
5176.91898926,0.00224978
5178.84779663,0.00221060
5180.77660400,0.00225845
5182.70541138,0.00225154
5184.63421875,0.00220696
5186.56302612,0.00216037
5188.49183350,0.00219468
5190.42064087,0.00221201
5192.34944824,0.00217617
5194.27825562,0.00219121
5196.20706299,0.00217539
5198.13587036,0.00216489
5200.06467773,0.00212432
5201.99348511,0.00214447
5203.92229248,0.00222871
5205.85109985,0.00210575
5207.77990723,0.00205442
5209.70871460,0.00215203
5211.63752197,0.00219456
5213.56632935,0.00218134
5215.49513672,0.00209779
5217.42394409,0.00213258
5219.35275146,0.00209203
5221.28155884,0.00209346
5223.21036621,0.00219497
5225.13917358,0.00204905
5227.06798096,0.00211474
5228.99678833,0.00216209
5230.92559570,0.00203593
5232.85440308,0.00210674
5234.78321045,0.00209536
5236.71201782,0.00208716
5238.64082520,0.00210494
5240.56963257,0.00210488
5242.49843994,0.00206945
5244.42724731,0.00200161
5246.35605469,0.00205738
5248.28486206,0.00205445
5250.21366943,0.00202403
5252.14247681,0.00207537
5254.07128418,0.00208615
5256.00009155,0.00196482
5257.92889893,0.00197154
5259.85770630,0.00205274
5261.78651367,0.00197409
5263.71532104,0.00199589
5265.64412842,0.00202134
5267.57293579,0.00203281
5269.50174316,0.00201320
5271.43055054,0.00196309
5273.35935791,0.00200683
5275.28816528,0.00192866
5277.21697266,0.00195329
5279.14578003,0.00203147
5281.07458740,0.00199147
5283.00339478,0.00199195
5284.93220215,0.00195842
5286.86100952,0.00200784
5288.78981689,0.00198416
5290.71862427,0.00186967
5292.64743164,0.00197269
5294.57623901,0.00196890
5296.50504639,0.00184970
5298.43385376,0.00187700
5300.36266113,0.00186146
5302.29146851,0.00184572
5304.22027588,0.00185251
5306.14908325,0.00186484
5308.07789062,0.00186565
5310.00669800,0.00184659
5311.93550537,0.00191246
5313.86431274,0.00184621
5315.79312012,0.00182971
5317.72192749,0.00185141
5319.65073486,0.00181092
5321.57954224,0.00194300
5323.50834961,0.00186551
5325.43715698,0.00180997
5327.36596436,0.00186582
5329.29477173,0.00177498
5331.22357910,0.00184307
5333.15238647,0.00182695
5335.08119385,0.00181939
5337.01000122,0.00185338
5338.93880859,0.00175298
5340.86761597,0.00186053
5342.79642334,0.00183866
5344.72523071,0.00165683
5346.65403809,0.00168828
5348.58284546,0.00171812
5350.51165283,0.00172526
5352.44046020,0.00171495
5354.36926758,0.00173533
5356.29807495,0.00182067
5358.22688232,0.00180078
5360.15568970,0.00179576
5362.08449707,0.00180143
5364.01330444,0.00174598
5365.94211182,0.00167712
5367.87091919,0.00168073
5369.79972656,0.00173859
5371.72853394,0.00168531
5373.65734131,0.00170495
5375.58614868,0.00169882
5377.51495605,0.00162185
5379.44376343,0.00169166
5381.37257080,0.00167139
5383.30137817,0.00166804
5385.23018555,0.00170129
5387.15899292,0.00160942
5389.08780029,0.00164957
5391.01660767,0.00170083
5392.94541504,0.00164916
5394.87422241,0.00164125
5396.80302978,0.00161605
5398.73183716,0.00163961
5400.66064453,0.00169344
5402.58945190,0.00165800
5404.51825928,0.00161108
5406.44706665,0.00164254
5408.37587402,0.00169766
5410.30468140,0.00161579
5412.23348877,0.00154980
5414.16229614,0.00156076
5416.09110352,0.00161534
5418.01991089,0.00165629
5419.94871826,0.00151261
5421.87752563,0.00151792
5423.80633301,0.00159636
5425.73514038,0.00161438
5427.66394775,0.00159085
5429.59275513,0.00148111
5431.52156250,0.00160662
5433.45036987,0.00159226
5435.37917725,0.00150937
5437.30798462,0.00160866
5439.23679199,0.00153013
5441.16559936,0.00150029
5443.09440674,0.00159280
5445.02321411,0.00156889
5446.95202148,0.00149045
5448.88082886,0.00153423
5450.80963623,0.00151935
5452.73844360,0.00153860
5454.66725098,0.00157264
5456.59605835,0.00148499
5458.52486572,0.00154194
5460.45367310,0.00148175
5462.38248047,0.00150144
5464.31128784,0.00152531
5466.24009521,0.00145343
5468.16890259,0.00155583
5470.09770996,0.00143499
5472.02651733,0.00143701
5473.95532471,0.00149866
5475.88413208,0.00139205
5477.81293945,0.00139170
5479.74174683,0.00140916
5481.67055420,0.00147245
5483.59936157,0.00145527
5485.52816895,0.00144856
5487.45697632,0.00146469
5489.38578369,0.00145237
5491.31459106,0.00144130
5493.24339844,0.00138096
5495.17220581,0.00136718
5497.10101318,0.00140579
5499.02982056,0.00146411
5500.95862793,0.00141826
5502.88743530,0.00144311
5504.81624268,0.00146269
5506.74505005,0.00139556
5508.67385742,0.00146853
5510.60266479,0.00148513
5512.53147217,0.00146753
5514.46027954,0.00145363
5516.38908691,0.00137729
5518.31789429,0.00135420
5520.24670166,0.00142198
5522.17550903,0.00142063
5524.10431641,0.00134525
5526.03312378,0.00136384
5527.96193115,0.00141658
5529.89073853,0.00140289
5531.81954590,0.00135043
5533.74835327,0.00137776
5535.67716064,0.00130826
5537.60596802,0.00126646
5539.53477539,0.00133916
5541.46358276,0.00131847
5543.39239014,0.00134509
5545.32119751,0.00134219
5547.25000488,0.00133808
5549.17881226,0.00131885
5551.10761963,0.00138257
5553.03642700,0.00137162
5554.96523437,0.00121409
5556.89404175,0.00130823
5558.82284912,0.00128900
5560.75165649,0.00130001
5562.68046387,0.00136056
5564.60927124,0.00127994
5566.53807861,0.00126924
5568.46688599,0.00127980
5570.39569336,0.00140306
5572.32450073,0.00136307
5574.25330811,0.00130247
5576.18211548,0.00129423
5578.11092285,0.00123687
5580.03973022,0.00125279
5581.96853760,0.00123904
5583.89734497,0.00128989
5585.82615234,0.00125098
5587.75495972,0.00125628
5589.68376709,0.00129556
5591.61257446,0.00131017
5593.54138184,0.00130570
5595.47018921,0.00121572
5597.39899658,0.00128537
5599.32780395,0.00127477
5601.25661133,0.00126434
5603.18541870,0.00128689
5605.11422607,0.00129999
5607.04303345,0.00129741
5608.97184082,0.00120410
5610.90064819,0.00125171
5612.82945557,0.00127678
5614.75826294,0.00129582
5616.68707031,0.00123439
5618.61587769,0.00125617
5620.54468506,0.00127474
5622.47349243,0.00115268
5624.40229980,0.00126557
5626.33110718,0.00120643
5628.25991455,0.00120387
5630.18872192,0.00128489
5632.11752930,0.00119620
5634.04633667,0.00121118
5635.97514404,0.00114779
5637.90395142,0.00113354
5639.83275879,0.00117985
5641.76156616,0.00115727
5643.69037353,0.00115336
5645.61918091,0.00126219
5647.54798828,0.00121372
5649.47679565,0.00110040
5651.40560303,0.00121708
5653.33441040,0.00115801
5655.26321777,0.00112757
5657.19202515,0.00114461
5659.12083252,0.00113438
5661.04963989,0.00118284
5662.97844727,0.00112160
5664.90725464,0.00113962
5666.83606201,0.00111077
5668.76486938,0.00112179
5670.69367676,0.00115573
5672.62248413,0.00112634
5674.55129150,0.00117298
5676.48009888,0.00112670
5678.40890625,0.00108109
5680.33771362,0.00108559
5682.26652100,0.00109639
5684.19532837,0.00106029
5686.12413574,0.00107543
5688.05294311,0.00111819
5689.98175049,0.00105051
5691.91055786,0.00107134
5693.83936523,0.00106186
5695.76817261,0.00103821
5697.69697998,0.00106170
5699.62578735,0.00105462
5701.55459473,0.00109323
5703.48340210,0.00104528
5705.41220947,0.00101595
5707.34101685,0.00107178
5709.26982422,0.00104275
5711.19863159,0.00106507
5713.12743896,0.00110107
5715.05624634,0.00102016
5716.98505371,0.00103093
5718.91386108,0.00108172
5720.84266846,0.00105682
5722.77147583,0.00102063
5724.70028320,0.00097442
5726.62909058,0.00100578
5728.55789795,0.00100673
5730.48670532,0.00096252
5732.41551270,0.00101004
5734.34432007,0.00102763
5736.27312744,0.00100879
5738.20193481,0.00102245
5740.13074219,0.00102719
5742.05954956,0.00103525
5743.98835693,0.00104803
5745.91716431,0.00102457
5747.84597168,0.00097832
5749.77477905,0.00098767
5751.70358643,0.00102080
5753.63239380,0.00096910
5755.56120117,0.00097280
5757.49000854,0.00097969
5759.41881592,0.00093574
5761.34762329,0.00097139
5763.27643066,0.00094971
5765.20523804,0.00101001
5767.13404541,0.00098939
5769.06285278,0.00090119
5770.99166016,0.00100311
5772.92046753,0.00094074
5774.84927490,0.00100438
5776.77808228,0.00104356
5778.70688965,0.00086107
5780.63569702,0.00093210
5782.56450439,0.00090020
5784.49331177,0.00082955
5786.42211914,0.00094318
5788.35092651,0.00094716
5790.27973389,0.00091064
5792.20854126,0.00096553
5794.13734863,0.00098311
5796.06615601,0.00094522
5797.99496338,0.00096523
5799.92377075,0.00087662
5801.85257812,0.00085236
5803.78138550,0.00095337
5805.71019287,0.00090670
5807.63900024,0.00091297
5809.56780762,0.00092432
5811.49661499,0.00086737
5813.42542236,0.00089192
5815.35422974,0.00091397
5817.28303711,0.00094261
5819.21184448,0.00092628
5821.14065186,0.00087724
5823.06945923,0.00092740
5824.99826660,0.00092372
5826.92707397,0.00087565
5828.85588135,0.00087670
5830.78468872,0.00090374
5832.71349609,0.00093483
5834.64230347,0.00081841
5836.57111084,0.00079436
5838.49991821,0.00090666
5840.42872559,0.00087524
5842.35753296,0.00087601
5844.28634033,0.00092475
5846.21514770,0.00091922
5848.14395508,0.00084080
5850.07276245,0.00079885
5852.00156982,0.00086846
5853.93037720,0.00083393
5855.85918457,0.00078981
5857.78799194,0.00082146
5859.71679932,0.00084443
5861.64560669,0.00084198
5863.57441406,0.00081161
5865.50322144,0.00084458
5867.43202881,0.00086287
5869.36083618,0.00083491
5871.28964355,0.00081054
5873.21845093,0.00080485
5875.14725830,0.00085229
5877.07606567,0.00082829
5879.00487305,0.00080344
5880.93368042,0.00084081
5882.86248779,0.00082604
5884.79129517,0.00080848
5886.72010254,0.00081094
5888.64890991,0.00085679
5890.57771728,0.00081767
5892.50652466,0.00075362
5894.43533203,0.00082318
5896.36413940,0.00076046
5898.29294678,0.00073638
5900.22175415,0.00083760
5902.15056152,0.00080609
5904.07936890,0.00078943
5906.00817627,0.00081975
5907.93698364,0.00084618
5909.86579102,0.00082381
5911.79459839,0.00071987
5913.72340576,0.00072122
5915.65221313,0.00079710
5917.58102051,0.00076265
5919.50982788,0.00083369
5921.43863525,0.00085118
5923.36744263,0.00066330
5925.29625000,0.00077731
5927.22505737,0.00080024
5929.15386475,0.00071896
5931.08267212,0.00080596
5933.01147949,0.00068790
5934.94028686,0.00076569
5936.86909424,0.00077491
5938.79790161,0.00065683
5940.72670898,0.00078977
5942.65551636,0.00077352
5944.58432373,0.00074125
5946.51313110,0.00073808
5948.44193848,0.00077494
5950.37074585,0.00077313
5952.29955322,0.00066927
5954.22836060,0.00071368
5956.15716797,0.00071667
5958.08597534,0.00072294
5960.01478271,0.00073938
5961.94359009,0.00072501
5963.87239746,0.00078020
5965.80120483,0.00078913
5967.73001221,0.00072544
5969.65881958,0.00070221
5971.58762695,0.00069762
5973.51643433,0.00063498
5975.44524170,0.00070763
5977.37404907,0.00071998
5979.30285645,0.00067206
5981.23166382,0.00076011
5983.16047119,0.00069899
5985.08927856,0.00067704
5987.01808594,0.00076781
5988.94689331,0.00074450
5990.87570068,0.00069560
5992.80450806,0.00075466
5994.73331543,0.00075636
5996.66212280,0.00064790
5998.59093018,0.00064618
6000.51973755,0.00060949
