399.26312622,0.00234471
401.19193359,0.00232737
403.12074097,0.00259866
405.04954834,0.00280302
406.97835571,0.00327564
408.90716309,0.00345521
410.83597046,0.00357312
412.76477783,0.00357927
414.69358521,0.00417251
416.62239258,0.00416360
418.55119995,0.00266906
420.48000732,0.00351354
422.40881470,0.00425168
424.33762207,0.00415778
426.26642944,0.00451958
428.19523682,0.00383826
430.12404419,0.00389969
432.05285156,0.00419349
433.98165894,0.00447707
435.91046631,0.00397555
437.83927368,0.00347816
439.76808105,0.00400905
441.69688843,0.00342227
443.62569580,0.00339056
445.55450317,0.00353354
447.48331055,0.00305702
449.41211792,0.00309155
451.34092529,0.00323487
453.26973267,0.00292392
455.19854004,0.00242083
457.12734741,0.00257109
459.05615479,0.00266180
460.98496216,0.00285671
462.91376953,0.00261821
464.84257690,0.00199187
466.77138428,0.00199375
468.70019165,0.00199371
470.62899902,0.00169745
472.55780640,0.00110984
474.48661377,0.00132187
476.41542114,0.00138330
478.34422852,0.00109976
480.27303589,0.00128189
482.20184326,0.00089868
484.13065063,0.00101189
486.05945801,0.00120951
487.98826538,0.00086826
489.91707275,0.00077236
491.84588013,0.00066637
493.77468750,0.00037291
495.70349487,0.00017485
497.63230225,0.00061527
499.56110962,0.00068867
501.48991699,0.00042390
503.41872437,0.00054515
505.34753174,0.00028402
507.27633911,0.00035270
509.20514648,0.00088647
511.13395386,0.00103333
513.06276123,0.00091032
514.99156860,0.00048070
516.92037598,0.00035544
518.84918335,0.00027350
520.77799072,0.00001736
522.70679810,0.00033325
524.63560547,0.00019655
526.56441284,-0.00017363
528.49322021,0.00020107
530.42202759,0.00051478
532.35083496,0.00032752
534.27964233,0.00020087
536.20844971,0.00068751
538.13725708,0.00075914
540.06606445,0.00009524
541.99487183,0.00023514
543.92367920,0.00011204
545.85248657,-0.00021806
547.78129395,0.00028241
549.71010132,0.00023727
551.63890869,-0.00003734
553.56771606,0.00004840
555.49652344,0.00033695
557.42533081,0.00036418
559.35413818,0.00008118
561.28294556,-0.00017341
563.21175293,0.00006731
565.14056030,0.00054321
567.06936768,-0.00002556
568.99817505,0.00002247
570.92698242,0.00023782
572.85578979,-0.00032853
574.78459717,-0.00000186
576.71340454,0.00050133
578.64221191,0.00055881
580.57101929,-0.00021512
582.49982666,-0.00002492
584.42863403,-0.00006866
586.35744141,-0.00020063
588.28624878,0.00040860
590.21505615,0.00040793
592.14386353,-0.00004287
594.07267090,0.00003905
596.00147827,0.00014267
597.93028564,-0.00006632
599.85909302,0.00013407
601.78790039,-0.00000683
603.71670776,0.00017531
605.64551514,0.00027930
607.57432251,0.00013582
609.50312988,0.00006309
611.43193726,0.00004257
613.36074463,0.00053116
615.28955200,0.00012699
617.21835938,-0.00014135
619.14716675,0.00010521
621.07597412,-0.00005754
623.00478149,0.00000981
624.93358887,0.00013868
626.86239624,0.00024369
628.79120361,0.00021657
630.72001099,0.00057070
632.64881836,0.00180356
634.57762573,0.00264084
636.50643311,0.00288139
638.43524048,0.00299617
640.36404785,0.00313661
642.29285522,0.00355729
644.22166260,0.00379248
646.15046997,0.00403514
648.07927734,0.00447212
650.00808472,0.00493998
651.93689209,0.00507422
653.86569946,0.00506971
655.79450684,0.00539683
657.72331421,0.00541262
659.65212158,0.00543186
661.58092896,0.00570676
663.50973633,0.00656270
665.43854370,0.00662545
667.36735107,0.00561923
669.29615845,0.00631705
671.22496582,0.00693458
673.15377319,0.00715714
675.08258057,0.00789522
677.01138794,0.00786232
678.94019531,0.00799640
680.86900269,0.00814701
682.79781006,0.00800148
684.72661743,0.00779220
686.65542480,0.00787024
688.58423218,0.00793883
690.51303955,0.00807529
692.44184692,0.00863729
694.37065430,0.00897161
696.29946167,0.01029924
698.22826904,0.01174705
700.15707642,0.01250608
702.08588379,0.01249382
704.01469116,0.01128203
705.94349854,0.01038015
707.87230591,0.00888813
709.80111328,0.00688588
711.72992065,0.00511027
713.65872803,0.00299725
715.58753540,0.00170110
717.51634277,0.00120300
719.44515015,0.00060976
721.37395752,0.00058886
723.30276489,0.00080737
725.23157227,0.00048431
727.16037964,0.00052639
729.08918701,0.00047581
731.01799438,0.00023380
732.94680176,-0.00001662
734.87560913,-0.00015261
736.80441650,0.00021275
738.73322388,0.00014197
740.66203125,0.00029572
742.59083862,0.00002579
744.51964600,-0.00001596
746.44845337,0.00072537
748.37726074,0.00032556
750.30606812,0.00019349
752.23487549,0.00035115
754.16368286,0.00044447
756.09249023,0.00056533
758.02129761,0.00039937
759.95010498,0.00033305
761.87891235,0.00014249
763.80771973,0.00050807
765.73652710,0.00064511
767.66533447,0.00056525
769.59414185,0.00068697
771.52294922,0.00061568
773.45175659,0.00065013
775.38056396,0.00063835
777.30937134,0.00076146
779.23817871,0.00059873
781.16698608,0.00062683
783.09579346,0.00096384
785.02460083,0.00095352
786.95340820,0.00075005
788.88221558,0.00078271
790.81102295,0.00121588
792.73983032,0.00098328
794.66863770,0.00077373
796.59744507,0.00125101
798.52625244,0.00174101
800.45505981,0.00183907
802.38386719,0.00154613
804.31267456,0.00134374
806.24148193,0.00082763
808.17028931,0.00067188
810.09909668,0.00103845
812.02790405,0.00090408
813.95671143,0.00087636
815.88551880,0.00090140
817.81432617,0.00052949
819.74313354,0.00061308
821.67194092,0.00082675
823.60074829,0.00090152
825.52955566,0.00127528
827.45836304,0.00120334
829.38717041,0.00130499
831.31597778,0.00191486
833.24478516,0.00241743
835.17359253,0.00262604
837.10239990,0.00238514
839.03120728,0.00261446
840.96001465,0.00280080
842.88882202,0.00241195
844.81762939,0.00218526
846.74643677,0.00194128
848.67524414,0.00175510
850.60405151,0.00191671
852.53285889,0.00181031
854.46166626,0.00133185
856.39047363,0.00117294
858.31928101,0.00111906
860.24808838,0.00111022
862.17689575,0.00086980
864.10570313,0.00079479
866.03451050,0.00098121
867.96331787,0.00050980
869.89212524,0.00039506
871.82093262,0.00060315
873.74973999,0.00075791
875.67854736,0.00072623
877.60735474,0.00051032
879.53616211,0.00039595
881.46496948,0.00021578
883.39377686,0.00053194
885.32258423,0.00067067
887.25139160,0.00082013
889.18019897,0.00080059
891.10900635,0.00033648
893.03781372,0.00037465
894.96662109,0.00037925
896.89542847,0.00045840
898.82423584,0.00026288
900.75304321,0.00048641
902.68185059,0.00085585
904.61065796,0.00054580
906.53946533,0.00081756
908.46827271,0.00067217
910.39708008,0.00066193
912.32588745,0.00105151
914.25469482,0.00111596
916.18350220,0.00138714
918.11230957,0.00159475
920.04111694,0.00203655
921.96992432,0.00197966
923.89873169,0.00196715
925.82753906,0.00253552
927.75634644,0.00254244
929.68515381,0.00252741
931.61396118,0.00297044
933.54276855,0.00326002
935.47157593,0.00310235
937.40038330,0.00340519
939.32919067,0.00390342
941.25799805,0.00393244
943.18680542,0.00404509
945.11561279,0.00396348
947.04442017,0.00383397
948.97322754,0.00396332
950.90203491,0.00373648
952.83084229,0.00355664
954.75964966,0.00374648
956.68845703,0.00369885
958.61726440,0.00349661
960.54607178,0.00340284
962.47487915,0.00367989
964.40368652,0.00377140
966.33249390,0.00380377
968.26130127,0.00415920
970.19010864,0.00427199
972.11891602,0.00478508
974.04772339,0.00478438
975.97653076,0.00479294
977.90533813,0.00569243
979.83414551,0.00612488
981.76295288,0.00661046
983.69176025,0.00715318
985.62056763,0.00811935
987.54937500,0.00892857
989.47818237,0.00964625
991.40698975,0.01119803
993.33579712,0.01209257
995.26460449,0.01312484
997.19341187,0.01435396
999.12221924,0.01546505
1001.05102661,0.01686754
1002.97983398,0.01790017
1004.90864136,0.01882686
1006.83744873,0.01990935
1008.76625610,0.02146754
1010.69506348,0.02272368
1012.62387085,0.02379008
1014.55267822,0.02510339
1016.48148560,0.02629220
1018.41029297,0.02765667
1020.33910034,0.02879738
1022.26790771,0.03005210
1024.19671509,0.03128990
1026.12552246,0.03234940
1028.05432983,0.03356951
1029.98313721,0.03457709
1031.91194458,0.03546524
1033.84075195,0.03627872
1035.76955933,0.03686227
1037.69836670,0.03705020
1039.62717407,0.03715862
1041.55598145,0.03714741
1043.48478882,0.03689121
1045.41359619,0.03643002
1047.34240356,0.03590052
1049.27121094,0.03539079
1051.20001831,0.03457835
1053.12882568,0.03423914
1055.05763306,0.03339466
1056.98644043,0.03222953
1058.91524780,0.03198081
1060.84405518,0.03084782
1062.77286255,0.02988070
1064.70166992,0.02935592
1066.63047729,0.02796397
1068.55928467,0.02699356
1070.48809204,0.02593466
1072.41689941,0.02433870
1074.34570679,0.02302580
1076.27451416,0.02223284
1078.20332153,0.02147596
1080.13212891,0.02027557
1082.06093628,0.01919316
1083.98974365,0.01824264
1085.91855103,0.01760711
1087.84735840,0.01693639
1089.77616577,0.01585302
1091.70497314,0.01518592
1093.63378052,0.01456847
1095.56258789,0.01403127
1097.49139526,0.01367004
1099.42020264,0.01316558
1101.34901001,0.01282642
1103.27781738,0.01249500
1105.20662476,0.01229873
1107.13543213,0.01221309
1109.06423950,0.01204382
1110.99304687,0.01161576
1112.92185425,0.01146744
1114.85066162,0.01181231
1116.77946899,0.01154851
1118.70827637,0.01127843
1120.63708374,0.01140297
1122.56589111,0.01145857
1124.49469849,0.01163398
1126.42350586,0.01185224
1128.35231323,0.01214927
1130.28112061,0.01254165
1132.20992798,0.01280358
1134.13873535,0.01304160
1136.06754272,0.01368548
1137.99635010,0.01426446
1139.92515747,0.01507742
1141.85396484,0.01627386
1143.78277222,0.01703721
1145.71157959,0.01828673
1147.64038696,0.01965396
1149.56919434,0.02045483
1151.49800171,0.02165134
1153.42680908,0.02281995
1155.35561646,0.02356647
1157.28442383,0.02460488
1159.21323120,0.02567500
1161.14203857,0.02662219
1163.07084595,0.02756769
1164.99965332,0.02831503
1166.92846069,0.02961281
1168.85726807,0.03076483
1170.78607544,0.03171469
1172.71488281,0.03314328
1174.64369019,0.03428390
1176.57249756,0.03560553
1178.50130493,0.03691246
1180.43011230,0.03825992
1182.35891968,0.03987866
1184.28772705,0.04165016
1186.21653442,0.04357570
1188.14534180,0.04542965
1190.07414917,0.04768758
1192.00295654,0.04965476
1193.93176392,0.05200208
1195.86057129,0.05459830
1197.78937866,0.05698113
1199.71818604,0.05972867
1201.64699341,0.06189317
1203.57580078,0.06451641
1205.50460815,0.06708473
1207.43341553,0.06933004
1209.36222290,0.07183594
1211.29103027,0.07384485
1213.21983765,0.07613052
1215.14864502,0.07794897
1217.07745239,0.07952448
1219.00625977,0.08109385
1220.93506714,0.08206283
1222.86387451,0.08305340
1224.79268188,0.08373067
1226.72148926,0.08447056
1228.65029663,0.08516634
1230.57910400,0.08531789
1232.50791138,0.08540465
1234.43671875,0.08549431
1236.36552612,0.08546193
1238.29433350,0.08539879
1240.22314087,0.08517156
1242.15194824,0.08472745
1244.08075562,0.08430129
1246.00956299,0.08393015
1247.93837036,0.08356806
1249.86717773,0.08283316
1251.79598511,0.08223680
1253.72479248,0.08163488
1255.65359985,0.08045029
1257.58240723,0.07930715
1259.51121460,0.07797657
1261.44002197,0.07701328
1263.36882935,0.07620912
1265.29763672,0.07494532
1267.22644409,0.07408718
1269.15525146,0.07310843
1271.08405884,0.07187560
1273.01286621,0.07067551
1274.94167358,0.06937450
1276.87048096,0.06820691
1278.79928833,0.06678859
1280.72809570,0.06528135
1282.65690308,0.06421681
1284.58571045,0.06311686
1286.51451782,0.06164301
1288.44332520,0.06060702
1290.37213257,0.06008077
1292.30093994,0.05927596
1294.22974731,0.05874364
1296.15855469,0.05836822
1298.08736206,0.05810244
1300.01616943,0.05857874
1301.94497681,0.05879411
1303.87378418,0.05921778
1305.80259155,0.05982351
1307.73139893,0.06043138
1309.66020630,0.06190598
1311.58901367,0.06248041
1313.51782104,0.06346521
1315.44662842,0.06566232
1317.37543579,0.06672315
1319.30424316,0.06829012
1321.23305054,0.07081825
1323.16185791,0.07277663
1325.09066528,0.07478979
1327.01947266,0.07707396
1328.94828003,0.07899630
1330.87708740,0.08092218
1332.80589478,0.08284847
1334.73470215,0.08442105
1336.66350952,0.08531446
1338.59231689,0.08443150
1340.52112427,0.08540842
1342.44993164,0.08900166
1344.37873901,0.08967534
1346.30754639,0.08943614
1348.23635376,0.08939537
1350.16516113,0.08858639
1352.09396851,0.08859541
1354.02277588,0.08743165
1355.95158325,0.08663548
1357.88039062,0.08624775
1359.80919800,0.08471953
1361.73800537,0.08125297
1363.66681274,0.07982574
1365.59562012,0.08372246
1367.52442749,0.08197426
1369.45323486,0.08084577
1371.38204224,0.08253056
1373.31084961,0.07788497
1375.23965698,0.07843797
1377.16846436,0.08062756
1379.09727173,0.08003601
1381.02607910,0.08016276
1382.95488647,0.07989907
1384.88369385,0.08009234
1386.81250122,0.07620579
1388.74130859,0.07727209
1390.67011597,0.08398976
1392.59892334,0.08140938
1394.52773071,0.07624817
1396.45653809,0.08014853
1398.38534546,0.07993235
1400.31415283,0.07959430
1402.24296021,0.08597745
1404.17176758,0.08102491
1406.10057495,0.08167935
1408.02938232,0.08514558
1409.95818970,0.08177733
1411.88699707,0.08360930
1413.81580444,0.08063699
1415.74461182,0.08183879
1417.67341919,0.07354748
1419.60222656,0.06581452
1421.53103394,0.07630332
1423.45984131,0.07370612
1425.38864868,0.07162096
1427.31745605,0.07256977
1429.24626343,0.06678689
1431.17507080,0.06489896
1433.10387817,0.06598014
1435.03268555,0.06017098
1436.96149292,0.05070309
1438.89030029,0.05798611
1440.81910767,0.05922106
1442.74791504,0.05487102
1444.67672241,0.05770607
1446.60552979,0.05251461
1448.53433716,0.05351312
1450.46314453,0.05519782
1452.39195190,0.05648702
1454.32075928,0.05830155
1456.24956665,0.04763093
1458.17837402,0.05027799
1460.10718140,0.06697303
1462.03598877,0.07153343
1463.96479614,0.07076436
1465.89360352,0.07369422
1467.82241089,0.08461392
1469.75121826,0.09054833
1471.68002563,0.08042793
1473.60883301,0.08486654
1475.53764038,0.09685448
1477.46644775,0.10448985
1479.39525513,0.11489082
1481.32406250,0.11643659
1483.25286987,0.12400600
1485.18167725,0.12797070
1487.11048462,0.12573481
1489.03929199,0.12496886
1490.96809937,0.12600592
1492.89690674,0.14697389
1494.82571411,0.14276110
1496.75452148,0.12861477
1498.68332886,0.14601986
1500.61213623,0.15036947
1502.54094360,0.16187809
1504.46975098,0.15193735
1506.39855835,0.10999187
1508.32736572,0.13570195
1510.25617310,0.15898624
1512.18498047,0.15421230
1514.11378784,0.16718799
1516.04259521,0.15024692
1517.97140259,0.15729643
1519.90020996,0.15116066
1521.82901733,0.13083936
1523.75782471,0.16103736
1525.68663208,0.15763307
1527.61543945,0.15745765
1529.54424683,0.17435274
1531.47305420,0.16715640
1533.40186157,0.15284149
1535.33066895,0.16270639
1537.25947632,0.17381971
1539.18828369,0.12296879
1541.11709106,0.12985589
1543.04589844,0.15581638
1544.97470581,0.14938343
1546.90351318,0.17750278
1548.83232056,0.16498607
1550.76112793,0.17076141
1552.68993530,0.16919638
1554.61874268,0.15380131
1556.54755005,0.16428089
1558.47635742,0.11442235
1560.40516479,0.12557581
1562.33397217,0.17873091
1564.26277954,0.16827948
1566.19158691,0.17367534
1568.12039429,0.17127511
1570.04920166,0.15169279
1571.97800903,0.17590511
1573.90681641,0.17717057
1575.83562378,0.13979985
1577.76443115,0.15955558
1579.69323853,0.18023592
1581.62204590,0.17191689
1583.55085327,0.17637759
1585.47966064,0.17362727
1587.40846802,0.17496884
1589.33727539,0.17335911
1591.26608276,0.17351696
1593.19489014,0.17355080
1595.12369751,0.17123941
1597.05250488,0.17386760
1598.98131226,0.17261916
1600.91011963,0.17346561
1602.83892700,0.17045952
1604.76773437,0.17337503
1606.69654175,0.17067784
1608.62534912,0.17044953
1610.55415649,0.17012691
1612.48296387,0.17146477
1614.41177124,0.17314221
1616.34057861,0.14078310
1618.26938599,0.15428126
1620.19819336,0.17920619
1622.12700073,0.15814389
1624.05580811,0.15934156
1625.98461548,0.16738576
1627.91342285,0.16646519
1629.84223022,0.16543740
1631.77103760,0.17698762
1633.69984497,0.16213186
1635.62865234,0.13350034
1637.55745972,0.15654214
1639.48626709,0.17209457
1641.41507446,0.16804838
1643.34388184,0.17234460
1645.27268921,0.15427740
1647.20149658,0.13560992
1649.13030396,0.17002283
1651.05911133,0.15942687
1652.98791870,0.10140957
1654.91672607,0.14071931
1656.84553345,0.17623593
1658.77434082,0.16833419
1660.70314819,0.17302331
1662.63195557,0.15672399
1664.56076294,0.16613004
1666.48957031,0.17798059
1668.41837769,0.15461454
1670.34718506,0.15093783
1672.27599243,0.17121330
1674.20479980,0.15721065
1676.13360718,0.15131757
1678.06241455,0.17455184
1679.99122192,0.16790274
1681.92002930,0.16572449
1683.84883667,0.13334306
1685.77764404,0.13352621
1687.70645142,0.18332401
1689.63525879,0.15797400
1691.56406616,0.17538521
1693.49287354,0.17711020
1695.42168091,0.12865552
1697.35048828,0.16019711
1699.27929565,0.13939171
1701.20810303,0.12632707
1703.13691040,0.17269611
1705.06571777,0.15752685
1706.99452515,0.15948850
1708.92333252,0.17330849
1710.85213989,0.16644759
1712.78094727,0.16908136
1714.70975464,0.15631264
1716.63856201,0.14012755
1718.56736938,0.13800448
1720.49617676,0.16456755
1722.42498413,0.17037535
1724.35379150,0.15802678
1726.28259888,0.17229843
1728.21140625,0.15831864
1730.14021362,0.16015124
1732.06902100,0.15523082
1733.99782837,0.11760594
1735.92663574,0.14801833
1737.85544312,0.16290480
1739.78425049,0.14489460
1741.71305786,0.15826182
1743.64186523,0.16012549
1745.57067261,0.16042069
1747.49947998,0.16140677
1749.42828735,0.15413119
1751.35709473,0.14746684
1753.28590210,0.16428970
1755.21470947,0.17137378
1757.14351685,0.15615067
1759.07232422,0.17229515
1761.00113159,0.16088073
1762.92993896,0.15607548
1764.85874634,0.17860845
1766.78755371,0.16007954
1768.71636108,0.16212481
1770.64516846,0.16023421
1772.57397583,0.14406732
1774.50278320,0.16146731
1776.43159058,0.17025563
1778.36039795,0.16781707
1780.28920532,0.16578512
1782.21801270,0.16705567
1784.14682007,0.16660678
1786.07562744,0.16350111
1788.00443481,0.17215286
1789.93324219,0.16725078
1791.86204956,0.15097445
1793.79085693,0.15806137
1795.71966431,0.16971079
1797.64847168,0.16721708
1799.57727905,0.16453242
1801.50608643,0.16155988
1803.43489380,0.16717952
1805.36370117,0.17083341
1807.29250854,0.16842426
1809.22131592,0.16890740
1811.15012329,0.16431084
1813.07893066,0.16959992
1815.00773804,0.17022038
1816.93654541,0.16832484
1818.86535278,0.16955125
1820.79416016,0.16892582
1822.72296753,0.17129688
1824.65177490,0.15975109
1826.58058228,0.16599712
1828.50938965,0.16581376
1830.43819702,0.15554965
1832.36700439,0.16966154
1834.29581177,0.16815245
1836.22461914,0.16818753
1838.15342651,0.16754594
1840.08223389,0.16863456
1842.01104126,0.16828287
1843.93984863,0.14900959
1845.86865601,0.15966441
1847.79746338,0.16812730
1849.72627075,0.16468900
1851.65507812,0.16958433
1853.58388550,0.16579852
1855.51269287,0.16770561
1857.44150024,0.16632783
1859.37030762,0.16543937
1861.29911499,0.16655335
1863.22792236,0.16456106
1865.15672974,0.16646454
1867.08553711,0.16033815
1869.01434448,0.15386239
1870.94315186,0.16026482
1872.87195923,0.16622204
1874.80076660,0.16348165
1876.72957397,0.16433331
1878.65838135,0.16371253
1880.58718872,0.16272144
1882.51599609,0.16421255
1884.44480347,0.16139045
1886.37361084,0.16375194
1888.30241821,0.15988758
1890.23122559,0.15680118
1892.16003296,0.16280274
1894.08884033,0.16021644
1896.01764771,0.15974924
1897.94645508,0.16142091
1899.87526245,0.16045842
1901.80406982,0.16089553
1903.73287720,0.15983401
1905.66168457,0.16053012
1907.59049194,0.15886015
1909.51929932,0.15796447
1911.44810669,0.15870315
1913.37691406,0.15881783
1915.30572144,0.16023222
1917.23452881,0.15303996
1919.16333618,0.15333715
1921.09214355,0.15912339
1923.02095093,0.15396230
1924.94975830,0.15717942
1926.87856567,0.15885478
1928.80737305,0.15681812
1930.73618042,0.15861577
1932.66498779,0.15632872
1934.59379517,0.15792066
1936.52260254,0.15669852
1938.45140991,0.15708220
1940.38021729,0.15711537
1942.30902466,0.15187620
1944.23783203,0.15475547
1946.16663940,0.15627742
1948.09544678,0.15590504
1950.02425415,0.15650336
1951.95306152,0.15591955
1953.88186890,0.15605606
1955.81067627,0.15523690
1957.73948364,0.15590057
1959.66829102,0.15558624
1961.59709839,0.15520367
1963.52590576,0.15566638
1965.45471313,0.15448081
1967.38352051,0.15289855
1969.31232788,0.15418161
1971.24113525,0.15510190
1973.16994263,0.15391679
1975.09875000,0.15466824
1977.02755737,0.15388715
1978.95636475,0.15400425
1980.88517212,0.15386131
1982.81397949,0.15306512
1984.74278687,0.15369385
1986.67159424,0.15213031
1988.60040161,0.15263292
1990.52920898,0.15111032
1992.45801636,0.14927864
1994.38682373,0.15178931
1996.31563110,0.15191472
1998.24443848,0.15106699
2000.17324585,0.15100214
2002.10205322,0.15074602
2004.03086060,0.15040123
2005.95966797,0.14994481
2007.88847534,0.14954591
2009.81728271,0.14928296
2011.74609009,0.14892069
2013.67489746,0.14890774
2015.60370483,0.14800957
2017.53251221,0.14652026
2019.46131958,0.14743590
2021.39012695,0.14727129
2023.31893433,0.14665869
2025.24774170,0.14675355
2027.17654907,0.14624974
2029.10535645,0.14622200
2031.03416382,0.14549416
2032.96297119,0.14548796
2034.89177856,0.14504039
2036.82058594,0.14445993
2038.74939331,0.14441834
2040.67820068,0.14345419
2042.60700806,0.14341222
2044.53581543,0.14333528
2046.46462280,0.14293651
2048.39343018,0.14270253
2050.32223755,0.14246270
2052.25104492,0.14219953
2054.17985229,0.14169970
2056.10865967,0.14137059
2058.03746704,0.14105383
2059.96627441,0.14073732
2061.89508179,0.14048362
2063.82388916,0.13995111
2065.75269653,0.13933948
2067.68150391,0.13958630
2069.61031128,0.13941285
2071.53911865,0.13915816
2073.46792603,0.13896157
2075.39673340,0.13837868
2077.32554077,0.13852978
2079.25434814,0.13799906
2081.18315552,0.13770148
2083.11196289,0.13749135
2085.04077026,0.13709819
2086.96957764,0.13701469
2088.89838501,0.13630641
2090.82719238,0.13619347
2092.75599976,0.13615555
2094.68480713,0.13593599
2096.61361450,0.13557944
2098.54242187,0.13541913
2100.47122925,0.13516879
2102.40003662,0.13464075
2104.32884399,0.13459530
2106.25765137,0.13421312
2108.18645874,0.13418385
2110.11526611,0.13395487
2112.04407349,0.13362810
2113.97288086,0.13332716
2115.90168823,0.13304371
2117.83049561,0.13308720
2119.75930298,0.13262609
2121.68811035,0.13261241
2123.61691772,0.13233507
2125.54572510,0.13208048
2127.47453247,0.13188115
2129.40333984,0.13167988
2131.33214722,0.13170749
2133.26095459,0.13124552
2135.18976196,0.13115799
2137.11856934,0.13081828
2139.04737671,0.13080415
2140.97618408,0.13060269
2142.90499146,0.13027969
2144.83379883,0.13028654
2146.76260620,0.12990008
2148.69141357,0.12995309
2150.62022095,0.12957376
2152.54902832,0.12957370
2154.47783569,0.12943906
2156.40664307,0.12899008
2158.33545044,0.12889871
2160.26425781,0.12862256
2162.19306519,0.12875327
2164.12187256,0.12845773
2166.05067993,0.12834206
2167.97948730,0.12804298
2169.90829468,0.12780452
2171.83710205,0.12784947
2173.76590942,0.12747246
2175.69471680,0.12745523
2177.62352417,0.12718588
2179.55233154,0.12707549
2181.48113892,0.12684335
2183.40994629,0.12670600
2185.33875366,0.12656784
2187.26756104,0.12629803
2189.19636841,0.12628362
2191.12517578,0.12586918
2193.05398315,0.12600386
2194.98279053,0.12581654
2196.91159790,0.12555724
2198.84040527,0.12548868
2200.76921265,0.12524293
2202.69802002,0.12528783
2204.62682739,0.12497234
2206.55563477,0.12482469
2208.48444214,0.12445033
2210.41324951,0.12433886
2212.34205688,0.12432033
2214.27086426,0.12401313
2216.19967163,0.12400328
2218.12847900,0.12365806
2220.05728638,0.12354222
2221.98609375,0.12339551
2223.91490112,0.12315526
2225.84370850,0.12305909
2227.77251587,0.12294353
2229.70132324,0.12274779
2231.63013062,0.12237186
2233.55893799,0.12218669
2235.48774536,0.12199910
2237.41655273,0.12179700
2239.34536011,0.12156294
2241.27416748,0.12135728
2243.20297485,0.12110893
2245.13178223,0.12094030
2247.06058960,0.12067159
2248.98939697,0.12047896
2250.91820435,0.12039319
2252.84701172,0.11997984
2254.77581909,0.12000607
2256.70462646,0.11975924
2258.63343384,0.11956528
2260.56224121,0.11950275
2262.49104858,0.11913511
2264.41985596,0.11911064
2266.34866333,0.11880853
2268.27747070,0.11868702
2270.20627808,0.11849356
2272.13508545,0.11834359
2274.06389282,0.11828031
2275.99270020,0.11798505
2277.92150757,0.11795147
2279.85031494,0.11766621
2281.77912231,0.11757411
2283.70792969,0.11750626
2285.63673706,0.11726223
2287.56554443,0.11698693
2289.49435181,0.11666739
2291.42315918,0.11637193
2293.35196655,0.11598726
2295.28077393,0.11564974
2297.20958130,0.11522384
2299.13838867,0.11488914
2301.06719604,0.11428608
2302.99600342,0.11375105
2304.92481079,0.11318670
2306.85361816,0.11244750
2308.78242554,0.11161573
2310.71123291,0.11048423
2312.64004028,0.10950235
2314.56884766,0.10823624
2316.49765503,0.10718364
2318.42646240,0.10561580
2320.35526978,0.10390101
2322.28407715,0.10252187
2324.21288452,0.10084349
2326.14169189,0.09996466
2328.07049927,0.09868917
2329.99930664,0.09738932
2331.92811401,0.09663267
2333.85692139,0.09611824
2335.78572876,0.09566071
2337.71453613,0.09536563
2339.64334351,0.09554868
2341.57215088,0.09571952
2343.50095825,0.09726804
2345.42976562,0.09910762
2347.35857300,0.10347721
2349.28738037,0.10711883
2351.21618774,0.10289344
2353.14499512,0.09737636
2355.07380249,0.09376733
2357.00260986,0.09083409
2358.93141724,0.08899334
2360.86022461,0.08796643
2362.78903198,0.08797397
2364.71783936,0.08830241
2366.64664673,0.08972810
2368.57545410,0.09148867
2370.50426147,0.09376045
2372.43306885,0.09658246
2374.36187622,0.09935816
2376.29068359,0.10226434
2378.21949097,0.10456051
2380.14829834,0.10635975
2382.07710571,0.10745282
2384.00591309,0.10835171
2385.93472046,0.10862983
2387.86352783,0.10862903
2389.79233521,0.10861233
2391.72114258,0.10832251
2393.64994995,0.10842998
2395.57875732,0.10805197
2397.50756470,0.10799275
2399.43637207,0.10791897
2401.36517944,0.10761656
2403.29398682,0.10760969
2405.22279419,0.10734230
2407.15160156,0.10714951
2409.08040894,0.10689655
2411.00921631,0.10697493
2412.93802368,0.10678451
2414.86683105,0.10646840
2416.79563843,0.10636584
2418.72444580,0.10618328
2420.65325317,0.10621042
2422.58206055,0.10598555
2424.51086792,0.10579628
2426.43967529,0.10558927
2428.36848267,0.10554840
2430.29729004,0.10540457
2432.22609741,0.10507748
2434.15490479,0.10500865
2436.08371216,0.10484025
2438.01251953,0.10467283
2439.94132690,0.10444740
2441.87013428,0.10437857
2443.79894165,0.10414001
2445.72774902,0.10402093
2447.65655640,0.10398906
2449.58536377,0.10371676
2451.51417114,0.10361730
2453.44297852,0.10341436
2455.37178589,0.10345740
2457.30059326,0.10325037
2459.22940063,0.10298378
2461.15820801,0.10291550
2463.08701538,0.10270457
2465.01582275,0.10258554
2466.94463013,0.10234660
2468.87343750,0.10227679
2470.80224487,0.10205373
2472.73105225,0.10187358
2474.65985962,0.10176618
2476.58866699,0.10160244
2478.51747437,0.10156320
2480.44628174,0.10139489
2482.37508911,0.10125089
2484.30389648,0.10106100
2486.23270386,0.10101442
2488.16151123,0.10072218
2490.09031860,0.10060987
2492.01912598,0.10054255
2493.94793335,0.10023667
2495.87674072,0.10024560
2497.80554810,0.09988739
2499.73435547,0.09986007
2501.66316284,0.09983040
2503.59197021,0.09962733
2505.52077759,0.09965800
2507.44958496,0.09937022
2509.37839233,0.09925254
2511.30719971,0.09905496
2513.23600708,0.09882065
2515.16481445,0.09865934
2517.09362183,0.09860666
2519.02242920,0.09844652
2520.95123657,0.09817086
2522.88004395,0.09818634
2524.80885132,0.09805703
2526.73765869,0.09797142
2528.66646606,0.09782640
2530.59527344,0.09766065
2532.52408081,0.09741870
2534.45288818,0.09727719
2536.38169556,0.09725361
2538.31050293,0.09698454
2540.23931030,0.09700452
2542.16811768,0.09670752
2544.09692505,0.09636553
2546.02573242,0.09643891
2547.95453979,0.09638170
2549.88334717,0.09616902
2551.81215454,0.09598680
2553.74096191,0.09596458
2555.66976929,0.09574708
2557.59857666,0.09554516
2559.52738403,0.09540796
2561.45619141,0.09534050
2563.38499878,0.09518934
2565.31380615,0.09495531
2567.24261353,0.09489711
2569.17142090,0.09471294
2571.10022827,0.09468143
2573.02903564,0.09456102
2574.95784302,0.09436484
2576.88665039,0.09420660
2578.81545776,0.09404767
2580.74426514,0.09393507
2582.67307251,0.09366541
2584.60187988,0.09363192
2586.53068726,0.09344196
2588.45949463,0.09322728
2590.38830200,0.09326226
2592.31710937,0.09312056
2594.24591675,0.09283610
2596.17472412,0.09267511
2598.10353149,0.09278688
2600.03233887,0.09259579
2601.96114624,0.09230796
2603.88995361,0.09220935
2605.81876099,0.09208530
2607.74756836,0.09201822
2609.67637573,0.09184369
2611.60518311,0.09163412
2613.53399048,0.09156938
2615.46279785,0.09146342
2617.39160522,0.09123795
2619.32041260,0.09106551
2621.24921997,0.09087531
2623.17802734,0.09087222
2625.10683472,0.09078787
2627.03564209,0.09055399
2628.96444946,0.09049970
2630.89325684,0.09024189
2632.82206421,0.09015229
2634.75087158,0.09013170
2636.67967895,0.08986805
2638.60848633,0.08968000
2640.53729370,0.08969936
2642.46610107,0.08968196
2644.39490845,0.08936516
2646.32371582,0.08916281
2648.25252319,0.08903006
2650.18133057,0.08900169
2652.11013794,0.08890986
2654.03894531,0.08863199
2655.96775269,0.08847937
2657.89656006,0.08834458
2659.82536743,0.08823729
2661.75417480,0.08807557
2663.68298218,0.08793796
2665.61178955,0.08767805
2667.54059692,0.08755760
2669.46940430,0.08757333
2671.39821167,0.08743452
2673.32701904,0.08732501
2675.25582642,0.08706665
2677.18463379,0.08702339
2679.11344116,0.08691527
2681.04224854,0.08669706
2682.97105591,0.08656637
2684.89986328,0.08639562
2686.82867065,0.08632927
2688.75747803,0.08603956
2690.68628540,0.08597044
2692.61509277,0.08596789
2694.54390015,0.08581175
2696.47270752,0.08573364
2698.40151489,0.08550514
2700.33032227,0.08531324
2702.25912964,0.08528206
2704.18793701,0.08520526
2706.11674438,0.08486718
2708.04555176,0.08473857
2709.97435913,0.08471270
2711.90316650,0.08452637
2713.83197388,0.08429815
2715.76078125,0.08414923
2717.68958862,0.08414475
2719.61839600,0.08393376
2721.54720337,0.08379541
2723.47601074,0.08365807
2725.40481812,0.08352317
2727.33362549,0.08331843
2729.26243286,0.08321527
2731.19124023,0.08317372
2733.12004761,0.08287323
2735.04885498,0.08295019
2736.97766235,0.08264565
2738.90646973,0.08244419
2740.83527710,0.08254692
2742.76408447,0.08233055
2744.69289185,0.08227257
2746.62169922,0.08192168
2748.55050659,0.08182169
2750.47931396,0.08169438
2752.40812134,0.08154280
2754.33692871,0.08153316
2756.26573608,0.08125232
2758.19454346,0.08117659
2760.12335083,0.08089966
2762.05215820,0.08080913
2763.98096558,0.08068563
2765.90977295,0.08047470
2767.83858032,0.08041793
2769.76738770,0.08021453
2771.69619507,0.08016984
2773.62500244,0.07994343
2775.55380981,0.07984681
2777.48261719,0.07969939
2779.41142456,0.07949064
2781.34023193,0.07939327
2783.26903931,0.07920687
2785.19784668,0.07909910
2787.12665405,0.07878071
2789.05546143,0.07874446
2790.98426880,0.07865016
2792.91307617,0.07842472
2794.84188354,0.07840183
2796.77069092,0.07810996
2798.69949829,0.07797509
2800.62830566,0.07786703
2802.55711304,0.07761933
2804.48592041,0.07751133
2806.41472778,0.07736945
2808.34353516,0.07720976
2810.27234253,0.07706510
2812.20114990,0.07681982
2814.12995728,0.07673466
2816.05876465,0.07663181
2817.98757202,0.07638957
2819.91637939,0.07626009
2821.84518677,0.07603449
2823.77399414,0.07593079
2825.70280151,0.07577413
2827.63160889,0.07567123
2829.56041626,0.07549511
2831.48922363,0.07509561
2833.41803101,0.07522380
2835.34683838,0.07512138
2837.27564575,0.07467601
2839.20445312,0.07449443
2841.13326050,0.07433562
2843.06206787,0.07397781
2844.99087524,0.07369836
2846.91968262,0.07334746
2848.84848999,0.07272312
2850.77729736,0.07268685
2852.70610474,0.07256673
2854.63491211,0.07242585
2856.56371948,0.07243340
2858.49252686,0.07215486
2860.42133423,0.07233856
2862.35014160,0.07214834
2864.27894897,0.07185692
2866.20775635,0.07188035
2868.13656372,0.07168627
2870.06537109,0.07157474
2871.99417847,0.07142302
2873.92298584,0.07142217
2875.85179321,0.07136069
2877.78060059,0.07115991
2879.70940796,0.07107191
2881.63821533,0.07093640
2883.56702270,0.07073116
2885.49583008,0.07065846
2887.42463745,0.07056677
2889.35344482,0.07026675
2891.28225220,0.07018137
2893.21105957,0.07002465
2895.13986694,0.06978492
2897.06867432,0.06969012
2898.99748169,0.06950805
2900.92628906,0.06930485
2902.85509644,0.06906097
2904.78390381,0.06879081
2906.71271118,0.06859549
2908.64151855,0.06845434
2910.57032593,0.06814275
2912.49913330,0.06779443
2914.42794067,0.06735224
2916.35674805,0.06699094
2918.28555542,0.06689693
2920.21436279,0.06668404
2922.14317017,0.06663863
2924.07197754,0.06659459
2926.00078491,0.06647632
2927.92959229,0.06643232
2929.85839966,0.06638570
2931.78720703,0.06638555
2933.71601440,0.06633258
2935.64482178,0.06634216
2937.57362915,0.06626076
2939.50243652,0.06619661
2941.43124390,0.06612106
2943.36005127,0.06604920
2945.28885864,0.06607281
2947.21766602,0.06596144
2949.14647339,0.06580101
2951.07528076,0.06568062
2953.00408813,0.06565142
2954.93289551,0.06543544
2956.86170288,0.06525038
2958.79051025,0.06498279
2960.71931763,0.06472489
2962.64812500,0.06478274
2964.57693237,0.06455097
2966.50573975,0.06440107
2968.43454712,0.06443624
2970.36335449,0.06461023
2972.29216187,0.06461247
2974.22096924,0.06445798
2976.14977661,0.06458721
2978.07858398,0.06444171
2980.00739136,0.06441893
2981.93619873,0.06446604
2983.86500610,0.06445102
2985.79381348,0.06437884
2987.72262085,0.06419884
2989.65142822,0.06422660
2991.58023560,0.06407317
2993.50904297,0.06395648
2995.43785034,0.06386290
2997.36665771,0.06377980
2999.29546509,0.06362301
3001.22427246,0.06346998
3003.15307983,0.06340081
3005.08188721,0.06317453
3007.01069458,0.06324320
3008.93950195,0.06306034
3010.86830933,0.06281763
3012.79711670,0.06273344
3014.72592407,0.06256403
3016.65473145,0.06252442
3018.58353882,0.06233662
3020.51234619,0.06226715
3022.44115356,0.06205495
3024.36996094,0.06185845
3026.29876831,0.06181220
3028.22757568,0.06166194
3030.15638306,0.06146178
3032.08519043,0.06115479
3034.01399780,0.06112408
3035.94280518,0.06098135
3037.87161255,0.06084531
3039.80041992,0.06086215
3041.72922729,0.06070753
3043.65803467,0.06053869
3045.58684204,0.06040182
3047.51564941,0.06027703
3049.44445679,0.06004163
3051.37326416,0.06007230
3053.30207153,0.06000731
3055.23087891,0.05968499
3057.15968628,0.05954370
3059.08849365,0.05949338
3061.01730103,0.05946894
3062.94610840,0.05923125
3064.87491577,0.05901573
3066.80372314,0.05884321
3068.73253052,0.05880243
3070.66133789,0.05884228
3072.59014526,0.05872427
3074.51895264,0.05864903
3076.44776001,0.05840010
3078.37656738,0.05811350
3080.30537476,0.05799219
3082.23418213,0.05804044
3084.16298950,0.05793459
3086.09179687,0.05782454
3088.02060425,0.05777194
3089.94941162,0.05750503
3091.87821899,0.05761389
3093.80702637,0.05743409
3095.73583374,0.05703294
3097.66464111,0.05708934
3099.59344849,0.05695208
3101.52225586,0.05674574
3103.45106323,0.05662199
3105.37987061,0.05650501
3107.30867798,0.05638179
3109.23748535,0.05624310
3111.16629272,0.05613201
3113.09510010,0.05593758
3115.02390747,0.05571322
3116.95271484,0.05547994
3118.88152222,0.05533762
3120.81032959,0.05527779
3122.73913696,0.05517219
3124.66794434,0.05508057
3126.59675171,0.05493607
3128.52555908,0.05475865
3130.45436645,0.05475625
3132.38317383,0.05461878
3134.31198120,0.05435468
3136.24078857,0.05423949
3138.16959595,0.05409651
3140.09840332,0.05394595
3142.02721069,0.05378190
3143.95601807,0.05362512
3145.88482544,0.05340465
3147.81363281,0.05331852
3149.74244019,0.05323961
3151.67124756,0.05288407
3153.60005493,0.05271554
3155.52886230,0.05260240
3157.45766968,0.05256701
3159.38647705,0.05248372
3161.31528442,0.05223083
3163.24409180,0.05214762
3165.17289917,0.05201939
3167.10170654,0.05177584
3169.03051392,0.05160708
3170.95932129,0.05159447
3172.88812866,0.05136365
3174.81693604,0.05119341
3176.74574341,0.05109695
3178.67455078,0.05087031
3180.60335815,0.05084329
3182.53216553,0.05070381
3184.46097290,0.05061226
3186.38978027,0.05031718
3188.31858765,0.05013597
3190.24739502,0.05015056
3192.17620239,0.04988413
3194.10500977,0.04994240
3196.03381714,0.04972526
3197.96262451,0.04946111
3199.89143188,0.04948691
3201.82023926,0.04929669
3203.74904663,0.04915497
3205.67785400,0.04908372
3207.60666138,0.04898593
3209.53546875,0.04882626
3211.46427612,0.04874761
3213.39308350,0.04851189
3215.32189087,0.04847444
3217.25069824,0.04848192
3219.17950562,0.04823642
3221.10831299,0.04828425
3223.03712036,0.04814412
3224.96592773,0.04812223
3226.89473511,0.04807575
3228.82354248,0.04777759
3230.75234985,0.04777927
3232.68115723,0.04765730
3234.60996460,0.04746665
3236.53877197,0.04746756
3238.46757935,0.04744063
3240.39638672,0.04727688
3242.32519409,0.04727874
3244.25400146,0.04709836
3246.18280884,0.04686702
3248.11161621,0.04706953
3250.04042358,0.04702818
3251.96923096,0.04679877
3253.89803833,0.04667743
3255.82684570,0.04671672
3257.75565308,0.04670038
3259.68446045,0.04659275
3261.61326782,0.04655906
3263.54207520,0.04640781
3265.47088257,0.04641171
3267.39968994,0.04642142
3269.32849731,0.04623907
3271.25730469,0.04612755
3273.18611206,0.04612455
3275.11491943,0.04596248
3277.04372681,0.04591595
3278.97253418,0.04601200
3280.90134155,0.04591067
3282.83014893,0.04584040
3284.75895630,0.04569130
3286.68776367,0.04566935
3288.61657104,0.04562194
3290.54537842,0.04551920
3292.47418579,0.04541219
3294.40299316,0.04528961
3296.33180054,0.04534783
3298.26060791,0.04515315
3300.18941528,0.04525530
3302.11822266,0.04524183
3304.04703003,0.04502862
3305.97583740,0.04499145
3307.90464478,0.04478907
3309.83345215,0.04485993
3311.76225952,0.04477762
3313.69106689,0.04477849
3315.61987427,0.04465602
3317.54868164,0.04455162
3319.47748901,0.04469612
3321.40629639,0.04446655
3323.33510376,0.04447371
3325.26391113,0.04430668
3327.19271851,0.04415432
3329.12152588,0.04413539
3331.05033325,0.04410301
3332.97914062,0.04413150
3334.90794800,0.04393452
3336.83675537,0.04387008
3338.76556274,0.04373588
3340.69437012,0.04378980
3342.62317749,0.04367848
3344.55198486,0.04357982
3346.48079224,0.04363195
3348.40959961,0.04339268
3350.33840698,0.04332936
3352.26721436,0.04324630
3354.19602173,0.04322982
3356.12482910,0.04305214
3358.05363647,0.04304995
3359.98244385,0.04290003
3361.91125122,0.04265757
3363.84005859,0.04278800
3365.76886597,0.04251690
3367.69767334,0.04256248
3369.62648071,0.04239842
3371.55528809,0.04230589
3373.48409546,0.04244184
3375.41290283,0.04223303
3377.34171020,0.04228251
3379.27051758,0.04211822
3381.19932495,0.04208751
3383.12813232,0.04194427
3385.05693970,0.04178594
3386.98574707,0.04166064
3388.91455444,0.04163715
3390.84336182,0.04161781
3392.77216919,0.04116512
3394.70097656,0.04145454
3396.62978394,0.04137334
3398.55859131,0.04109285
3400.48739868,0.04109482
3402.41620605,0.04084943
3404.34501343,0.04096552
3406.27382080,0.04086701
3408.20262817,0.04077531
3410.13143555,0.04066591
3412.06024292,0.04062168
3413.98905029,0.04061572
3415.91785767,0.04061327
3417.84666504,0.04049082
3419.77547241,0.04003784
3421.70427979,0.04004946
3423.63308716,0.04010763
3425.56189453,0.04014631
3427.49070190,0.03997965
3429.41950928,0.03988528
3431.34831665,0.03976022
3433.27712402,0.03958949
3435.20593140,0.03973235
3437.13473877,0.03945931
3439.06354614,0.03961514
3440.99235352,0.03931113
3442.92116089,0.03906511
3444.84996826,0.03928705
3446.77877563,0.03870736
3448.70758301,0.03886317
3450.63639038,0.03914726
3452.56519775,0.03905467
3454.49400513,0.03901837
3456.42281250,0.03893336
3458.35161987,0.03888706
3460.28042725,0.03872468
3462.20923462,0.03864099
3464.13804199,0.03858571
3466.06684937,0.03856245
3467.99565674,0.03840418
3469.92446411,0.03851117
3471.85327148,0.03844420
3473.78207886,0.03825347
3475.71088623,0.03826641
3477.63969360,0.03825977
3479.56850098,0.03821838
3481.49730835,0.03774710
3483.42611572,0.03797562
3485.35492310,0.03814144
3487.28373047,0.03791404
3489.21253784,0.03796753
3491.14134521,0.03794947
3493.07015259,0.03807422
3494.99895996,0.03784150
3496.92776733,0.03781396
3498.85657471,0.03787590
3500.78538208,0.03778093
3502.71418945,0.03715433
3504.64299683,0.03713441
3506.57180420,0.03798902
3508.50061157,0.03737339
3510.42941895,0.03726543
3512.35822632,0.03760200
3514.28703369,0.03763586
3516.21584106,0.03772851
3518.14464844,0.03743343
3520.07345581,0.03771070
3522.00226318,0.03725284
3523.93107056,0.03674692
3525.85987793,0.03694668
3527.78868530,0.03682364
3529.71749268,0.03690303
3531.64630005,0.03737179
3533.57510742,0.03752215
3535.50391479,0.03701989
3537.43272217,0.03700969
3539.36152954,0.03737011
3541.29033691,0.03734602
3543.21914429,0.03705052
3545.14795166,0.03623900
3547.07675903,0.03572811
3549.00556641,0.03684142
3550.93437378,0.03702132
3552.86318115,0.03620306
3554.79198853,0.03695699
3556.72079590,0.03704228
3558.64960327,0.03687442
3560.57841064,0.03657592
3562.50721802,0.03646462
3564.43602539,0.03670309
3566.36483276,0.03413741
3568.29364014,0.03336980
3570.22244751,0.03606105
3572.15125488,0.03698582
3574.08006226,0.03657798
3576.00886963,0.03674323
3577.93767700,0.03658478
3579.86648437,0.03645884
3581.79529175,0.03642215
3583.72409912,0.03653798
3585.65290649,0.03577979
3587.58171387,0.03278397
3589.51052124,0.03383520
3591.43932861,0.03674389
3593.36813599,0.03567575
3595.29694336,0.03511197
3597.22575073,0.03581592
3599.15455811,0.03611139
3601.08336548,0.03557580
3603.01217285,0.03592544
3604.94098022,0.03667007
3606.86978760,0.03534898
3608.79859497,0.03320310
3610.72740234,0.03398179
3612.65620972,0.03467661
3614.58501709,0.03369473
3616.51382446,0.03624271
3618.44263184,0.03337346
3620.37143921,0.03223527
3622.30024658,0.03630274
3624.22905395,0.03539827
3626.15786133,0.03695993
3628.08666870,0.03119824
3630.01547607,0.02869933
3631.94428345,0.03586897
3633.87309082,0.03493728
3635.80189819,0.03559067
3637.73070557,0.03616710
3639.65951294,0.03570801
3641.58832031,0.03597207
3643.51712769,0.03555563
3645.44593506,0.03587314
3647.37474243,0.03217247
3649.30354980,0.02950515
3651.23235718,0.02990052
3653.16116455,0.03563566
3655.08997192,0.03501684
3657.01877930,0.03146838
3658.94758667,0.03615285
3660.87639404,0.03521724
3662.80520142,0.03583794
3664.73400879,0.03566158
3666.66281616,0.03538411
3668.59162354,0.03420465
3670.52043091,0.02788211
3672.44923828,0.03390738
3674.37804565,0.03207890
3676.30685303,0.02672922
3678.23566040,0.03371998
3680.16446777,0.03442836
3682.09327515,0.03441387
3684.02208252,0.03534172
3685.95088989,0.03479822
3687.87969727,0.03114868
3689.80850464,0.02875759
3691.73731201,0.03297236
3693.66611938,0.03376127
3695.59492676,0.03456245
3697.52373413,0.03444976
3699.45254150,0.03413270
3701.38134888,0.03327320
3703.31015625,0.03207078
3705.23896362,0.03528980
3707.16777100,0.03346913
3709.09657837,0.03269556
3711.02538574,0.03062636
3712.95419312,0.02882816
3714.88300049,0.03384759
3716.81180786,0.03315614
3718.74061523,0.03351529
3720.66942261,0.03283882
3722.59822998,0.03173542
3724.52703735,0.03272391
3726.45584473,0.03036591
3728.38465210,0.03306272
3730.31345947,0.03254723
3732.24226685,0.03004132
3734.17107422,0.02928801
3736.09988159,0.02775812
3738.02868896,0.02942394
3739.95749634,0.03180651
3741.88630371,0.03325527
3743.81511108,0.02571379
3745.74391846,0.02441910
3747.67272583,0.03163271
3749.60153320,0.02709638
3751.53034058,0.02516930
3753.45914795,0.02888839
3755.38795532,0.03100442
3757.31676270,0.03215052
3759.24557007,0.02980083
3761.17437744,0.03097745
3763.10318481,0.03270811
3765.03199219,0.03059857
3766.96079956,0.03128621
3768.88960693,0.03070011
3770.81841431,0.02938216
3772.74722168,0.03193129
3774.67602905,0.03195064
3776.60483643,0.03190406
3778.53364380,0.03098006
3780.46245117,0.02978164
3782.39125854,0.03181250
3784.32006592,0.03104504
3786.24887329,0.03077966
3788.17768066,0.03148684
3790.10648804,0.03130315
3792.03529541,0.03112727
3793.96410278,0.03155430
3795.89291016,0.02957557
3797.82171753,0.02939633
3799.75052490,0.03087582
3801.67933228,0.02450236
3803.60813965,0.02871858
3805.53694702,0.03087586
3807.46575439,0.02539599
3809.39456177,0.03083658
3811.32336914,0.03005973
3813.25217651,0.03116515
3815.18098389,0.02811895
3817.10979126,0.02480511
3819.03859863,0.03113997
3820.96740601,0.02510235
3822.89621338,0.02662106
3824.82502075,0.03086074
3826.75382812,0.02794235
3828.68263550,0.03013373
3830.61144287,0.02883449
3832.54025024,0.02801705
3834.46905762,0.02851681
3836.39786499,0.02700187
3838.32667236,0.02450556
3840.25547974,0.02648740
3842.18428711,0.02844515
3844.11309448,0.02718247
3846.04190186,0.02947954
3847.97070923,0.02892594
3849.89951660,0.02904358
3851.82832397,0.02612777
3853.75713135,0.01949498
3855.68593872,0.02333302
3857.61474609,0.02912671
3859.54355347,0.02823669
3861.47236084,0.02805177
3863.40116821,0.02734004
3865.32997559,0.02542868
3867.25878296,0.02844977
3869.18759033,0.02583539
3871.11639770,0.02402592
3873.04520508,0.02846763
3874.97401245,0.02603349
3876.90281982,0.02822708
3878.83162720,0.02865784
3880.76043457,0.02454034
3882.68924194,0.02824614
3884.61804932,0.02639986
3886.54685669,0.02435103
3888.47566406,0.02831587
3890.40447144,0.02674819
3892.33327881,0.02517208
3894.26208618,0.02754502
3896.19089355,0.02805583
3898.11970093,0.02665849
3900.04850830,0.02518884
3901.97731567,0.02493477
3903.90612305,0.02461366
3905.83493042,0.02508222
3907.76373779,0.02748439
3909.69254517,0.02737723
3911.62135254,0.02712153
3913.55015991,0.02753117
3915.47896728,0.02664782
3917.40777466,0.02595706
3919.33658203,0.02570255
3921.26538940,0.02677174
3923.19419678,0.02656363
3925.12300415,0.02598282
3927.05181152,0.02650665
3928.98061890,0.02665981
3930.90942627,0.02610149
3932.83823364,0.02528675
3934.76704102,0.02631054
3936.69584839,0.02656230
3938.62465576,0.02633517
3940.55346313,0.02641020
3942.48227051,0.02549219
3944.41107788,0.02581695
3946.33988525,0.02612105
3948.26869263,0.02553182
3950.19750000,0.02550175
3952.12630737,0.02593995
3954.05511475,0.02592682
3955.98392212,0.02579727
3957.91272949,0.02580725
3959.84153687,0.02572675
3961.77034424,0.02558103
3963.69915161,0.02542929
3965.62795898,0.02562403
3967.55676636,0.02538422
3969.48557373,0.02539815
3971.41438110,0.02545699
3973.34318848,0.02525578
3975.27199585,0.02520681
3977.20080322,0.02507913
3979.12961060,0.02528003
3981.05841797,0.02507732
3982.98722534,0.02507441
3984.91603271,0.02504931
3986.84484009,0.02504991
3988.77364746,0.02505837
3990.70245483,0.02470132
3992.63126221,0.02489096
3994.56006958,0.02467694
3996.48887695,0.02464617
3998.41768433,0.02465212
4000.34649170,0.02464745
4002.27529907,0.02470753
4004.20410645,0.02444784
4006.13291382,0.02459725
4008.06172119,0.02434395
4009.99052856,0.02437970
4011.91933594,0.02436494
4013.84814331,0.02412701
4015.77695068,0.02420630
4017.70575806,0.02412528
4019.63456543,0.02409552
4021.56337280,0.02393573
4023.49218018,0.02390246
4025.42098755,0.02379769
4027.34979492,0.02392217
4029.27860229,0.02378829
4031.20740967,0.02359674
4033.13621704,0.02377110
4035.06502441,0.02357223
4036.99383179,0.02363520
4038.92263916,0.02357271
4040.85144653,0.02354111
4042.78025391,0.02339126
4044.70906128,0.02321205
4046.63786865,0.02326324
4048.56667603,0.02322409
4050.49548340,0.02331884
4052.42429077,0.02312448
4054.35309814,0.02319486
4056.28190552,0.02309637
4058.21071289,0.02300837
4060.13952026,0.02302459
4062.06832764,0.02285648
4063.99713501,0.02285365
4065.92594238,0.02264326
4067.85474976,0.02279042
4069.78355713,0.02270272
4071.71236450,0.02266859
4073.64117187,0.02261833
4075.56997925,0.02247634
4077.49878662,0.02260268
4079.42759399,0.02231753
4081.35640137,0.02237255
4083.28520874,0.02227952
4085.21401611,0.02228879
4087.14282349,0.02225652
4089.07163086,0.02206312
4091.00043823,0.02219039
4092.92924561,0.02201751
4094.85805298,0.02203895
4096.78686035,0.02193222
4098.71566772,0.02196302
4100.64447510,0.02187195
4102.57328247,0.02172999
4104.50208984,0.02181063
4106.43089722,0.02162754
4108.35970459,0.02170697
4110.28851196,0.02158218
4112.21731934,0.02153233
4114.14612671,0.02142613
4116.07493408,0.02136412
4118.00374145,0.02146391
4119.93254883,0.02135260
4121.86135620,0.02129906
4123.79016357,0.02115216
4125.71897095,0.02126548
4127.64777832,0.02112916
4129.57658569,0.02107165
4131.50539307,0.02105540
4133.43420044,0.02093235
4135.36300781,0.02099784
4137.29181519,0.02081092
4139.22062256,0.02087036
4141.14942993,0.02081973
4143.07823730,0.02082135
4145.00704468,0.02062796
4146.93585205,0.02053956
4148.86465942,0.02069886
4150.79346680,0.02046532
4152.72227417,0.02060097
4154.65108154,0.02044336
4156.57988892,0.02035762
4158.50869629,0.02037980
4160.43750366,0.02024297
4162.36631103,0.02031825
4164.29511841,0.02022199
4166.22392578,0.02020393
4168.15273315,0.02009740
4170.08154053,0.02010076
4172.01034790,0.02000869
4173.93915527,0.01998404
4175.86796265,0.01996473
4177.79677002,0.01986226
4179.72557739,0.01985967
4181.65438477,0.01967385
4183.58319214,0.01981346
4185.51199951,0.01962544
4187.44080688,0.01962241
4189.36961426,0.01967312
4191.29842163,0.01940095
4193.22722900,0.01959397
4195.15603638,0.01945262
4197.08484375,0.01932403
4199.01365112,0.01930094
4200.94245850,0.01930595
4202.87126587,0.01930097
4204.80007324,0.01916540
4206.72888062,0.01914211
4208.65768799,0.01906018
4210.58649536,0.01911073
4212.51530273,0.01905371
4214.44411011,0.01896933
4216.37291748,0.01884027
4218.30172485,0.01889038
4220.23053223,0.01889042
4222.15933960,0.01874347
4224.08814697,0.01882260
4226.01695435,0.01867789
4227.94576172,0.01868151
4229.87456909,0.01863159
4231.80337646,0.01853641
4233.73218384,0.01847672
4235.66099121,0.01847069
4237.58979858,0.01850749
4239.51860596,0.01838619
4241.44741333,0.01845726
4243.37622070,0.01828703
4245.30502808,0.01832621
4247.23383545,0.01827133
4249.16264282,0.01811657
4251.09145020,0.01819697
4253.02025757,0.01806642
4254.94906494,0.01814688
4256.87787231,0.01803329
4258.80667969,0.01804581
4260.73548706,0.01798636
4262.66429443,0.01784351
4264.59310181,0.01787156
4266.52190918,0.01771621
4268.45071655,0.01778399
4270.37952393,0.01772697
4272.30833130,0.01772305
4274.23713867,0.01762041
4276.16594604,0.01752764
4278.09475342,0.01752798
4280.02356079,0.01749178
4281.95236816,0.01752929
4283.88117554,0.01739374
4285.80998291,0.01747930
4287.73879028,0.01728397
4289.66759766,0.01731839
4291.59640503,0.01731876
4293.52521240,0.01703596
4295.45401978,0.01720598
4297.38282715,0.01713146
4299.31163452,0.01714724
4301.24044189,0.01701073
4303.16924927,0.01697092
4305.09805664,0.01700307
4307.02686401,0.01680730
4308.95567139,0.01682297
4310.88447876,0.01672987
4312.81328613,0.01684876
4314.74209351,0.01672175
4316.67090088,0.01666385
4318.59970825,0.01669231
4320.52851562,0.01653292
4322.45732300,0.01662051
4324.38613037,0.01652501
4326.31493774,0.01653090
4328.24374512,0.01644528
4330.17255249,0.01641571
4332.10135986,0.01646807
4334.03016724,0.01634783
4335.95897461,0.01627946
4337.88778198,0.01618015
4339.81658936,0.01626338
4341.74539673,0.01618589
4343.67420410,0.01609402
4345.60301147,0.01612362
4347.53181885,0.01601382
4349.46062622,0.01595287
4351.38943359,0.01599791
4353.31824097,0.01598507
4355.24704834,0.01592535
4357.17585571,0.01589393
4359.10466309,0.01578094
4361.03347046,0.01582710
4362.96227783,0.01578473
4364.89108520,0.01572249
4366.81989258,0.01568987
4368.74869995,0.01560461
4370.67750732,0.01565805
4372.60631470,0.01557100
4374.53512207,0.01551870
4376.46392944,0.01540083
4378.39273682,0.01542101
4380.32154419,0.01540482
4382.25035156,0.01530991
4384.17915894,0.01539708
4386.10796631,0.01522978
4388.03677368,0.01524568
4389.96558105,0.01523256
4391.89438843,0.01515271
4393.82319580,0.01513777
4395.75200317,0.01510899
4397.68081055,0.01509551
4399.60961792,0.01492213
4401.53842529,0.01489405
4403.46723267,0.01483236
4405.39604004,0.01493910
4407.32484741,0.01489364
4409.25365478,0.01476671
4411.18246216,0.01481953
4413.11126953,0.01471215
4415.04007690,0.01476503
4416.96888428,0.01463506
4418.89769165,0.01466702
4420.82649902,0.01465499
4422.75530640,0.01449404
4424.68411377,0.01456445
4426.61292114,0.01447142
4428.54172852,0.01448047
4430.47053589,0.01438067
4432.39934326,0.01434904
4434.32815063,0.01432033
4436.25695801,0.01425256
4438.18576538,0.01431295
4440.11457275,0.01419586
4442.04338013,0.01425087
4443.97218750,0.01423120
4445.90099487,0.01410996
4447.82980225,0.01407186
4449.75860962,0.01402810
4451.68741699,0.01399090
4453.61622437,0.01395946
4455.54503174,0.01391726
4457.47383911,0.01387291
4459.40264648,0.01393099
4461.33145386,0.01389734
4463.26026123,0.01385419
4465.18906860,0.01375460
4467.11787598,0.01375009
4469.04668335,0.01372999
4470.97549072,0.01365240
4472.90429810,0.01369340
4474.83310547,0.01354544
4476.76191284,0.01360948
4478.69072021,0.01353110
4480.61952759,0.01342234
4482.54833496,0.01358001
4484.47714233,0.01347102
4486.40594971,0.01337398
4488.33475708,0.01334779
4490.26356445,0.01337001
4492.19237183,0.01332070
4494.12117920,0.01331833
4496.04998657,0.01327883
4497.97879395,0.01317428
4499.90760132,0.01317565
4501.83640869,0.01303428
4503.76521606,0.01305729
4505.69402344,0.01304469
4507.62283081,0.01298670
4509.55163818,0.01304203
4511.48044556,0.01300539
4513.40925293,0.01291488
4515.33806030,0.01290720
4517.26686768,0.01291353
4519.19567505,0.01275844
4521.12448242,0.01277169
4523.05328979,0.01271925
4524.98209717,0.01271969
4526.91090454,0.01270743
4528.83971191,0.01258002
4530.76851929,0.01268638
4532.69732666,0.01255351
4534.62613403,0.01250723
4536.55494141,0.01250409
4538.48374878,0.01242332
4540.41255615,0.01242971
4542.34136353,0.01239771
4544.27017090,0.01245088
4546.19897827,0.01235452
4548.12778564,0.01233179
4550.05659302,0.01228730
4551.98540039,0.01221100
4553.91420776,0.01220427
4555.84301514,0.01214929
4557.77182251,0.01213733
4559.70062988,0.01205507
4561.62943726,0.01204486
4563.55824463,0.01204472
4565.48705200,0.01207323
4567.41585937,0.01199189
4569.34466675,0.01193987
4571.27347412,0.01196238
4573.20228149,0.01181713
4575.13108887,0.01188374
4577.05989624,0.01187453
4578.98870361,0.01180343
4580.91751099,0.01183467
4582.84631836,0.01179544
4584.77512573,0.01179076
4586.70393311,0.01175149
4588.63274048,0.01164611
4590.56154785,0.01153722
4592.49035522,0.01153747
4594.41916260,0.01156398
4596.34796997,0.01155518
4598.27677734,0.01149669
4600.20558472,0.01148288
4602.13439209,0.01143029
4604.06319946,0.01141421
4605.99200684,0.01147294
4607.92081421,0.01135223
4609.84962158,0.01131565
4611.77842895,0.01125957
4613.70723633,0.01128731
4615.63604370,0.01121450
4617.56485107,0.01107283
4619.49365845,0.01121893
4621.42246582,0.01116843
4623.35127319,0.01115244
4625.28008057,0.01112761
4627.20888794,0.01109177
4629.13769531,0.01103153
4631.06650269,0.01096245
4632.99531006,0.01101395
4634.92411743,0.01086893
4636.85292480,0.01088460
4638.78173218,0.01076980
4640.71053955,0.01077491
4642.63934692,0.01086150
4644.56815430,0.01070330
4646.49696167,0.01080768
4648.42576904,0.01069459
4650.35457642,0.01062441
4652.28338379,0.01065077
4654.21219116,0.01059172
4656.14099853,0.01061998
4658.06980591,0.01054132
4659.99861328,0.01054045
4661.92742065,0.01051686
4663.85622803,0.01049569
4665.78503540,0.01048240
4667.71384277,0.01046478
4669.64265015,0.01045826
4671.57145752,0.01043544
4673.50026489,0.01041505
4675.42907227,0.01033439
4677.35787964,0.01028880
4679.28668701,0.01026339
4681.21549438,0.01028346
4683.14430176,0.01024026
4685.07310913,0.01027085
4687.00191650,0.01026088
4688.93072388,0.01014706
4690.85953125,0.01017459
4692.78833862,0.01007447
4694.71714600,0.01003842
4696.64595337,0.01003679
4698.57476074,0.00996785
4700.50356812,0.01001549
4702.43237549,0.00997497
4704.36118286,0.00985237
4706.28999023,0.00987663
4708.21879761,0.00996732
4710.14760498,0.00993866
4712.07641235,0.00985369
4714.00521973,0.00978169
4715.93402710,0.00979491
4717.86283447,0.00969901
4719.79164185,0.00971269
4721.72044922,0.00974235
4723.64925659,0.00962508
4725.57806396,0.00975365
4727.50687134,0.00960458
4729.43567871,0.00956074
4731.36448608,0.00970006
4733.29329346,0.00950937
4735.22210083,0.00945837
4737.15090820,0.00945248
4739.07971558,0.00945019
4741.00852295,0.00948918
4742.93733032,0.00946207
4744.86613770,0.00934194
4746.79494507,0.00943391
4748.72375244,0.00947092
4750.65255981,0.00926620
4752.58136719,0.00933149
4754.51017456,0.00930483
4756.43898193,0.00925848
4758.36778931,0.00921566
4760.29659668,0.00923242
4762.22540405,0.00921728
4764.15421143,0.00906482
4766.08301880,0.00916935
4768.01182617,0.00905997
4769.94063354,0.00909872
4771.86944092,0.00918538
4773.79824829,0.00900637
4775.72705566,0.00897694
4777.65586304,0.00899967
4779.58467041,0.00901032
4781.51347778,0.00887876
4783.44228516,0.00897551
4785.37109253,0.00896567
4787.29989990,0.00880881
4789.22870728,0.00884613
4791.15751465,0.00873469
4793.08632202,0.00875042
4795.01512939,0.00876871
4796.94393677,0.00877881
4798.87274414,0.00879765
4800.80155151,0.00874330
4802.73035889,0.00874694
4804.65916626,0.00868921
4806.58797363,0.00867478
4808.51678101,0.00864362
4810.44558838,0.00855583
4812.37439575,0.00852371
4814.30320312,0.00848787
4816.23201050,0.00840675
4818.16081787,0.00847403
4820.08962524,0.00849684
4822.01843262,0.00847543
4823.94723999,0.00848407
4825.87604736,0.00836209
4827.80485474,0.00841065
4829.73366211,0.00836556
4831.66246948,0.00832703
4833.59127686,0.00832054
4835.52008423,0.00827021
4837.44889160,0.00835233
4839.37769897,0.00824233
4841.30650635,0.00828183
4843.23531372,0.00829075
4845.16412109,0.00821113
4847.09292847,0.00817754
4849.02173584,0.00810735
4850.95054321,0.00819767
4852.87935059,0.00812850
4854.80815796,0.00806802
4856.73696533,0.00802474
4858.66577270,0.00801261
4860.59458008,0.00802560
4862.52338745,0.00799636
4864.45219482,0.00803060
4866.38100220,0.00791338
4868.30980957,0.00796654
4870.23861694,0.00792892
4872.16742432,0.00779963
4874.09623169,0.00786014
4876.02503906,0.00781298
4877.95384644,0.00782104
4879.88265381,0.00776908
4881.81146118,0.00770947
4883.74026855,0.00779870
4885.66907593,0.00778588
4887.59788330,0.00770148
4889.52669067,0.00771842
4891.45549805,0.00768672
4893.38430542,0.00760940
4895.31311279,0.00763270
4897.24192017,0.00762475
4899.17072754,0.00762849
4901.09953491,0.00757549
4903.02834228,0.00751165
4904.95714966,0.00756179
4906.88595703,0.00755507
4908.81476440,0.00748294
4910.74357178,0.00745717
4912.67237915,0.00746306
4914.60118652,0.00744000
4916.52999390,0.00740412
4918.45880127,0.00735778
4920.38760864,0.00738256
4922.31641602,0.00739611
4924.24522339,0.00738072
4926.17403076,0.00734105
4928.10283813,0.00728037
4930.03164551,0.00726521
4931.96045288,0.00720856
4933.88926025,0.00726125
4935.81806763,0.00723772
4937.74687500,0.00720216
4939.67568237,0.00716248
4941.60448975,0.00701066
4943.53329712,0.00712539
4945.46210449,0.00718522
4947.39091187,0.00715840
4949.31971924,0.00711646
4951.24852661,0.00706431
4953.17733398,0.00715599
4955.10614136,0.00709701
4957.03494873,0.00700093
4958.96375610,0.00698036
4960.89256348,0.00690571
4962.82137085,0.00688532
4964.75017822,0.00695582
4966.67898560,0.00685842
4968.60779297,0.00684062
4970.53660034,0.00686842
4972.46540771,0.00680083
4974.39421509,0.00690930
4976.32302246,0.00677845
4978.25182983,0.00675060
4980.18063721,0.00680753
4982.10944458,0.00667393
4984.03825195,0.00676103
4985.96705933,0.00674528
4987.89586670,0.00668053
4989.82467407,0.00665048
4991.75348145,0.00658994
4993.68228882,0.00660151
4995.61109619,0.00664712
4997.53990356,0.00657162
4999.46871094,0.00651596
5001.39751831,0.00662459
5003.32632568,0.00653925
5005.25513306,0.00647381
5007.18394043,0.00646479
5009.11274780,0.00648321
5011.04155518,0.00647181
5012.97036255,0.00639521
5014.89916992,0.00641789
5016.82797729,0.00636642
5018.75678467,0.00640810
5020.68559204,0.00631949
5022.61439941,0.00629925
5024.54320679,0.00636432
5026.47201416,0.00625310
5028.40082153,0.00631884
5030.32962891,0.00624798
5032.25843628,0.00616428
5034.18724365,0.00620280
5036.11605103,0.00620137
5038.04485840,0.00621878
5039.97366577,0.00620596
5041.90247314,0.00615154
5043.83128052,0.00618404
5045.76008789,0.00622570
5047.68889526,0.00608983
5049.61770264,0.00611535
5051.54651001,0.00608421
5053.47531738,0.00604121
5055.40412476,0.00604460
5057.33293213,0.00603842
5059.26173950,0.00615953
5061.19054687,0.00600916
5063.11935425,0.00597890
5065.04816162,0.00592376
5066.97696899,0.00582570
5068.90577637,0.00588638
5070.83458374,0.00589056
5072.76339111,0.00595907
5074.69219849,0.00586726
5076.62100586,0.00590158
5078.54981323,0.00585184
5080.47862061,0.00582648
5082.40742798,0.00591749
5084.33623535,0.00581226
5086.26504272,0.00581461
5088.19385010,0.00568997
5090.12265747,0.00569400
5092.05146484,0.00571731
5093.98027222,0.00566518
5095.90907959,0.00566230
5097.83788696,0.00565084
5099.76669434,0.00571144
5101.69550171,0.00560054
5103.62430908,0.00567914
5105.55311645,0.00567464
5107.48192383,0.00558543
5109.41073120,0.00557338
5111.33953857,0.00550836
5113.26834595,0.00559544
5115.19715332,0.00552409
5117.12596069,0.00555104
5119.05476807,0.00555792
5120.98357544,0.00550186
5122.91238281,0.00551201
5124.84119019,0.00546614
5126.76999756,0.00553935
5128.69880493,0.00547333
5130.62761230,0.00542607
5132.55641968,0.00539953
5134.48522705,0.00533431
5136.41403442,0.00533150
5138.34284180,0.00532787
5140.27164917,0.00534338
5142.20045654,0.00532325
5144.12926392,0.00531013
5146.05807129,0.00524066
5147.98687866,0.00527633
5149.91568603,0.00528219
5151.84449341,0.00522336
5153.77330078,0.00525452
5155.70210815,0.00521462
5157.63091553,0.00517496
5159.55972290,0.00510742
5161.48853027,0.00512940
5163.41733765,0.00517602
5165.34614502,0.00514182
5167.27495239,0.00517024
5169.20375977,0.00512697
5171.13256714,0.00503256
5173.06137451,0.00504780
5174.99018188,0.00502774
5176.91898926,0.00501639
5178.84779663,0.00509781
5180.77660400,0.00506962
5182.70541138,0.00504358
5184.63421875,0.00492442
5186.56302612,0.00490661
5188.49183350,0.00499194
5190.42064087,0.00495662
5192.34944824,0.00508067
5194.27825562,0.00502712
5196.20706299,0.00497571
5198.13587036,0.00490690
5200.06467773,0.00481624
5201.99348511,0.00495554
5203.92229248,0.00485686
5205.85109985,0.00476278
5207.77990723,0.00473339
5209.70871460,0.00478303
5211.63752197,0.00483122
5213.56632935,0.00481747
5215.49513672,0.00485851
5217.42394409,0.00479330
5219.35275146,0.00480544
5221.28155884,0.00476013
5223.21036621,0.00479015
5225.13917358,0.00468114
5227.06798096,0.00460168
5228.99678833,0.00475862
5230.92559570,0.00460079
5232.85440308,0.00459607
5234.78321045,0.00466351
5236.71201782,0.00467712
5238.64082520,0.00465544
5240.56963257,0.00459615
5242.49843994,0.00464980
5244.42724731,0.00454232
5246.35605469,0.00456625
5248.28486206,0.00449158
5250.21366943,0.00443996
5252.14247681,0.00466159
5254.07128418,0.00460425
5256.00009155,0.00441221
5257.92889893,0.00443341
5259.85770630,0.00456788
5261.78651367,0.00447171
5263.71532104,0.00433345
5265.64412842,0.00442020
5267.57293579,0.00448979
5269.50174316,0.00440371
5271.43055054,0.00437006
5273.35935791,0.00441013
5275.28816528,0.00438936
5277.21697266,0.00438942
5279.14578003,0.00433758
5281.07458740,0.00434488
5283.00339478,0.00430465
5284.93220215,0.00423733
5286.86100952,0.00433435
5288.78981689,0.00436471
5290.71862427,0.00430333
5292.64743164,0.00424945
5294.57623901,0.00431973
5296.50504639,0.00428253
5298.43385376,0.00426116
5300.36266113,0.00430143
5302.29146851,0.00419395
5304.22027588,0.00423669
5306.14908325,0.00416041
5308.07789062,0.00413198
5310.00669800,0.00422988
5311.93550537,0.00412051
5313.86431274,0.00417570
5315.79312012,0.00422107
5317.72192749,0.00411075
5319.65073486,0.00412685
5321.57954224,0.00412106
5323.50834961,0.00410268
5325.43715698,0.00414445
5327.36596436,0.00402642
5329.29477173,0.00399201
5331.22357910,0.00408384
5333.15238647,0.00402448
5335.08119385,0.00408300
5337.01000122,0.00404186
5338.93880859,0.00379196
5340.86761597,0.00393376
5342.79642334,0.00405332
5344.72523071,0.00384194
5346.65403809,0.00384126
5348.58284546,0.00382671
5350.51165283,0.00391586
5352.44046020,0.00395429
5354.36926758,0.00373183
5356.29807495,0.00387679
5358.22688232,0.00388357
5360.15568970,0.00387654
5362.08449707,0.00391199
5364.01330444,0.00380160
5365.94211182,0.00389924
5367.87091919,0.00376250
5369.79972656,0.00380938
5371.72853394,0.00383434
5373.65734131,0.00375351
5375.58614868,0.00377504
5377.51495605,0.00360927
5379.44376343,0.00375917
5381.37257080,0.00379086
5383.30137817,0.00377067
5385.23018555,0.00370110
5387.15899292,0.00357027
5389.08780029,0.00376048
5391.01660767,0.00374087
5392.94541504,0.00367797
5394.87422241,0.00357229
5396.80302978,0.00359769
5398.73183716,0.00363856
5400.66064453,0.00355762
5402.58945190,0.00365646
5404.51825928,0.00356590
5406.44706665,0.00362512
5408.37587402,0.00361821
5410.30468140,0.00349531
5412.23348877,0.00355247
5414.16229614,0.00344281
5416.09110352,0.00348077
5418.01991089,0.00356134
5419.94871826,0.00350604
5421.87752563,0.00351149
5423.80633301,0.00349170
5425.73514038,0.00350121
5427.66394775,0.00354667
5429.59275513,0.00341496
5431.52156250,0.00338045
5433.45036987,0.00346049
5435.37917725,0.00336239
5437.30798462,0.00346536
5439.23679199,0.00348338
5441.16559936,0.00331598
5443.09440674,0.00332791
5445.02321411,0.00330363
5446.95202148,0.00334989
5448.88082886,0.00340268
5450.80963623,0.00335768
5452.73844360,0.00337610
5454.66725098,0.00332837
5456.59605835,0.00324761
5458.52486572,0.00329454
5460.45367310,0.00321793
5462.38248047,0.00314586
5464.31128784,0.00327365
5466.24009521,0.00329480
5468.16890259,0.00330933
5470.09770996,0.00326702
5472.02651733,0.00324458
5473.95532471,0.00324405
5475.88413208,0.00310229
5477.81293945,0.00318661
5479.74174683,0.00322903
5481.67055420,0.00317803
5483.59936157,0.00323934
5485.52816895,0.00322350
5487.45697632,0.00321573
5489.38578369,0.00320481
5491.31459106,0.00316349
5493.24339844,0.00309477
5495.17220581,0.00314246
5497.10101318,0.00320248
5499.02982056,0.00309945
5500.95862793,0.00311249
5502.88743530,0.00307533
5504.81624268,0.00302386
5506.74505005,0.00308508
5508.67385742,0.00298350
5510.60266479,0.00305656
5512.53147217,0.00315964
5514.46027954,0.00301573
5516.38908691,0.00302347
5518.31789429,0.00301327
5520.24670166,0.00302309
5522.17550903,0.00303539
5524.10431641,0.00296877
5526.03312378,0.00309115
5527.96193115,0.00304364
5529.89073853,0.00301214
5531.81954590,0.00304812
5533.74835327,0.00292603
5535.67716064,0.00298636
5537.60596802,0.00294933
5539.53477539,0.00293629
5541.46358276,0.00300684
5543.39239014,0.00287869
5545.32119751,0.00293410
5547.25000488,0.00296198
5549.17881226,0.00284623
5551.10761963,0.00287262
5553.03642700,0.00288478
5554.96523437,0.00286088
5556.89404175,0.00284088
5558.82284912,0.00284446
5560.75165649,0.00285086
5562.68046387,0.00283118
5564.60927124,0.00283471
5566.53807861,0.00285709
5568.46688599,0.00283325
5570.39569336,0.00275202
5572.32450073,0.00278084
5574.25330811,0.00274458
5576.18211548,0.00274650
5578.11092285,0.00287157
5580.03973022,0.00279982
5581.96853760,0.00279131
5583.89734497,0.00276017
5585.82615234,0.00277414
5587.75495972,0.00285066
5589.68376709,0.00273839
5591.61257446,0.00275406
5593.54138184,0.00272076
5595.47018921,0.00271278
5597.39899658,0.00275312
5599.32780395,0.00269969
5601.25661133,0.00267479
5603.18541870,0.00267701
5605.11422607,0.00275537
5607.04303345,0.00266530
5608.97184082,0.00268495
5610.90064819,0.00269530
5612.82945557,0.00259331
5614.75826294,0.00268011
5616.68707031,0.00263597
5618.61587769,0.00261639
5620.54468506,0.00260699
5622.47349243,0.00257089
5624.40229980,0.00254348
5626.33110718,0.00256498
5628.25991455,0.00262308
5630.18872192,0.00256820
5632.11752930,0.00263842
5634.04633667,0.00257983
5635.97514404,0.00252372
5637.90395142,0.00252550
5639.83275879,0.00249463
5641.76156616,0.00255685
5643.69037353,0.00249566
5645.61918091,0.00249945
5647.54798828,0.00250220
5649.47679565,0.00252514
5651.40560303,0.00251857
5653.33441040,0.00250335
5655.26321777,0.00251075
5657.19202515,0.00242413
5659.12083252,0.00250594
5661.04963989,0.00243997
5662.97844727,0.00243728
5664.90725464,0.00252349
5666.83606201,0.00244472
5668.76486938,0.00244200
5670.69367676,0.00241572
5672.62248413,0.00244589
5674.55129150,0.00240929
5676.48009888,0.00242258
5678.40890625,0.00244957
5680.33771362,0.00240777
5682.26652100,0.00243918
5684.19532837,0.00236775
5686.12413574,0.00237954
5688.05294311,0.00238461
5689.98175049,0.00234242
5691.91055786,0.00232847
5693.83936523,0.00237342
5695.76817261,0.00242695
5697.69697998,0.00234267
5699.62578735,0.00230966
5701.55459473,0.00227533
5703.48340210,0.00231244
5705.41220947,0.00231311
5707.34101685,0.00225456
5709.26982422,0.00230008
5711.19863159,0.00223282
5713.12743896,0.00220103
5715.05624634,0.00224860
5716.98505371,0.00222047
5718.91386108,0.00220345
5720.84266846,0.00220756
5722.77147583,0.00218501
5724.70028320,0.00221241
5726.62909058,0.00217138
5728.55789795,0.00216363
5730.48670532,0.00225941
5732.41551270,0.00216509
5734.34432007,0.00216783
5736.27312744,0.00220261
5738.20193481,0.00212508
5740.13074219,0.00217651
5742.05954956,0.00221737
5743.98835693,0.00218858
5745.91716431,0.00208318
5747.84597168,0.00203728
5749.77477905,0.00213021
5751.70358643,0.00216840
5753.63239380,0.00211226
5755.56120117,0.00211124
5757.49000854,0.00208708
5759.41881592,0.00203722
5761.34762329,0.00209973
5763.27643066,0.00215307
5765.20523804,0.00212718
5767.13404541,0.00200576
5769.06285278,0.00207294
5770.99166016,0.00213778
5772.92046753,0.00205686
5774.84927490,0.00212551
5776.77808228,0.00205827
5778.70688965,0.00198308
5780.63569702,0.00200950
5782.56450439,0.00204818
5784.49331177,0.00199407
5786.42211914,0.00194923
5788.35092651,0.00204076
5790.27973389,0.00199244
5792.20854126,0.00204846
5794.13734863,0.00200723
5796.06615601,0.00193209
5797.99496338,0.00196080
5799.92377075,0.00189673
5801.85257812,0.00196481
5803.78138550,0.00192602
5805.71019287,0.00197046
5807.63900024,0.00199069
5809.56780762,0.00188437
5811.49661499,0.00196435
5813.42542236,0.00195568
5815.35422974,0.00189265
5817.28303711,0.00183721
5819.21184448,0.00186386
5821.14065186,0.00193552
5823.06945923,0.00194937
5824.99826660,0.00191607
5826.92707397,0.00185574
5828.85588135,0.00186323
5830.78468872,0.00184557
5832.71349609,0.00188540
5834.64230347,0.00192733
5836.57111084,0.00188912
5838.49991821,0.00180482
5840.42872559,0.00177023
5842.35753296,0.00182905
5844.28634033,0.00184897
5846.21514770,0.00180446
5848.14395508,0.00172844
5850.07276245,0.00180875
5852.00156982,0.00179829
5853.93037720,0.00169061
5855.85918457,0.00174306
5857.78799194,0.00177310
5859.71679932,0.00181798
5861.64560669,0.00181225
5863.57441406,0.00176225
5865.50322144,0.00175844
5867.43202881,0.00176321
5869.36083618,0.00176243
5871.28964355,0.00177133
5873.21845093,0.00178771
5875.14725830,0.00175032
5877.07606567,0.00170807
5879.00487305,0.00169612
5880.93368042,0.00173165
5882.86248779,0.00168398
5884.79129517,0.00172351
5886.72010254,0.00175067
5888.64890991,0.00161782
5890.57771728,0.00170721
5892.50652466,0.00171549
5894.43533203,0.00167319
5896.36413940,0.00173129
5898.29294678,0.00170289
5900.22175415,0.00171437
5902.15056152,0.00171958
5904.07936890,0.00171868
5906.00817627,0.00166813
5907.93698364,0.00167822
5909.86579102,0.00165651
5911.79459839,0.00155067
5913.72340576,0.00158101
5915.65221313,0.00156929
5917.58102051,0.00160093
5919.50982788,0.00165397
5921.43863525,0.00161964
5923.36744263,0.00163940
5925.29625000,0.00163150
5927.22505737,0.00163714
5929.15386475,0.00164846
5931.08267212,0.00157258
5933.01147949,0.00159524
5934.94028686,0.00164926
5936.86909424,0.00161979
5938.79790161,0.00158336
5940.72670898,0.00152042
5942.65551636,0.00158799
5944.58432373,0.00161415
5946.51313110,0.00153303
5948.44193848,0.00150247
5950.37074585,0.00143333
5952.29955322,0.00144974
5954.22836060,0.00150312
5956.15716797,0.00153266
5958.08597534,0.00147109
5960.01478271,0.00147992
5961.94359009,0.00154511
5963.87239746,0.00146683
5965.80120483,0.00152179
5967.73001221,0.00150060
5969.65881958,0.00145203
5971.58762695,0.00144390
5973.51643433,0.00143774
5975.44524170,0.00152273
5977.37404907,0.00146530
5979.30285645,0.00148103
5981.23166382,0.00148779
5983.16047119,0.00149011
5985.08927856,0.00150495
5987.01808594,0.00141575
5988.94689331,0.00140443
5990.87570068,0.00139172
5992.80450806,0.00144111
5994.73331543,0.00141080
5996.66212280,0.00141741
5998.59093018,0.00147293
6000.51973755,0.00140231
