399.26312622,0.00018350
401.19193359,0.00025814
403.12074097,0.00030067
405.04954834,0.00040621
406.97835571,0.00035885
408.90716309,0.00056365
410.83597046,0.00019244
412.76477783,0.00028077
414.69358521,-0.00009430
416.62239258,-0.00014344
418.55119995,0.00036048
420.48000732,0.00013650
422.40881470,0.00028611
424.33762207,0.00003380
426.26642944,0.00026010
428.19523682,0.00031214
430.12404419,0.00012294
432.05285156,0.00028135
433.98165894,-0.00004666
435.91046631,0.00018338
437.83927368,0.00009405
439.76808105,0.00011551
441.69688843,0.00029831
443.62569580,0.00038788
445.55450317,0.00055813
447.48331055,0.00003650
449.41211792,0.00026878
451.34092529,0.00049927
453.26973267,0.00018837
455.19854004,0.00008573
457.12734741,0.00007695
459.05615479,0.00015680
460.98496216,0.00003814
462.91376953,0.00026975
464.84257690,0.00044096
466.77138428,0.00035920
468.70019165,0.00015994
470.62899902,0.00018153
472.55780640,0.00043409
474.48661377,-0.00005312
476.41542114,-0.00014647
478.34422852,0.00020194
480.27303589,-0.00000523
482.20184326,-0.00005965
484.13065063,0.00010839
486.05945801,-0.00001888
487.98826538,0.00004636
489.91707275,0.00004240
491.84588013,0.00035976
493.77468750,0.00026963
495.70349487,-0.00007865
497.63230225,0.00021200
499.56110962,0.00014597
501.48991699,0.00018651
503.41872437,0.00026479
505.34753174,0.00025837
507.27633911,0.00030474
509.20514648,0.00038907
511.13395386,0.00035392
513.06276123,-0.00005513
514.99156860,-0.00002052
516.92037598,0.00012162
518.84918335,0.00040129
520.77799072,0.00000673
522.70679810,-0.00028465
524.63560547,0.00039259
526.56441284,0.00032750
528.49322021,0.00021720
530.42202759,0.00000923
532.35083496,0.00006432
534.27964233,0.00011768
536.20844971,-0.00022720
538.13725708,0.00014759
540.06606445,0.00007727
541.99487183,0.00008611
543.92367920,0.00021188
545.85248657,0.00009823
547.78129395,-0.00004232
549.71010132,-0.00021893
551.63890869,0.00038433
553.56771606,0.00034103
555.49652344,-0.00002354
557.42533081,0.00008777
559.35413818,0.00009770
561.28294556,0.00033164
563.21175293,0.00023396
565.14056030,0.00008426
567.06936768,0.00019222
568.99817505,-0.00000400
570.92698242,-0.00024899
572.85578979,0.00008664
574.78459717,0.00031401
576.71340454,0.00015620
578.64221191,0.00041093
580.57101929,0.00023316
582.49982666,-0.00021921
584.42863403,0.00000182
586.35744141,0.00020263
588.28624878,0.00023201
590.21505615,0.00022848
592.14386353,0.00007597
594.07267090,0.00002773
596.00147827,0.00003329
597.93028564,0.00034094
599.85909302,0.00051492
601.78790039,0.00009694
603.71670776,0.00011256
605.64551514,0.00030573
607.57432251,0.00025517
609.50312988,0.00021169
611.43193726,0.00002141
613.36074463,0.00000084
615.28955200,-0.00006488
617.21835938,0.00014680
619.14716675,0.00030417
621.07597412,0.00011244
623.00478149,0.00013904
624.93358887,0.00012968
626.86239624,0.00020847
628.79120361,0.00040953
630.72001099,0.00014011
632.64881836,0.00020920
634.57762573,0.00016059
636.50643311,0.00006535
638.43524048,0.00011983
640.36404785,-0.00026150
642.29285522,0.00008752
644.22166260,0.00039099
646.15046997,0.00020651
648.07927734,0.00042258
650.00808472,0.00040776
651.93689209,0.00031530
653.86569946,0.00064914
655.79450684,0.00034313
657.72331421,0.00006060
659.65212158,0.00038452
661.58092896,0.00036110
663.50973633,0.00045725
665.43854370,0.00042875
667.36735107,0.00047314
669.29615845,0.00048242
671.22496582,0.00044246
673.15377319,0.00066580
675.08258057,0.00052409
677.01138794,0.00057590
678.94019531,0.00028378
680.86900269,0.00035255
682.79781006,0.00053722
684.72661743,0.00036193
686.65542480,0.00084400
688.58423218,0.00060234
690.51303955,0.00063481
692.44184692,0.00074673
694.37065430,0.00055018
696.29946167,0.00087388
698.22826904,0.00074757
700.15707642,0.00083537
702.08588379,0.00087467
704.01469116,0.00087219
705.94349854,0.00083506
707.87230591,0.00087754
709.80111328,0.00090925
711.72992065,0.00038593
713.65872803,0.00049775
715.58753540,0.00035117
717.51634277,0.00015498
719.44515015,0.00017776
721.37395752,0.00016253
723.30276489,0.00047591
725.23157227,0.00012708
727.16037964,0.00011750
729.08918701,0.00007358
731.01799438,0.00004217
732.94680176,0.00046973
734.87560913,0.00036828
736.80441650,0.00022285
738.73322388,-0.00005617
740.66203125,0.00002084
742.59083862,0.00028846
744.51964600,0.00014541
746.44845337,0.00012444
748.37726074,0.00020758
750.30606812,0.00039227
752.23487549,0.00037637
754.16368286,0.00019210
756.09249023,0.00015700
758.02129761,0.00030007
759.95010498,0.00031790
761.87891235,0.00012468
763.80771973,0.00027920
765.73652710,0.00021286
767.66533447,0.00008594
769.59414185,0.00015800
771.52294922,0.00017869
773.45175659,0.00031990
775.38056396,0.00011596
777.30937134,0.00014697
779.23817871,0.00037596
781.16698608,0.00040316
783.09579346,0.00017850
785.02460083,0.00019430
786.95340820,0.00037489
788.88221558,0.00005586
790.81102295,0.00037129
792.73983032,0.00026393
794.66863770,-0.00007653
796.59744507,0.00022143
798.52625244,0.00024347
800.45505981,0.00037986
802.38386719,0.00023915
804.31267456,0.00025739
806.24148193,0.00038986
808.17028931,0.00035264
810.09909668,0.00034633
812.02790405,0.00016643
813.95671143,0.00018596
815.88551880,0.00010111
817.81432617,0.00037175
819.74313354,0.00033521
821.67194092,0.00002777
823.60074829,0.00039602
825.52955566,0.00033533
827.45836304,0.00020900
829.38717041,0.00029275
831.31597778,0.00005738
833.24478516,0.00000797
835.17359253,0.00037287
837.10239990,0.00041168
839.03120728,0.00038403
840.96001465,0.00046405
842.88882202,0.00021454
844.81762939,0.00032516
846.74643677,0.00027213
848.67524414,0.00040161
850.60405151,0.00054420
852.53285889,0.00018784
854.46166626,0.00048978
856.39047363,0.00039133
858.31928101,0.00024813
860.24808838,0.00035091
862.17689575,0.00004740
864.10570313,0.00036241
866.03451050,0.00043772
867.96331787,0.00014160
869.89212524,0.00011314
871.82093262,0.00010807
873.74973999,0.00030716
875.67854736,0.00038441
877.60735474,0.00033689
879.53616211,0.00039530
881.46496948,0.00030035
883.39377686,0.00011612
885.32258423,0.00014493
887.25139160,0.00031229
889.18019897,0.00036243
891.10900635,0.00035240
893.03781372,0.00038909
894.96662109,0.00033425
896.89542847,0.00040838
898.82423584,0.00036159
900.75304321,0.00021915
902.68185059,0.00058027
904.61065796,0.00051603
906.53946533,0.00018410
908.46827271,0.00028036
910.39708008,0.00020584
912.32588745,0.00016788
914.25469482,0.00048665
916.18350220,0.00072118
918.11230957,0.00041866
920.04111694,0.00028191
921.96992432,0.00035338
923.89873169,0.00031578
925.82753906,0.00061771
927.75634644,0.00078312
929.68515381,0.00067956
931.61396118,0.00044883
933.54276855,0.00041529
935.47157593,0.00050265
937.40038330,0.00038315
939.32919067,0.00039982
941.25799805,0.00051190
943.18680542,0.00064999
945.11561279,0.00052646
947.04442017,0.00058708
948.97322754,0.00057889
950.90203491,0.00043994
952.83084229,0.00070329
954.75964966,0.00042586
956.68845703,0.00059147
958.61726440,0.00090743
960.54607178,0.00055695
962.47487915,0.00063167
964.40368652,0.00063317
966.33249390,0.00067471
968.26130127,0.00070501
970.19010864,0.00067063
972.11891602,0.00079394
974.04772339,0.00073088
975.97653076,0.00068805
977.90533813,0.00073500
979.83414551,0.00090749
981.76295288,0.00074395
983.69176025,0.00080052
985.62056763,0.00099402
987.54937500,0.00073466
989.47818237,0.00096265
991.40698975,0.00109837
993.33579712,0.00103571
995.26460449,0.00119030
997.19341187,0.00120721
999.12221924,0.00125687
1001.05102661,0.00143247
1002.97983398,0.00166762
1004.90864136,0.00159967
1006.83744873,0.00168062
1008.76625610,0.00198375
1010.69506348,0.00202046
1012.62387085,0.00197433
1014.55267822,0.00194807
1016.48148560,0.00225089
1018.41029297,0.00231867
1020.33910034,0.00226291
1022.26790771,0.00248458
1024.19671509,0.00232301
1026.12552246,0.00244199
1028.05432983,0.00274950
1029.98313721,0.00277150
1031.91194458,0.00289641
1033.84075195,0.00288255
1035.76955933,0.00277143
1037.69836670,0.00267867
1039.62717407,0.00292563
1041.55598145,0.00317317
1043.48478882,0.00294882
1045.41359619,0.00295062
1047.34240356,0.00285404
1049.27121094,0.00271899
1051.20001831,0.00292818
1053.12882568,0.00278229
1055.05763306,0.00276103
1056.98644043,0.00301194
1058.91524780,0.00273908
1060.84405518,0.00247372
1062.77286255,0.00257739
1064.70166992,0.00243789
1066.63047729,0.00225118
1068.55928467,0.00238555
1070.48809204,0.00235901
1072.41689941,0.00213723
1074.34570679,0.00194778
1076.27451416,0.00177299
1078.20332153,0.00199279
1080.13212891,0.00216151
1082.06093628,0.00183203
1083.98974365,0.00170441
1085.91855103,0.00178096
1087.84735840,0.00185063
1089.77616577,0.00174640
1091.70497314,0.00158519
1093.63378052,0.00175677
1095.56258789,0.00153988
1097.49139526,0.00135304
1099.42020264,0.00167802
1101.34901001,0.00159695
1103.27781738,0.00135514
1105.20662476,0.00131579
1107.13543213,0.00131315
1109.06423950,0.00132881
1110.99304687,0.00144902
1112.92185425,0.00152204
1114.85066162,0.00129003
1116.77946899,0.00131192
1118.70827637,0.00141977
1120.63708374,0.00136545
1122.56589111,0.00148770
1124.49469849,0.00145471
1126.42350586,0.00150389
1128.35231323,0.00153195
1130.28112061,0.00149707
1132.20992798,0.00172203
1134.13873535,0.00154815
1136.06754272,0.00152375
1137.99635010,0.00174434
1139.92515747,0.00168058
1141.85396484,0.00186137
1143.78277222,0.00201979
1145.71157959,0.00198812
1147.64038696,0.00186832
1149.56919434,0.00199350
1151.49800171,0.00223696
1153.42680908,0.00213709
1155.35561646,0.00228700
1157.28442383,0.00247194
1159.21323120,0.00244916
1161.14203857,0.00250767
1163.07084595,0.00256004
1164.99965332,0.00253878
1166.92846069,0.00256951
1168.85726807,0.00283458
1170.78607544,0.00299177
1172.71488281,0.00308114
1174.64369019,0.00329037
1176.57249756,0.00335814
1178.50130493,0.00325113
1180.43011230,0.00321815
1182.35891968,0.00339996
1184.28772705,0.00361676
1186.21653442,0.00370983
1188.14534180,0.00386537
1190.07414917,0.00422640
1192.00295654,0.00433983
1193.93176392,0.00444439
1195.86057129,0.00468899
1197.78937866,0.00485814
1199.71818604,0.00512149
1201.64699341,0.00509444
1203.57580078,0.00531362
1205.50460815,0.00565501
1207.43341553,0.00569817
1209.36222290,0.00591626
1211.29103027,0.00602258
1213.21983765,0.00629611
1215.14864502,0.00639624
1217.07745239,0.00634137
1219.00625977,0.00662287
1220.93506714,0.00674167
1222.86387451,0.00681163
1224.79268188,0.00696748
1226.72148926,0.00723574
1228.65029663,0.00708761
1230.57910400,0.00683797
1232.50791138,0.00695623
1234.43671875,0.00688951
1236.36552612,0.00698944
1238.29433350,0.00693732
1240.22314087,0.00684751
1242.15194824,0.00695883
1244.08075562,0.00698700
1246.00956299,0.00712136
1247.93837036,0.00691493
1249.86717773,0.00688159
1251.79598511,0.00689515
1253.72479248,0.00667901
1255.65359985,0.00681464
1257.58240723,0.00662195
1259.51121460,0.00644695
1261.44002197,0.00644846
1263.36882935,0.00630760
1265.29763672,0.00632787
1267.22644409,0.00610473
1269.15525146,0.00614341
1271.08405884,0.00621018
1273.01286621,0.00586926
1274.94167358,0.00592933
1276.87048096,0.00590535
1278.79928833,0.00580994
1280.72809570,0.00578071
1282.65690308,0.00544687
1284.58571045,0.00537289
1286.51451782,0.00536872
1288.44332520,0.00512910
1290.37213257,0.00506528
1292.30093994,0.00531619
1294.22974731,0.00534262
1296.15855469,0.00513558
1298.08736206,0.00526830
1300.01616943,0.00535632
1301.94497681,0.00520964
1303.87378418,0.00516393
1305.80259155,0.00532649
1307.73139893,0.00544725
1309.66020630,0.00546325
1311.58901367,0.00545455
1313.51782104,0.00547706
1315.44662842,0.00580541
1317.37543579,0.00599358
1319.30424316,0.00610572
1321.23305054,0.00626204
1323.16185791,0.00629666
1325.09066528,0.00653193
1327.01947266,0.00673356
1328.94828003,0.00690126
1330.87708740,0.00688566
1332.80589478,0.00693197
1334.73470215,0.00725225
1336.66350952,0.00718215
1338.59231689,0.00707940
1340.52112427,0.00735731
1342.44993164,0.00763690
1344.37873901,0.00756181
1346.30754639,0.00752037
1348.23635376,0.00760910
1350.16516113,0.00756567
1352.09396851,0.00757132
1354.02277588,0.00748464
1355.95158325,0.00742768
1357.88039062,0.00736523
1359.80919800,0.00731112
1361.73800537,0.00710374
1363.66681274,0.00697303
1365.59562012,0.00733646
1367.52442749,0.00715168
1369.45323486,0.00698098
1371.38204224,0.00707463
1373.31084961,0.00679297
1375.23965698,0.00683780
1377.16846436,0.00700348
1379.09727173,0.00704859
1381.02607910,0.00676466
1382.95488647,0.00674517
1384.88369385,0.00703895
1386.81250122,0.00664327
1388.74130859,0.00681188
1390.67011597,0.00743834
1392.59892334,0.00713035
1394.52773071,0.00672587
1396.45653809,0.00690092
1398.38534546,0.00682988
1400.31415283,0.00693687
1402.24296021,0.00731787
1404.17176758,0.00690923
1406.10057495,0.00705726
1408.02938232,0.00738085
1409.95818970,0.00703419
1411.88699707,0.00700858
1413.81580444,0.00699154
1415.74461182,0.00700562
1417.67341919,0.00640316
1419.60222656,0.00605418
1421.53103394,0.00648284
1423.45984131,0.00640073
1425.38864868,0.00648518
1427.31745605,0.00648521
1429.24626343,0.00625497
1431.17507080,0.00591542
1433.10387817,0.00578955
1435.03268555,0.00556569
1436.96149292,0.00491299
1438.89030029,0.00540414
1440.81910767,0.00554054
1442.74791504,0.00528196
1444.67672241,0.00546080
1446.60552979,0.00498614
1448.53433716,0.00501445
1450.46314453,0.00524658
1452.39195190,0.00542415
1454.32075928,0.00540667
1456.24956665,0.00458069
1458.17837402,0.00494039
1460.10718140,0.00611830
1462.03598877,0.00635113
1463.96479614,0.00643505
1465.89360352,0.00652748
1467.82241089,0.00720689
1469.75121826,0.00790549
1471.68002563,0.00718981
1473.60883301,0.00758082
1475.53764038,0.00847476
1477.46644775,0.00887228
1479.39525513,0.00981613
1481.32406250,0.00988171
1483.25286987,0.01032801
1485.18167725,0.01064322
1487.11048462,0.01038749
1489.03929199,0.01039127
1490.96809937,0.01062712
1492.89690674,0.01227449
1494.82571411,0.01186551
1496.75452148,0.01079187
1498.68332886,0.01196699
1500.61213623,0.01236510
1502.54094360,0.01331396
1504.46975098,0.01242360
1506.39855835,0.00962087
1508.32736572,0.01132113
1510.25617310,0.01297421
1512.18498047,0.01284526
1514.11378784,0.01357011
1516.04259521,0.01240913
1517.97140259,0.01276556
1519.90020996,0.01246417
1521.82901733,0.01111965
1523.75782471,0.01318217
1525.68663208,0.01302710
1527.61543945,0.01291857
1529.54424683,0.01422850
1531.47305420,0.01361423
1533.40186157,0.01273723
1535.33066895,0.01341620
1537.25947632,0.01399944
1539.18828369,0.01052987
1541.11709106,0.01084326
1543.04589844,0.01283360
1544.97470581,0.01249730
1546.90351318,0.01451091
1548.83232056,0.01356713
1550.76112793,0.01394304
1552.68993530,0.01391556
1554.61874268,0.01269788
1556.54755005,0.01365867
1558.47635742,0.00987715
1560.40516479,0.01071255
1562.33397217,0.01474096
1564.26277954,0.01371443
1566.19158691,0.01425617
1568.12039429,0.01398398
1570.04920166,0.01261503
1571.97800903,0.01453102
1573.90681641,0.01447049
1575.83562378,0.01180284
1577.76443115,0.01324698
1579.69323853,0.01470347
1581.62204590,0.01415134
1583.55085327,0.01455170
1585.47966064,0.01423495
1587.40846802,0.01446423
1589.33727539,0.01430758
1591.26608276,0.01416666
1593.19489014,0.01443253
1595.12369751,0.01426206
1597.05250488,0.01440050
1598.98131226,0.01424715
1600.91011963,0.01431879
1602.83892700,0.01399918
1604.76773437,0.01413692
1606.69654175,0.01419488
1608.62534912,0.01405599
1610.55415649,0.01402276
1612.48296387,0.01410471
1614.41177124,0.01410508
1616.34057861,0.01191383
1618.26938599,0.01288054
1620.19819336,0.01465059
1622.12700073,0.01322768
1624.05580811,0.01331506
1625.98461548,0.01374465
1627.91342285,0.01372535
1629.84223022,0.01371910
1631.77103760,0.01450501
1633.69984497,0.01353189
1635.62865234,0.01149831
1637.55745972,0.01304712
1639.48626709,0.01415580
1641.41507446,0.01391301
1643.34388184,0.01418242
1645.27268921,0.01297970
1647.20149658,0.01152083
1649.13030396,0.01392260
1651.05911133,0.01334170
1652.98791870,0.00901899
1654.91672607,0.01195143
1656.84553345,0.01455974
1658.77434082,0.01376613
1660.70314819,0.01422171
1662.63195557,0.01302702
1664.56076294,0.01364133
1666.48957031,0.01470384
1668.41837769,0.01303739
1670.34718506,0.01273845
1672.27599243,0.01426336
1674.20479980,0.01309519
1676.13360718,0.01270549
1678.06241455,0.01457136
1679.99122192,0.01395641
1681.92002930,0.01371721
1683.84883667,0.01155037
1685.77764404,0.01155391
1687.70645142,0.01505047
1689.63525879,0.01330048
1691.56406616,0.01450239
1693.49287354,0.01470697
1695.42168091,0.01122650
1697.35048828,0.01347434
1699.27929565,0.01212875
1701.20810303,0.01103235
1703.13691040,0.01446547
1705.06571777,0.01342849
1706.99452515,0.01345802
1708.92333252,0.01446476
1710.85213989,0.01390358
1712.78094727,0.01414314
1714.70975464,0.01312016
1716.63856201,0.01199336
1718.56736938,0.01191802
1720.49617676,0.01387095
1722.42498413,0.01435110
1724.35379150,0.01348435
1726.28259888,0.01462425
1728.21140625,0.01345435
1730.14021362,0.01362484
1732.06902100,0.01310766
1733.99782837,0.01019641
1735.92663574,0.01261301
1737.85544312,0.01367384
1739.78425049,0.01239284
1741.71305786,0.01333945
1743.64186523,0.01358017
1745.57067261,0.01361185
1747.49947998,0.01358281
1749.42828735,0.01307956
1751.35709473,0.01248861
1753.28590210,0.01384815
1755.21470947,0.01441382
1757.14351685,0.01331169
1759.07232422,0.01447280
1761.00113159,0.01363534
1762.92993896,0.01339624
1764.85874634,0.01497920
1766.78755371,0.01358200
1768.71636108,0.01362282
1770.64516846,0.01361749
1772.57397583,0.01248451
1774.50278320,0.01364094
1776.43159058,0.01433080
1778.36039795,0.01404315
1780.28920532,0.01392861
1782.21801270,0.01409001
1784.14682007,0.01411911
1786.07562744,0.01386618
1788.00443481,0.01443454
1789.93324219,0.01421282
1791.86204956,0.01297238
1793.79085693,0.01339751
1795.71966431,0.01424589
1797.64847168,0.01404864
1799.57727905,0.01390155
1801.50608643,0.01373726
1803.43489380,0.01402431
1805.36370117,0.01424677
1807.29250854,0.01414722
1809.22131592,0.01415927
1811.15012329,0.01385595
1813.07893066,0.01418055
1815.00773804,0.01424050
1816.93654541,0.01419143
1818.86535278,0.01426500
1820.79416016,0.01420897
1822.72296753,0.01444432
1824.65177490,0.01370869
1826.58058228,0.01398783
1828.50938965,0.01384653
1830.43819702,0.01324434
1832.36700439,0.01433212
1834.29581177,0.01406611
1836.22461914,0.01412933
1838.15342651,0.01412298
1840.08223389,0.01392025
1842.01104126,0.01414645
1843.93984863,0.01277699
1845.86865601,0.01341922
1847.79746338,0.01438446
1849.72627075,0.01397930
1851.65507812,0.01425214
1853.58388550,0.01405747
1855.51269287,0.01410841
1857.44150024,0.01418891
1859.37030762,0.01410274
1861.29911499,0.01400882
1863.22792236,0.01392644
1865.15672974,0.01411820
1867.08553711,0.01357857
1869.01434448,0.01311820
1870.94315186,0.01359228
1872.87195923,0.01393936
1874.80076660,0.01382017
1876.72957397,0.01398775
1878.65838135,0.01388468
1880.58718872,0.01374699
1882.51599609,0.01392078
1884.44480347,0.01371433
1886.37361084,0.01378738
1888.30241821,0.01344075
1890.23122559,0.01327043
1892.16003296,0.01384437
1894.08884033,0.01364736
1896.01764771,0.01360440
1897.94645508,0.01365620
1899.87526245,0.01344554
1901.80406982,0.01353895
1903.73287720,0.01356995
1905.66168457,0.01364427
1907.59049194,0.01339281
1909.51929932,0.01332001
1911.44810669,0.01352062
1913.37691406,0.01343230
1915.30572144,0.01355148
1917.23452881,0.01311777
1919.16333618,0.01299835
1921.09214355,0.01343049
1923.02095093,0.01313275
1924.94975830,0.01331742
1926.87856567,0.01349979
1928.80737305,0.01341342
1930.73618042,0.01348140
1932.66498779,0.01330099
1934.59379517,0.01335313
1936.52260254,0.01332950
1938.45140991,0.01353774
1940.38021729,0.01334012
1942.30902466,0.01283459
1944.23783203,0.01312946
1946.16663940,0.01322117
1948.09544678,0.01321096
1950.02425415,0.01324466
1951.95306152,0.01329809
1953.88186890,0.01335367
1955.81067627,0.01318683
1957.73948364,0.01328655
1959.66829102,0.01331883
1961.59709839,0.01319606
1963.52590576,0.01320482
1965.45471313,0.01308456
1967.38352051,0.01287219
1969.31232788,0.01303639
1971.24113525,0.01310243
1973.16994263,0.01308819
1975.09875000,0.01315028
1977.02755737,0.01301990
1978.95636475,0.01321310
1980.88517212,0.01311174
1982.81397949,0.01313724
1984.74278687,0.01314724
1986.67159424,0.01282179
1988.60040161,0.01306433
1990.52920898,0.01275965
1992.45801636,0.01261880
1994.38682373,0.01287738
1996.31563110,0.01280074
1998.24443848,0.01293271
2000.17324585,0.01285140
2002.10205322,0.01279512
2004.03086060,0.01273718
2005.95966797,0.01276400
2007.88847534,0.01278261
2009.81728271,0.01261218
2011.74609009,0.01273956
2013.67489746,0.01273049
2015.60370483,0.01260739
2017.53251221,0.01255355
2019.46131958,0.01259495
2021.39012695,0.01264818
2023.31893433,0.01251920
2025.24774170,0.01241803
2027.17654907,0.01238840
2029.10535645,0.01242233
2031.03416382,0.01248529
2032.96297119,0.01237946
2034.89177856,0.01221777
2036.82058594,0.01236530
2038.74939331,0.01230650
2040.67820068,0.01210859
2042.60700806,0.01224640
2044.53581543,0.01225005
2046.46462280,0.01221008
2048.39343018,0.01228295
2050.32223755,0.01227986
2052.25104492,0.01219144
2054.17985229,0.01211342
2056.10865967,0.01203123
2058.03746704,0.01205396
2059.96627441,0.01208768
2061.89508179,0.01205471
2063.82388916,0.01200069
2065.75269653,0.01183523
2067.68150391,0.01197060
2069.61031128,0.01186835
2071.53911865,0.01183532
2073.46792603,0.01209308
2075.39673340,0.01187449
2077.32554077,0.01190049
2079.25434814,0.01180490
2081.18315552,0.01177862
2083.11196289,0.01190021
2085.04077026,0.01171095
2086.96957764,0.01173329
2088.89838501,0.01154544
2090.82719238,0.01159843
2092.75599976,0.01167091
2094.68480713,0.01159769
2096.61361450,0.01165070
2098.54242187,0.01147954
2100.47122925,0.01166037
2102.40003662,0.01168714
2104.32884399,0.01159595
2106.25765137,0.01166113
2108.18645874,0.01152684
2110.11526611,0.01150599
2112.04407349,0.01149042
2113.97288086,0.01144278
2115.90168823,0.01135246
2117.83049561,0.01140377
2119.75930298,0.01147814
2121.68811035,0.01136764
2123.61691772,0.01140153
2125.54572510,0.01144541
2127.47453247,0.01138374
2129.40333984,0.01128988
2131.33214722,0.01129509
2133.26095459,0.01135884
2135.18976196,0.01129352
2137.11856934,0.01122698
2139.04737671,0.01123272
2140.97618408,0.01127455
2142.90499146,0.01132888
2144.83379883,0.01124651
2146.76260620,0.01123177
2148.69141357,0.01136181
2150.62022095,0.01122822
2152.54902832,0.01112624
2154.47783569,0.01117165
2156.40664307,0.01115421
2158.33545044,0.01118706
2160.26425781,0.01115532
2162.19306519,0.01114934
2164.12187256,0.01114558
2166.05067993,0.01107353
2167.97948730,0.01109735
2169.90829468,0.01105306
2171.83710205,0.01089660
2173.76590942,0.01101645
2175.69471680,0.01109793
2177.62352417,0.01096386
2179.55233154,0.01104691
2181.48113892,0.01089846
2183.40994629,0.01080939
2185.33875366,0.01099862
2187.26756104,0.01092183
2189.19636841,0.01086897
2191.12517578,0.01080170
2193.05398315,0.01084051
2194.98279053,0.01087097
2196.91159790,0.01068703
2198.84040527,0.01078073
2200.76921265,0.01081472
2202.69802002,0.01071337
2204.62682739,0.01083678
2206.55563477,0.01086210
2208.48444214,0.01077108
2210.41324951,0.01074733
2212.34205688,0.01073556
2214.27086426,0.01079965
2216.19967163,0.01079595
2218.12847900,0.01077897
2220.05728638,0.01079800
2221.98609375,0.01066595
2223.91490112,0.01063014
2225.84370850,0.01066258
2227.77251587,0.01069542
2229.70132324,0.01076462
2231.63013062,0.01076101
2233.55893799,0.01065217
2235.48774536,0.01060151
2237.41655273,0.01073286
2239.34536011,0.01061252
2241.27416748,0.01047079
2243.20297485,0.01051595
2245.13178223,0.01052814
2247.06058960,0.01055165
2248.98939697,0.01044273
2250.91820435,0.01048854
2252.84701172,0.01052191
2254.77581909,0.01040571
2256.70462646,0.01045315
2258.63343384,0.01040598
2260.56224121,0.01032447
2262.49104858,0.01034878
2264.41985596,0.01042959
2266.34866333,0.01048790
2268.27747070,0.01034554
2270.20627808,0.01019951
2272.13508545,0.01029960
2274.06389282,0.01037661
2275.99270020,0.01028675
2277.92150757,0.01022837
2279.85031494,0.01021501
2281.77912231,0.01022471
2283.70792969,0.01019095
2285.63673706,0.01016081
2287.56554443,0.01016757
2289.49435181,0.01019547
2291.42315918,0.01013382
2293.35196655,0.01001271
2295.28077393,0.01009473
2297.20958130,0.01004498
2299.13838867,0.00995693
2301.06719604,0.00995929
2302.99600342,0.00984105
2304.92481079,0.00989403
2306.85361816,0.00987658
2308.78242554,0.00968707
2310.71123291,0.00957277
2312.64004028,0.00945801
2314.56884766,0.00941441
2316.49765503,0.00937944
2318.42646240,0.00917711
2320.35526978,0.00903274
2322.28407715,0.00905070
2324.21288452,0.00890657
2326.14169189,0.00870763
2328.07049927,0.00868194
2329.99930664,0.00865493
2331.92811401,0.00850110
2333.85692139,0.00845580
2335.78572876,0.00860459
2337.71453613,0.00858761
2339.64334351,0.00849433
2341.57215088,0.00854023
2343.50095825,0.00860602
2345.42976562,0.00879781
2347.35857300,0.00919557
2349.28738037,0.00934000
2351.21618774,0.00901953
2353.14499512,0.00865992
2355.07380249,0.00840112
2357.00260986,0.00819840
2358.93141724,0.00802750
2360.86022461,0.00788029
2362.78903198,0.00786653
2364.71783936,0.00801310
2366.64664673,0.00814904
2368.57545410,0.00820973
2370.50426147,0.00840498
2372.43306885,0.00859125
2374.36187622,0.00881981
2376.29068359,0.00913890
2378.21949097,0.00921146
2380.14829834,0.00930283
2382.07710571,0.00943055
2384.00591309,0.00940867
2385.93472046,0.00956626
2387.86352783,0.00962966
2389.79233521,0.00945845
2391.72114258,0.00952217
2393.64994995,0.00953933
2395.57875732,0.00945812
2397.50756470,0.00951074
2399.43637207,0.00950791
2401.36517944,0.00946265
2403.29398682,0.00938731
2405.22279419,0.00946620
2407.15160156,0.00942261
2409.08040894,0.00927314
2411.00921631,0.00937307
2412.93802368,0.00932668
2414.86683105,0.00936327
2416.79563843,0.00944096
2418.72444580,0.00930489
2420.65325317,0.00924637
2422.58206055,0.00929436
2424.51086792,0.00932314
2426.43967529,0.00925380
2428.36848267,0.00928079
2430.29729004,0.00926067
2432.22609741,0.00919491
2434.15490479,0.00924369
2436.08371216,0.00926550
2438.01251953,0.00920062
2439.94132690,0.00918232
2441.87013428,0.00927796
2443.79894165,0.00912764
2445.72774902,0.00908394
2447.65655640,0.00918329
2449.58536377,0.00905392
2451.51417114,0.00900965
2453.44297852,0.00910692
2455.37178589,0.00916088
2457.30059326,0.00905550
2459.22940063,0.00913581
2461.15820801,0.00902911
2463.08701538,0.00884576
2465.01582275,0.00909994
2466.94463013,0.00904753
2468.87343750,0.00905321
2470.80224487,0.00911490
2472.73105225,0.00895916
2474.65985962,0.00896518
2476.58866699,0.00892116
2478.51747437,0.00899572
2480.44628174,0.00900549
2482.37508911,0.00894615
2484.30389648,0.00894255
2486.23270386,0.00880834
2488.16151123,0.00886703
2490.09031860,0.00892927
2492.01912598,0.00875873
2493.94793335,0.00875099
2495.87674072,0.00882664
2497.80554810,0.00873950
2499.73435547,0.00880216
2501.66316284,0.00887765
2503.59197021,0.00875849
2505.52077759,0.00869121
2507.44958496,0.00880796
2509.37839233,0.00887162
2511.30719971,0.00867943
2513.23600708,0.00865191
2515.16481445,0.00865642
2517.09362183,0.00861952
2519.02242920,0.00863186
2520.95123657,0.00855852
2522.88004395,0.00864539
2524.80885132,0.00860371
2526.73765869,0.00861605
2528.66646606,0.00867613
2530.59527344,0.00853956
2532.52408081,0.00856600
2534.45288818,0.00850680
2536.38169556,0.00846645
2538.31050293,0.00849559
2540.23931030,0.00848127
2542.16811768,0.00850892
2544.09692505,0.00850440
2546.02573242,0.00848623
2547.95453979,0.00840969
2549.88334717,0.00852942
2551.81215454,0.00850900
2553.74096191,0.00838331
2555.66976929,0.00849918
2557.59857666,0.00833721
2559.52738403,0.00832644
2561.45619141,0.00849815
2563.38499878,0.00836553
2565.31380615,0.00829495
2567.24261353,0.00829298
2569.17142090,0.00830524
2571.10022827,0.00836063
2573.02903564,0.00832226
2574.95784302,0.00819983
2576.88665039,0.00825548
2578.81545776,0.00837968
2580.74426514,0.00825501
2582.67307251,0.00827647
2584.60187988,0.00832461
2586.53068726,0.00819086
2588.45949463,0.00824402
2590.38830200,0.00822592
2592.31710937,0.00813203
2594.24591675,0.00822850
2596.17472412,0.00824042
2598.10353149,0.00813019
2600.03233887,0.00814782
2601.96114624,0.00819772
2603.88995361,0.00812720
2605.81876099,0.00810319
2607.74756836,0.00817780
2609.67637573,0.00814676
2611.60518311,0.00798610
2613.53399048,0.00801076
2615.46279785,0.00810099
2617.39160522,0.00802364
2619.32041260,0.00806754
2621.24921997,0.00810233
2623.17802734,0.00800608
2625.10683472,0.00797638
2627.03564209,0.00798306
2628.96444946,0.00797240
2630.89325684,0.00793252
2632.82206421,0.00794432
2634.75087158,0.00794094
2636.67967895,0.00789566
2638.60848633,0.00793644
2640.53729370,0.00797618
2642.46610107,0.00793895
2644.39490845,0.00791901
2646.32371582,0.00796557
2648.25252319,0.00797578
2650.18133057,0.00785639
2652.11013794,0.00776567
2654.03894531,0.00784066
2655.96775269,0.00780679
2657.89656006,0.00773132
2659.82536743,0.00781971
2661.75417480,0.00782778
2663.68298218,0.00778456
2665.61178955,0.00782856
2667.54059692,0.00785263
2669.46940430,0.00775477
2671.39821167,0.00774592
2673.32701904,0.00775534
2675.25582642,0.00767624
2677.18463379,0.00773533
2679.11344116,0.00771796
2681.04224854,0.00770002
2682.97105591,0.00768717
2684.89986328,0.00765084
2686.82867065,0.00763216
2688.75747803,0.00751540
2690.68628540,0.00763461
2692.61509277,0.00761212
2694.54390015,0.00750794
2696.47270752,0.00764139
2698.40151489,0.00759329
2700.33032227,0.00750264
2702.25912964,0.00747398
2704.18793701,0.00752893
2706.11674438,0.00752716
2708.04555176,0.00755140
2709.97435913,0.00760080
2711.90316650,0.00741528
2713.83197388,0.00739428
2715.76078125,0.00746845
2717.68958862,0.00746813
2719.61839600,0.00746138
2721.54720337,0.00748586
2723.47601074,0.00746033
2725.40481812,0.00738429
2727.33362549,0.00742078
2729.26243286,0.00732126
2731.19124023,0.00736699
2733.12004761,0.00740452
2735.04885498,0.00727813
2736.97766235,0.00737361
2738.90646973,0.00735204
2740.83527710,0.00729452
2742.76408447,0.00730718
2744.69289185,0.00740843
2746.62169922,0.00746713
2748.55050659,0.00728934
2750.47931396,0.00722232
2752.40812134,0.00717003
2754.33692871,0.00719990
2756.26573608,0.00723806
2758.19454346,0.00716358
2760.12335083,0.00721880
2762.05215820,0.00718967
2763.98096558,0.00712458
2765.90977295,0.00710882
2767.83858032,0.00708096
2769.76738770,0.00714335
2771.69619507,0.00715891
2773.62500244,0.00705796
2775.55380981,0.00707927
2777.48261719,0.00712476
2779.41142456,0.00700623
2781.34023193,0.00700041
2783.26903931,0.00701159
2785.19784668,0.00697572
2787.12665405,0.00701366
2789.05546143,0.00693773
2790.98426880,0.00689404
2792.91307617,0.00696819
2794.84188354,0.00697617
2796.77069092,0.00690070
2798.69949829,0.00690578
2800.62830566,0.00697415
2802.55711304,0.00691955
2804.48592041,0.00684075
2806.41472778,0.00684812
2808.34353516,0.00685856
2810.27234253,0.00682178
2812.20114990,0.00684970
2814.12995728,0.00681979
2816.05876465,0.00671264
2817.98757202,0.00675870
2819.91637939,0.00675513
2821.84518677,0.00668324
2823.77399414,0.00670189
2825.70280151,0.00673980
2827.63160889,0.00675982
2829.56041626,0.00675436
2831.48922363,0.00665710
2833.41803101,0.00659076
2835.34683838,0.00669536
2837.27564575,0.00665341
2839.20445312,0.00658894
2841.13326050,0.00658184
2843.06206787,0.00652174
2844.99087524,0.00656790
2846.91968262,0.00643132
2848.84848999,0.00637743
2850.77729736,0.00646737
2852.70610474,0.00644539
2854.63491211,0.00649732
2856.56371948,0.00639061
2858.49252686,0.00632837
2860.42133423,0.00638712
2862.35014160,0.00635425
2864.27894897,0.00634530
2866.20775635,0.00633171
2868.13656372,0.00640247
2870.06537109,0.00645701
2871.99417847,0.00638509
2873.92298584,0.00631679
2875.85179321,0.00631129
2877.78060059,0.00631848
2879.70940796,0.00630985
2881.63821533,0.00630877
2883.56702270,0.00628218
2885.49583008,0.00624279
2887.42463745,0.00618777
2889.35344482,0.00614068
2891.28225220,0.00615754
2893.21105957,0.00622973
2895.13986694,0.00623803
2897.06867432,0.00624093
2898.99748169,0.00623089
2900.92628906,0.00615778
2902.85509644,0.00614157
2904.78390381,0.00608809
2906.71271118,0.00613778
2908.64151855,0.00604219
2910.57032593,0.00589299
2912.49913330,0.00606086
2914.42794067,0.00594999
2916.35674805,0.00582171
2918.28555542,0.00588979
2920.21436279,0.00586402
2922.14317017,0.00591011
2924.07197754,0.00592345
2926.00078491,0.00585265
2927.92959229,0.00582614
2929.85839966,0.00590053
2931.78720703,0.00588846
2933.71601440,0.00590017
2935.64482178,0.00590318
2937.57362915,0.00580143
2939.50243652,0.00583021
2941.43124390,0.00590256
2943.36005127,0.00595002
2945.28885864,0.00585804
2947.21766602,0.00590934
2949.14647339,0.00590139
2951.07528076,0.00573893
2953.00408813,0.00582470
2954.93289551,0.00573809
2956.86170288,0.00577562
2958.79051025,0.00583837
2960.71931763,0.00573497
2962.64812500,0.00579465
2964.57693237,0.00579279
2966.50573975,0.00575814
2968.43454712,0.00559123
2970.36335449,0.00562378
2972.29216187,0.00576088
2974.22096924,0.00571866
2976.14977661,0.00566622
2978.07858398,0.00555908
2980.00739136,0.00574305
2981.93619873,0.00575104
2983.86500610,0.00560292
2985.79381348,0.00573616
2987.72262085,0.00570508
2989.65142822,0.00570864
2991.58023560,0.00569484
2993.50904297,0.00554119
2995.43785034,0.00558299
2997.36665771,0.00559260
2999.29546509,0.00555760
3001.22427246,0.00561336
3003.15307983,0.00554044
3005.08188721,0.00558667
3007.01069458,0.00563867
3008.93950195,0.00549367
3010.86830933,0.00551176
3012.79711670,0.00551647
3014.72592407,0.00553968
3016.65473145,0.00554320
3018.58353882,0.00545407
3020.51234619,0.00552287
3022.44115356,0.00554764
3024.36996094,0.00554031
3026.29876831,0.00553757
3028.22757568,0.00548885
3030.15638306,0.00538210
3032.08519043,0.00534029
3034.01399780,0.00540902
3035.94280518,0.00537910
3037.87161255,0.00535998
3039.80041992,0.00538839
3041.72922729,0.00538576
3043.65803467,0.00529043
3045.58684204,0.00527396
3047.51564941,0.00527399
3049.44445679,0.00525930
3051.37326416,0.00535401
3053.30207153,0.00524570
3055.23087891,0.00525342
3057.15968628,0.00522476
3059.08849365,0.00506255
3061.01730103,0.00521621
3062.94610840,0.00521176
3064.87491577,0.00513540
3066.80372314,0.00519856
3068.73253052,0.00519195
3070.66133789,0.00516905
3072.59014526,0.00517643
3074.51895264,0.00519398
3076.44776001,0.00507311
3078.37656738,0.00502773
3080.30537476,0.00516636
3082.23418213,0.00519970
3084.16298950,0.00513651
3086.09179687,0.00510933
3088.02060425,0.00512036
3089.94941162,0.00510668
3091.87821899,0.00505478
3093.80702637,0.00514698
3095.73583374,0.00518923
3097.66464111,0.00501480
3099.59344849,0.00498774
3101.52225586,0.00500499
3103.45106323,0.00500919
3105.37987061,0.00505558
3107.30867798,0.00496542
3109.23748535,0.00488879
3111.16629272,0.00493870
3113.09510010,0.00491976
3115.02390747,0.00481589
3116.95271484,0.00493225
3118.88152222,0.00493579
3120.81032959,0.00482963
3122.73913696,0.00489945
3124.66794434,0.00485703
3126.59675171,0.00486731
3128.52555908,0.00484286
3130.45436645,0.00485830
3132.38317383,0.00488569
3134.31198120,0.00481798
3136.24078857,0.00489139
3138.16959595,0.00476433
3140.09840332,0.00473106
3142.02721069,0.00473423
3143.95601807,0.00460740
3145.88482544,0.00466850
3147.81363281,0.00461644
3149.74244019,0.00461805
3151.67124756,0.00461536
3153.60005493,0.00455167
3155.52886230,0.00462888
3157.45766968,0.00458241
3159.38647705,0.00454487
3161.31528442,0.00459109
3163.24409180,0.00457843
3165.17289917,0.00450935
3167.10170654,0.00441743
3169.03051392,0.00453242
3170.95932129,0.00462332
3172.88812866,0.00445776
3174.81693604,0.00449119
3176.74574341,0.00446673
3178.67455078,0.00430880
3180.60335815,0.00440028
3182.53216553,0.00439779
3184.46097290,0.00442966
3186.38978027,0.00450540
3188.31858765,0.00444393
3190.24739502,0.00436676
3192.17620239,0.00425952
3194.10500977,0.00426291
3196.03381714,0.00430325
3197.96262451,0.00433974
3199.89143188,0.00429797
3201.82023926,0.00423913
3203.74904663,0.00425792
3205.67785400,0.00426419
3207.60666138,0.00430968
3209.53546875,0.00421850
3211.46427612,0.00419877
3213.39308350,0.00429027
3215.32189087,0.00422634
3217.25069824,0.00415127
3219.17950562,0.00414382
3221.10831299,0.00424446
3223.03712036,0.00423913
3224.96592773,0.00413223
3226.89473511,0.00419837
3228.82354248,0.00420090
3230.75234985,0.00413860
3232.68115723,0.00419568
3234.60996460,0.00414930
3236.53877197,0.00416034
3238.46757935,0.00419258
3240.39638672,0.00405628
3242.32519409,0.00408168
3244.25400146,0.00407471
3246.18280884,0.00403473
3248.11161621,0.00407844
3250.04042358,0.00406898
3251.96923096,0.00407537
3253.89803833,0.00406177
3255.82684570,0.00412909
3257.75565308,0.00409238
3259.68446045,0.00407197
3261.61326782,0.00414788
3263.54207520,0.00409274
3265.47088257,0.00405959
3267.39968994,0.00405183
3269.32849731,0.00411525
3271.25730469,0.00409209
3273.18611206,0.00410458
3275.11491943,0.00412643
3277.04372681,0.00403743
3278.97253418,0.00405263
3280.90134155,0.00399569
3282.83014893,0.00407261
3284.75895630,0.00411377
3286.68776367,0.00409631
3288.61657104,0.00415089
3290.54537842,0.00405884
3292.47418579,0.00404797
3294.40299316,0.00402423
3296.33180054,0.00405052
3298.26060791,0.00406127
3300.18941528,0.00405252
3302.11822266,0.00405576
3304.04703003,0.00400278
3305.97583740,0.00403510
3307.90464478,0.00393209
3309.83345215,0.00401621
3311.76225952,0.00409598
3313.69106689,0.00398800
3315.61987427,0.00403006
3317.54868164,0.00403360
3319.47748901,0.00402526
3321.40629639,0.00399676
3323.33510376,0.00404794
3325.26391113,0.00399884
3327.19271851,0.00394198
3329.12152588,0.00401093
3331.05033325,0.00395481
3332.97914062,0.00399299
3334.90794800,0.00399082
3336.83675537,0.00396648
3338.76556274,0.00394051
3340.69437012,0.00396087
3342.62317749,0.00400473
3344.55198486,0.00399582
3346.48079224,0.00405544
3348.40959961,0.00389170
3350.33840698,0.00388800
3352.26721436,0.00394608
3354.19602173,0.00387927
3356.12482910,0.00391977
3358.05363647,0.00392769
3359.98244385,0.00398456
3361.91125122,0.00384894
3363.84005859,0.00392073
3365.76886597,0.00402798
3367.69767334,0.00382612
3369.62648071,0.00384881
3371.55528809,0.00385857
3373.48409546,0.00387167
3375.41290283,0.00389940
3377.34171020,0.00386330
3379.27051758,0.00378761
3381.19932495,0.00381753
3383.12813232,0.00392837
3385.05693970,0.00381810
3386.98574707,0.00388363
3388.91455444,0.00388843
3390.84336182,0.00385521
3392.77216919,0.00395696
3394.70097656,0.00384355
3396.62978394,0.00376710
3398.55859131,0.00374553
3400.48739868,0.00376441
3402.41620605,0.00370920
3404.34501343,0.00370911
3406.27382080,0.00376166
3408.20262817,0.00369316
3410.13143555,0.00376062
3412.06024292,0.00368595
3413.98905029,0.00369074
3415.91785767,0.00378929
3417.84666504,0.00377817
3419.77547241,0.00382985
3421.70427979,0.00372837
3423.63308716,0.00373122
3425.56189453,0.00369744
3427.49070190,0.00362543
3429.41950928,0.00374655
3431.34831665,0.00372839
3433.27712402,0.00366858
3435.20593140,0.00360856
3437.13473877,0.00366297
3439.06354614,0.00370906
3440.99235352,0.00364176
3442.92116089,0.00365539
3444.84996826,0.00356150
3446.77877563,0.00358654
3448.70758301,0.00361014
3450.63639038,0.00354759
3452.56519775,0.00363767
3454.49400513,0.00360385
3456.42281250,0.00360272
3458.35161987,0.00357443
3460.28042725,0.00352003
3462.20923462,0.00359299
3464.13804199,0.00349188
3466.06684937,0.00349050
3467.99565674,0.00357715
3469.92446411,0.00355201
3471.85327148,0.00356733
3473.78207886,0.00357279
3475.71088623,0.00361773
3477.63969360,0.00358856
3479.56850098,0.00349899
3481.49730835,0.00348230
3483.42611572,0.00349035
3485.35492310,0.00354973
3487.28373047,0.00353680
3489.21253784,0.00348338
3491.14134521,0.00351020
3493.07015259,0.00351745
3494.99895996,0.00349448
3496.92776733,0.00350357
3498.85657471,0.00355740
3500.78538208,0.00354405
3502.71418945,0.00344256
3504.64299683,0.00348618
3506.57180420,0.00350558
3508.50061157,0.00343249
3510.42941895,0.00355852
3512.35822632,0.00355355
3514.28703369,0.00347669
3516.21584106,0.00350031
3518.14464844,0.00345159
3520.07345581,0.00355677
3522.00226318,0.00351716
3523.93107056,0.00342735
3525.85987793,0.00346102
3527.78868530,0.00337002
3529.71749268,0.00345848
3531.64630005,0.00347803
3533.57510742,0.00345516
3535.50391479,0.00352083
3537.43272217,0.00348154
3539.36152954,0.00354689
3541.29033691,0.00349227
3543.21914429,0.00346124
3545.14795166,0.00341783
3547.07675903,0.00329067
3549.00556641,0.00349836
3550.93437378,0.00351319
3552.86318115,0.00340877
3554.79198853,0.00348892
3556.72079590,0.00340289
3558.64960327,0.00344619
3560.57841064,0.00348084
3562.50721802,0.00341877
3564.43602539,0.00349893
3566.36483276,0.00321701
3568.29364014,0.00308708
3570.22244751,0.00349646
3572.15125488,0.00349599
3574.08006226,0.00340771
3576.00886963,0.00346712
3577.93767700,0.00336177
3579.86648437,0.00347901
3581.79529175,0.00349265
3583.72409912,0.00344453
3585.65290649,0.00342217
3587.58171387,0.00318459
3589.51052124,0.00330159
3591.43932861,0.00349747
3593.36813599,0.00335669
3595.29694336,0.00333223
3597.22575073,0.00342976
3599.15455811,0.00338246
3601.08336548,0.00340567
3603.01217285,0.00351417
3604.94098022,0.00352074
3606.86978760,0.00337526
3608.79859497,0.00309533
3610.72740234,0.00333430
3612.65620972,0.00340183
3614.58501709,0.00316490
3616.51382446,0.00348826
3618.44263184,0.00322004
3620.37143921,0.00311868
3622.30024658,0.00340241
3624.22905395,0.00333190
3626.15786133,0.00355616
3628.08666870,0.00298950
3630.01547607,0.00278519
3631.94428345,0.00345749
3633.87309082,0.00346688
3635.80189819,0.00343650
3637.73070557,0.00345314
3639.65951294,0.00353729
3641.58832031,0.00346653
3643.51712769,0.00344145
3645.44593506,0.00349186
3647.37474243,0.00311443
3649.30354980,0.00292343
3651.23235718,0.00294292
3653.16116455,0.00341718
3655.08997192,0.00335896
3657.01877930,0.00309469
3658.94758667,0.00349137
3660.87639404,0.00333826
3662.80520142,0.00345473
3664.73400879,0.00341680
3666.66281616,0.00337495
3668.59162354,0.00334855
3670.52043091,0.00278579
3672.44923828,0.00332336
3674.37804565,0.00309143
3676.30685303,0.00266612
3678.23566040,0.00338471
3680.16446777,0.00329897
3682.09327515,0.00327120
3684.02208252,0.00344279
3685.95088989,0.00338773
3687.87969727,0.00302918
3689.80850464,0.00283326
3691.73731201,0.00323501
3693.66611938,0.00333273
3695.59492676,0.00338261
3697.52373413,0.00335621
3699.45254150,0.00347091
3701.38134888,0.00330607
3703.31015625,0.00310424
3705.23896362,0.00343227
3707.16777100,0.00319055
3709.09657837,0.00318474
3711.02538574,0.00304040
3712.95419312,0.00288928
3714.88300049,0.00329052
3716.81180786,0.00320879
3718.74061523,0.00331705
3720.66942261,0.00318335
3722.59822998,0.00306966
3724.52703735,0.00314180
3726.45584473,0.00295648
3728.38465210,0.00329461
3730.31345947,0.00326690
3732.24226685,0.00297625
3734.17107422,0.00294540
3736.09988159,0.00291335
3738.02868896,0.00290108
3739.95749634,0.00315295
3741.88630371,0.00331270
3743.81511108,0.00247897
3745.74391846,0.00246044
3747.67272583,0.00313492
3749.60153320,0.00276482
3751.53034058,0.00265108
3753.45914795,0.00294725
3755.38795532,0.00311310
3757.31676270,0.00313884
3759.24557007,0.00292877
3761.17437744,0.00309358
3763.10318481,0.00325910
3765.03199219,0.00305818
3766.96079956,0.00300975
3768.88960693,0.00293577
3770.81841431,0.00296634
3772.74722168,0.00315695
3774.67602905,0.00323188
3776.60483643,0.00329462
3778.53364380,0.00304995
3780.46245117,0.00302930
3782.39125854,0.00321956
3784.32006592,0.00306428
3786.24887329,0.00303681
3788.17768066,0.00310390
3790.10648804,0.00308854
3792.03529541,0.00307861
3793.96410278,0.00324627
3795.89291016,0.00301911
3797.82171753,0.00296077
3799.75052490,0.00308553
3801.67933228,0.00247361
3803.60813965,0.00289601
3805.53694702,0.00308014
3807.46575439,0.00261495
3809.39456177,0.00305232
3811.32336914,0.00307251
3813.25217651,0.00316467
3815.18098389,0.00273472
3817.10979126,0.00249213
3819.03859863,0.00304803
3820.96740601,0.00255724
3822.89621338,0.00270434
3824.82502075,0.00306980
3826.75382812,0.00280069
3828.68263550,0.00292245
3830.61144287,0.00283187
3832.54025024,0.00277360
3834.46905762,0.00292372
3836.39786499,0.00281928
3838.32667236,0.00252704
3840.25547974,0.00267581
3842.18428711,0.00283452
3844.11309448,0.00277909
3846.04190186,0.00301228
3847.97070923,0.00290361
3849.89951660,0.00289484
3851.82832397,0.00267971
3853.75713135,0.00202535
3855.68593872,0.00243467
3857.61474609,0.00293606
3859.54355347,0.00274169
3861.47236084,0.00284415
3863.40116821,0.00278275
3865.32997559,0.00266211
3867.25878296,0.00290844
3869.18759033,0.00260108
3871.11639770,0.00247124
3873.04520508,0.00280328
3874.97401245,0.00266618
3876.90281982,0.00284957
3878.83162720,0.00280768
3880.76043457,0.00246588
3882.68924194,0.00282463
3884.61804932,0.00268500
3886.54685669,0.00252598
3888.47566406,0.00289223
3890.40447144,0.00271376
3892.33327881,0.00254097
3894.26208618,0.00266354
3896.19089355,0.00282944
3898.11970093,0.00271183
3900.04850830,0.00246246
3901.97731567,0.00260496
3903.90612305,0.00247640
3905.83493042,0.00249830
3907.76373779,0.00284356
3909.69254517,0.00273723
3911.62135254,0.00270459
3913.55015991,0.00275384
3915.47896728,0.00263112
3917.40777466,0.00262008
3919.33658203,0.00264522
3921.26538940,0.00264689
3923.19419678,0.00264788
3925.12300415,0.00259494
3927.05181152,0.00264924
3928.98061890,0.00269200
3930.90942627,0.00255099
3932.83823364,0.00260933
3934.76704102,0.00270745
3936.69584839,0.00267314
3938.62465576,0.00267452
3940.55346313,0.00268548
3942.48227051,0.00262133
3944.41107788,0.00253736
3946.33988525,0.00266412
3948.26869263,0.00262385
3950.19750000,0.00263480
3952.12630737,0.00276897
3954.05511475,0.00258159
3955.98392212,0.00253947
3957.91272949,0.00258204
3959.84153687,0.00262141
3961.77034424,0.00264153
3963.69915161,0.00256654
3965.62795898,0.00259427
3967.55676636,0.00258900
3969.48557373,0.00255852
3971.41438110,0.00253706
3973.34318848,0.00259292
3975.27199585,0.00260064
3977.20080322,0.00257307
3979.12961060,0.00259804
3981.05841797,0.00256567
3982.98722534,0.00250814
3984.91603271,0.00249379
3986.84484009,0.00259492
3988.77364746,0.00253741
3990.70245483,0.00251423
3992.63126221,0.00254620
3994.56006958,0.00252518
3996.48887695,0.00260148
3998.41768433,0.00255215
4000.34649170,0.00258160
4002.27529907,0.00255367
4004.20410645,0.00251726
4006.13291382,0.00250726
4008.06172119,0.00241047
4009.99052856,0.00249039
4011.91933594,0.00254651
4013.84814331,0.00259892
4015.77695068,0.00249401
4017.70575806,0.00240945
4019.63456543,0.00245610
4021.56337280,0.00247058
4023.49218018,0.00249218
4025.42098755,0.00240261
4027.34979492,0.00250637
4029.27860229,0.00243039
4031.20740967,0.00238495
4033.13621704,0.00253095
4035.06502441,0.00242904
4036.99383179,0.00245173
4038.92263916,0.00241242
4040.85144653,0.00244161
4042.78025391,0.00248738
4044.70906128,0.00244126
4046.63786865,0.00245636
4048.56667603,0.00236250
4050.49548340,0.00240762
4052.42429077,0.00239391
4054.35309814,0.00239744
4056.28190552,0.00244915
4058.21071289,0.00236984
4060.13952026,0.00232781
4062.06832764,0.00233111
4063.99713501,0.00238023
4065.92594238,0.00234382
4067.85474976,0.00238341
4069.78355713,0.00238034
4071.71236450,0.00231298
4073.64117187,0.00236301
4075.56997925,0.00238279
4077.49878662,0.00240509
4079.42759399,0.00230415
4081.35640137,0.00228843
4083.28520874,0.00235627
4085.21401611,0.00232212
4087.14282349,0.00236317
4089.07163086,0.00229689
4091.00043823,0.00222680
4092.92924561,0.00233830
4094.85805298,0.00237428
4096.78686035,0.00229703
4098.71566772,0.00225972
4100.64447510,0.00230404
4102.57328247,0.00233034
4104.50208984,0.00224113
4106.43089722,0.00225191
4108.35970459,0.00229456
4110.28851196,0.00225926
4112.21731934,0.00227887
4114.14612671,0.00223403
4116.07493408,0.00224420
4118.00374145,0.00220091
4119.93254883,0.00218868
4121.86135620,0.00225637
4123.79016357,0.00220127
4125.71897095,0.00227054
4127.64777832,0.00220589
4129.57658569,0.00223769
4131.50539307,0.00228459
4133.43420044,0.00209776
4135.36300781,0.00218134
4137.29181519,0.00215484
4139.22062256,0.00218756
4141.14942993,0.00224693
4143.07823730,0.00210496
4145.00704468,0.00219767
4146.93585205,0.00216313
4148.86465942,0.00212516
4150.79346680,0.00214360
4152.72227417,0.00205732
4154.65108154,0.00215697
4156.57988892,0.00220330
4158.50869629,0.00215114
4160.43750366,0.00217179
4162.36631103,0.00217105
4164.29511841,0.00208785
4166.22392578,0.00207964
4168.15273315,0.00212070
4170.08154053,0.00206091
4172.01034790,0.00207000
4173.93915527,0.00208727
4175.86796265,0.00212759
4177.79677002,0.00214345
4179.72557739,0.00206782
4181.65438477,0.00222235
4183.58319214,0.00219857
4185.51199951,0.00197777
4187.44080688,0.00205496
4189.36961426,0.00211764
4191.29842163,0.00213011
4193.22722900,0.00212101
4195.15603638,0.00207369
4197.08484375,0.00209260
4199.01365112,0.00206535
4200.94245850,0.00206025
4202.87126587,0.00207802
4204.80007324,0.00203304
4206.72888062,0.00194092
4208.65768799,0.00202030
4210.58649536,0.00207669
4212.51530273,0.00198608
4214.44411011,0.00205946
4216.37291748,0.00206072
4218.30172485,0.00205786
4220.23053223,0.00205577
4222.15933960,0.00198853
4224.08814697,0.00199178
4226.01695435,0.00191784
4227.94576172,0.00197702
4229.87456909,0.00199369
4231.80337646,0.00195131
4233.73218384,0.00197904
4235.66099121,0.00197234
4237.58979858,0.00205968
4239.51860596,0.00190792
4241.44741333,0.00186788
4243.37622070,0.00200686
4245.30502808,0.00186440
4247.23383545,0.00192518
4249.16264282,0.00193746
4251.09145020,0.00183582
4253.02025757,0.00194589
4254.94906494,0.00190542
4256.87787231,0.00194127
4258.80667969,0.00196948
4260.73548706,0.00188657
4262.66429443,0.00196051
4264.59310181,0.00187598
4266.52190918,0.00186129
4268.45071655,0.00198743
4270.37952393,0.00191741
4272.30833130,0.00182733
4274.23713867,0.00190172
4276.16594604,0.00200990
4278.09475342,0.00187366
4280.02356079,0.00182517
4281.95236816,0.00189396
4283.88117554,0.00187291
4285.80998291,0.00190572
4287.73879028,0.00184527
4289.66759766,0.00186876
4291.59640503,0.00188628
4293.52521240,0.00181513
4295.45401978,0.00184881
4297.38282715,0.00186258
4299.31163452,0.00185558
4301.24044189,0.00180202
4303.16924927,0.00180742
4305.09805664,0.00185141
4307.02686401,0.00186096
4308.95567139,0.00184462
4310.88447876,0.00185680
4312.81328613,0.00185412
4314.74209351,0.00174008
4316.67090088,0.00177522
4318.59970825,0.00172895
4320.52851562,0.00170821
4322.45732300,0.00180000
4324.38613037,0.00174502
4326.31493774,0.00182181
4328.24374512,0.00176624
4330.17255249,0.00171033
4332.10135986,0.00182125
4334.03016724,0.00177523
4335.95897461,0.00171187
4337.88778198,0.00171394
4339.81658936,0.00178677
4341.74539673,0.00178790
4343.67420410,0.00178009
4345.60301147,0.00175525
4347.53181885,0.00167992
4349.46062622,0.00173069
4351.38943359,0.00176714
4353.31824097,0.00179071
4355.24704834,0.00176006
4357.17585571,0.00174326
4359.10466309,0.00176329
4361.03347046,0.00172024
4362.96227783,0.00175694
4364.89108520,0.00173766
4366.81989258,0.00164783
4368.74869995,0.00167031
4370.67750732,0.00173154
4372.60631470,0.00165505
4374.53512207,0.00166883
4376.46392944,0.00178862
4378.39273682,0.00168729
4380.32154419,0.00164225
4382.25035156,0.00167021
4384.17915894,0.00167740
4386.10796631,0.00167679
4388.03677368,0.00164263
4389.96558105,0.00173633
4391.89438843,0.00164464
4393.82319580,0.00154157
4395.75200317,0.00158822
4397.68081055,0.00158298
4399.60961792,0.00168714
4401.53842529,0.00164739
4403.46723267,0.00159731
4405.39604004,0.00161418
4407.32484741,0.00157663
4409.25365478,0.00165601
4411.18246216,0.00163352
4413.11126953,0.00159842
4415.04007690,0.00156837
4416.96888428,0.00162521
4418.89769165,0.00169497
4420.82649902,0.00155090
4422.75530640,0.00159089
4424.68411377,0.00161688
4426.61292114,0.00162459
4428.54172852,0.00166492
4430.47053589,0.00158867
4432.39934326,0.00163705
4434.32815063,0.00159126
4436.25695801,0.00161195
4438.18576538,0.00163505
4440.11457275,0.00153118
4442.04338013,0.00161795
4443.97218750,0.00162257
4445.90099487,0.00159169
4447.82980225,0.00159238
4449.75860962,0.00148141
4451.68741699,0.00149228
4453.61622437,0.00157337
4455.54503174,0.00148506
4457.47383911,0.00150470
4459.40264648,0.00160134
4461.33145386,0.00145594
4463.26026123,0.00152081
4465.18906860,0.00161022
4467.11787598,0.00146347
4469.04668335,0.00149033
4470.97549072,0.00148833
4472.90429810,0.00148356
4474.83310547,0.00152190
4476.76191284,0.00148007
4478.69072021,0.00154347
4480.61952759,0.00159582
4482.54833496,0.00153073
4484.47714233,0.00146908
4486.40594971,0.00147047
4488.33475708,0.00146933
4490.26356445,0.00148315
4492.19237183,0.00148974
4494.12117920,0.00144416
4496.04998657,0.00148454
4497.97879395,0.00149330
4499.90760132,0.00148090
4501.83640869,0.00154066
4503.76521606,0.00147279
4505.69402344,0.00144284
4507.62283081,0.00150487
4509.55163818,0.00147037
4511.48044556,0.00145722
4513.40925293,0.00145956
4515.33806030,0.00145062
4517.26686768,0.00146947
4519.19567505,0.00143511
4521.12448242,0.00139582
4523.05328979,0.00141951
4524.98209717,0.00142445
4526.91090454,0.00142243
4528.83971191,0.00142329
4530.76851929,0.00143956
4532.69732666,0.00147959
4534.62613403,0.00138359
4536.55494141,0.00142698
4538.48374878,0.00150815
4540.41255615,0.00136727
4542.34136353,0.00140377
4544.27017090,0.00135994
4546.19897827,0.00132907
4548.12778564,0.00142648
4550.05659302,0.00132790
4551.98540039,0.00139518
4553.91420776,0.00140991
4555.84301514,0.00130532
4557.77182251,0.00133406
4559.70062988,0.00139199
4561.62943726,0.00148961
4563.55824463,0.00142966
4565.48705200,0.00135647
4567.41585937,0.00140431
4569.34466675,0.00137324
4571.27347412,0.00132556
4573.20228149,0.00131719
4575.13108887,0.00125711
4577.05989624,0.00130943
4578.98870361,0.00140406
4580.91751099,0.00131639
4582.84631836,0.00130934
4584.77512573,0.00129472
4586.70393311,0.00129236
4588.63274048,0.00135228
4590.56154785,0.00129494
4592.49035522,0.00134355
4594.41916260,0.00139541
4596.34796997,0.00131122
4598.27677734,0.00124518
4600.20558472,0.00134420
4602.13439209,0.00135404
4604.06319946,0.00128957
4605.99200684,0.00138191
4607.92081421,0.00129327
4609.84962158,0.00127543
4611.77842895,0.00132864
4613.70723633,0.00122163
4615.63604370,0.00123947
4617.56485107,0.00128965
4619.49365845,0.00124348
4621.42246582,0.00121536
4623.35127319,0.00129680
4625.28008057,0.00123117
4627.20888794,0.00117022
4629.13769531,0.00125856
4631.06650269,0.00124398
4632.99531006,0.00124886
4634.92411743,0.00120799
4636.85292480,0.00119272
4638.78173218,0.00123589
4640.71053955,0.00126320
4642.63934692,0.00127382
4644.56815430,0.00119937
4646.49696167,0.00122607
4648.42576904,0.00124686
4650.35457642,0.00121843
4652.28338379,0.00121196
4654.21219116,0.00119109
4656.14099853,0.00123522
4658.06980591,0.00128379
4659.99861328,0.00127455
4661.92742065,0.00122138
4663.85622803,0.00119624
4665.78503540,0.00118980
4667.71384277,0.00116460
4669.64265015,0.00118048
4671.57145752,0.00124816
4673.50026489,0.00122976
4675.42907227,0.00119474
4677.35787964,0.00124188
4679.28668701,0.00123688
4681.21549438,0.00125322
4683.14430176,0.00119153
4685.07310913,0.00111427
4687.00191650,0.00116803
4688.93072388,0.00116438
4690.85953125,0.00111855
4692.78833862,0.00111478
4694.71714600,0.00121495
4696.64595337,0.00123430
4698.57476074,0.00116077
4700.50356812,0.00118266
4702.43237549,0.00121988
4704.36118286,0.00118742
4706.28999023,0.00113387
4708.21879761,0.00118088
4710.14760498,0.00118502
4712.07641235,0.00118874
4714.00521973,0.00118007
4715.93402710,0.00114122
4717.86283447,0.00117158
4719.79164185,0.00111329
4721.72044922,0.00114771
4723.64925659,0.00115794
4725.57806396,0.00112386
4727.50687134,0.00113338
4729.43567871,0.00110781
4731.36448608,0.00119508
4733.29329346,0.00110170
4735.22210083,0.00105781
4737.15090820,0.00116338
4739.07971558,0.00113794
4741.00852295,0.00114925
4742.93733032,0.00109595
4744.86613770,0.00110846
4746.79494507,0.00116584
4748.72375244,0.00111890
4750.65255981,0.00106243
4752.58136719,0.00103124
4754.51017456,0.00110261
4756.43898193,0.00112392
4758.36778931,0.00114726
4760.29659668,0.00117714
4762.22540405,0.00108269
4764.15421143,0.00104499
4766.08301880,0.00106449
4768.01182617,0.00110531
4769.94063354,0.00116515
4771.86944092,0.00114816
4773.79824829,0.00110484
4775.72705566,0.00103694
4777.65586304,0.00099937
4779.58467041,0.00107690
4781.51347778,0.00110956
4783.44228516,0.00105070
4785.37109253,0.00097389
4787.29989990,0.00105538
4789.22870728,0.00115597
4791.15751465,0.00104276
4793.08632202,0.00105636
4795.01512939,0.00104701
4796.94393677,0.00101162
4798.87274414,0.00109140
4800.80155151,0.00097199
4802.73035889,0.00100251
4804.65916626,0.00107185
4806.58797363,0.00098578
4808.51678101,0.00103733
4810.44558838,0.00105079
4812.37439575,0.00105455
4814.30320312,0.00102006
4816.23201050,0.00098178
4818.16081787,0.00104856
4820.08962524,0.00102079
4822.01843262,0.00100917
4823.94723999,0.00105698
4825.87604736,0.00100506
4827.80485474,0.00096983
4829.73366211,0.00100548
4831.66246948,0.00096719
4833.59127686,0.00096943
4835.52008423,0.00096213
4837.44889160,0.00095397
4839.37769897,0.00105700
4841.30650635,0.00100382
4843.23531372,0.00098655
4845.16412109,0.00096887
4847.09292847,0.00092974
4849.02173584,0.00105341
4850.95054321,0.00102332
4852.87935059,0.00097225
4854.80815796,0.00091466
4856.73696533,0.00094053
4858.66577270,0.00099758
4860.59458008,0.00091642
4862.52338745,0.00098624
4864.45219482,0.00095374
4866.38100220,0.00099458
4868.30980957,0.00103446
4870.23861694,0.00094589
4872.16742432,0.00105921
4874.09623169,0.00095789
4876.02503906,0.00092233
4877.95384644,0.00104814
4879.88265381,0.00097302
4881.81146118,0.00095516
4883.74026855,0.00097431
4885.66907593,0.00098291
4887.59788330,0.00097076
4889.52669067,0.00094072
4891.45549805,0.00094344
4893.38430542,0.00092638
4895.31311279,0.00089790
4897.24192017,0.00090973
4899.17072754,0.00091749
4901.09953491,0.00087000
4903.02834228,0.00086770
4904.95714966,0.00096960
4906.88595703,0.00103757
4908.81476440,0.00093455
4910.74357178,0.00089086
4912.67237915,0.00087924
4914.60118652,0.00090022
4916.52999390,0.00098225
4918.45880127,0.00089324
4920.38760864,0.00098079
4922.31641602,0.00097947
4924.24522339,0.00082697
4926.17403076,0.00092516
4928.10283813,0.00086686
4930.03164551,0.00086244
4931.96045288,0.00095145
4933.88926025,0.00086547
4935.81806763,0.00090616
4937.74687500,0.00095002
4939.67568237,0.00084060
4941.60448975,0.00086371
4943.53329712,0.00092271
4945.46210449,0.00083430
4947.39091187,0.00086409
4949.31971924,0.00087825
4951.24852661,0.00083042
4953.17733398,0.00089559
4955.10614136,0.00089314
4957.03494873,0.00086459
4958.96375610,0.00087732
4960.89256348,0.00086135
4962.82137085,0.00088285
4964.75017822,0.00091635
4966.67898560,0.00084032
4968.60779297,0.00084826
4970.53660034,0.00085773
4972.46540771,0.00080420
4974.39421509,0.00087813
4976.32302246,0.00084273
4978.25182983,0.00082010
4980.18063721,0.00085747
4982.10944458,0.00088340
4984.03825195,0.00090286
4985.96705933,0.00085274
4987.89586670,0.00086848
4989.82467407,0.00085538
4991.75348145,0.00088215
4993.68228882,0.00086156
4995.61109619,0.00087413
4997.53990356,0.00084886
4999.46871094,0.00073852
5001.39751831,0.00090315
5003.32632568,0.00083800
5005.25513306,0.00074833
5007.18394043,0.00084596
5009.11274780,0.00082147
5011.04155518,0.00084231
5012.97036255,0.00082266
5014.89916992,0.00081758
5016.82797729,0.00077880
5018.75678467,0.00082782
5020.68559204,0.00084933
5022.61439941,0.00080001
5024.54320679,0.00083671
5026.47201416,0.00073232
5028.40082153,0.00078310
5030.32962891,0.00083390
5032.25843628,0.00074550
5034.18724365,0.00073884
5036.11605103,0.00080877
5038.04485840,0.00081863
5039.97366577,0.00073734
5041.90247314,0.00082909
5043.83128052,0.00077561
5045.76008789,0.00076587
5047.68889526,0.00084131
5049.61770264,0.00069594
5051.54651001,0.00073130
5053.47531738,0.00078319
5055.40412476,0.00073259
5057.33293213,0.00073793
5059.26173950,0.00078690
5061.19054687,0.00074192
5063.11935425,0.00071614
5065.04816162,0.00080986
5066.97696899,0.00074653
5068.90577637,0.00075914
5070.83458374,0.00078497
5072.76339111,0.00069879
5074.69219849,0.00072144
5076.62100586,0.00076224
5078.54981323,0.00079685
5080.47862061,0.00083677
5082.40742798,0.00079973
5084.33623535,0.00072398
5086.26504272,0.00077135
5088.19385010,0.00080333
5090.12265747,0.00077978
5092.05146484,0.00076003
5093.98027222,0.00071613
5095.90907959,0.00072486
5097.83788696,0.00071750
5099.76669434,0.00075522
5101.69550171,0.00075375
5103.62430908,0.00071117
5105.55311645,0.00071843
5107.48192383,0.00071663
5109.41073120,0.00071318
5111.33953857,0.00067901
5113.26834595,0.00074568
5115.19715332,0.00074609
5117.12596069,0.00069579
5119.05476807,0.00070000
5120.98357544,0.00067669
5122.91238281,0.00076648
5124.84119019,0.00073960
5126.76999756,0.00068935
5128.69880493,0.00067563
5130.62761230,0.00066041
5132.55641968,0.00078335
5134.48522705,0.00070541
5136.41403442,0.00064719
5138.34284180,0.00068055
5140.27164917,0.00063883
5142.20045654,0.00068322
5144.12926392,0.00062546
5146.05807129,0.00064414
5147.98687866,0.00072117
5149.91568603,0.00067874
5151.84449341,0.00068499
5153.77330078,0.00067606
5155.70210815,0.00067215
5157.63091553,0.00063186
5159.55972290,0.00063983
5161.48853027,0.00067820
5163.41733765,0.00063728
5165.34614502,0.00067779
5167.27495239,0.00060865
5169.20375977,0.00057502
5171.13256714,0.00066459
5173.06137451,0.00065059
5174.99018188,0.00072301
5176.91898926,0.00073254
5178.84779663,0.00066182
5180.77660400,0.00068984
5182.70541138,0.00064095
5184.63421875,0.00060795
5186.56302612,0.00065583
5188.49183350,0.00062364
5190.42064087,0.00061529
5192.34944824,0.00064947
5194.27825562,0.00065377
5196.20706299,0.00068933
5198.13587036,0.00065950
5200.06467773,0.00066583
5201.99348511,0.00068906
5203.92229248,0.00062823
5205.85109985,0.00063517
5207.77990723,0.00062621
5209.70871460,0.00063295
5211.63752197,0.00062370
5213.56632935,0.00063525
5215.49513672,0.00069662
5217.42394409,0.00066128
5219.35275146,0.00065768
5221.28155884,0.00062505
5223.21036621,0.00062196
5225.13917358,0.00063496
5227.06798096,0.00061095
5228.99678833,0.00063478
5230.92559570,0.00060433
5232.85440308,0.00059514
5234.78321045,0.00055991
5236.71201782,0.00061923
5238.64082520,0.00069850
5240.56963257,0.00058739
5242.49843994,0.00054154
5244.42724731,0.00058083
5246.35605469,0.00064648
5248.28486206,0.00062994
5250.21366943,0.00055305
5252.14247681,0.00059249
5254.07128418,0.00066672
5256.00009155,0.00064775
5257.92889893,0.00059034
5259.85770630,0.00058978
5261.78651367,0.00059189
5263.71532104,0.00061155
5265.64412842,0.00058597
5267.57293579,0.00057474
5269.50174316,0.00057419
5271.43055054,0.00053232
5273.35935791,0.00058517
5275.28816528,0.00060811
5277.21697266,0.00061144
5279.14578003,0.00057205
5281.07458740,0.00055324
5283.00339478,0.00060296
5284.93220215,0.00056048
5286.86100952,0.00058860
5288.78981689,0.00059696
5290.71862427,0.00055690
5292.64743164,0.00060288
5294.57623901,0.00059574
5296.50504639,0.00054961
5298.43385376,0.00058733
5300.36266113,0.00061859
5302.29146851,0.00058885
5304.22027588,0.00062812
5306.14908325,0.00064306
5308.07789062,0.00061994
5310.00669800,0.00055809
5311.93550537,0.00052542
5313.86431274,0.00062502
5315.79312012,0.00056396
5317.72192749,0.00051170
5319.65073486,0.00057982
5321.57954224,0.00056506
5323.50834961,0.00061733
5325.43715698,0.00059572
5327.36596436,0.00049865
5329.29477173,0.00056596
5331.22357910,0.00057757
5333.15238647,0.00055090
5335.08119385,0.00059399
5337.01000122,0.00052561
5338.93880859,0.00051351
5340.86761597,0.00054335
5342.79642334,0.00048653
5344.72523071,0.00053402
5346.65403809,0.00060283
5348.58284546,0.00050151
5350.51165283,0.00043141
5352.44046020,0.00055461
5354.36926758,0.00054340
5356.29807495,0.00047499
5358.22688232,0.00050271
5360.15568970,0.00051099
5362.08449707,0.00058549
5364.01330444,0.00053568
5365.94211182,0.00052798
5367.87091919,0.00060789
5369.79972656,0.00052300
5371.72853394,0.00054056
5373.65734131,0.00062185
5375.58614868,0.00051138
5377.51495605,0.00044322
5379.44376343,0.00057559
5381.37257080,0.00052487
5383.30137817,0.00053390
5385.23018555,0.00060938
5387.15899292,0.00041026
5389.08780029,0.00050179
5391.01660767,0.00053838
5392.94541504,0.00047046
5394.87422241,0.00061389
5396.80302978,0.00048279
5398.73183716,0.00048490
5400.66064453,0.00053302
5402.58945190,0.00046062
5404.51825928,0.00053757
5406.44706665,0.00045999
5408.37587402,0.00050495
5410.30468140,0.00056439
5412.23348877,0.00044907
5414.16229614,0.00046950
5416.09110352,0.00043214
5418.01991089,0.00044474
5419.94871826,0.00049117
5421.87752563,0.00045476
5423.80633301,0.00047285
5425.73514038,0.00043458
5427.66394775,0.00049655
5429.59275513,0.00052292
5431.52156250,0.00046065
5433.45036987,0.00052424
5435.37917725,0.00048459
5437.30798462,0.00050943
5439.23679199,0.00053489
5441.16559936,0.00043091
5443.09440674,0.00051635
5445.02321411,0.00051031
5446.95202148,0.00044887
5448.88082886,0.00055226
5450.80963623,0.00046561
5452.73844360,0.00041240
5454.66725098,0.00053495
5456.59605835,0.00050447
5458.52486572,0.00047382
5460.45367310,0.00045118
5462.38248047,0.00042463
5464.31128784,0.00049423
5466.24009521,0.00050713
5468.16890259,0.00049382
5470.09770996,0.00043942
5472.02651733,0.00040463
5473.95532471,0.00045434
5475.88413208,0.00050733
5477.81293945,0.00054216
5479.74174683,0.00048622
5481.67055420,0.00041938
5483.59936157,0.00044669
5485.52816895,0.00046648
5487.45697632,0.00038654
5489.38578369,0.00042479
5491.31459106,0.00047638
5493.24339844,0.00044519
5495.17220581,0.00051755
5497.10101318,0.00046981
5499.02982056,0.00045968
5500.95862793,0.00046473
5502.88743530,0.00040857
5504.81624268,0.00047962
5506.74505005,0.00045072
5508.67385742,0.00047439
5510.60266479,0.00051956
5512.53147217,0.00046958
5514.46027954,0.00046590
5516.38908691,0.00042827
5518.31789429,0.00041804
5520.24670166,0.00049979
5522.17550903,0.00048753
5524.10431641,0.00040406
5526.03312378,0.00048543
5527.96193115,0.00046481
5529.89073853,0.00043632
5531.81954590,0.00047039
5533.74835327,0.00042405
5535.67716064,0.00048526
5537.60596802,0.00040649
5539.53477539,0.00045015
5541.46358276,0.00049500
5543.39239014,0.00041449
5545.32119751,0.00053295
5547.25000488,0.00042343
5549.17881226,0.00039601
5551.10761963,0.00046220
5553.03642700,0.00043529
5554.96523437,0.00050638
5556.89404175,0.00041725
5558.82284912,0.00040511
5560.75165649,0.00041063
5562.68046387,0.00036880
5564.60927124,0.00046216
5566.53807861,0.00049245
5568.46688599,0.00045436
5570.39569336,0.00039188
5572.32450073,0.00042501
5574.25330811,0.00046313
5576.18211548,0.00038607
5578.11092285,0.00038769
5580.03973022,0.00037499
5581.96853760,0.00039658
5583.89734497,0.00048733
5585.82615234,0.00039497
5587.75495972,0.00038822
5589.68376709,0.00045164
5591.61257446,0.00038516
5593.54138184,0.00043428
5595.47018921,0.00041462
5597.39899658,0.00035665
5599.32780395,0.00043669
5601.25661133,0.00045103
5603.18541870,0.00040713
5605.11422607,0.00043234
5607.04303345,0.00047617
5608.97184082,0.00042695
5610.90064819,0.00041857
5612.82945557,0.00042267
5614.75826294,0.00043499
5616.68707031,0.00044893
5618.61587769,0.00036097
5620.54468506,0.00039388
5622.47349243,0.00043393
5624.40229980,0.00039296
5626.33110718,0.00039030
5628.25991455,0.00040890
5630.18872192,0.00042423
5632.11752930,0.00041528
5634.04633667,0.00045380
5635.97514404,0.00042436
5637.90395142,0.00034332
5639.83275879,0.00034753
5641.76156616,0.00040069
5643.69037353,0.00041031
5645.61918091,0.00037601
5647.54798828,0.00035430
5649.47679565,0.00030588
5651.40560303,0.00035122
5653.33441040,0.00039328
5655.26321777,0.00034705
5657.19202515,0.00041346
5659.12083252,0.00044651
5661.04963989,0.00038872
5662.97844727,0.00042423
5664.90725464,0.00036609
5666.83606201,0.00029612
5668.76486938,0.00043461
5670.69367676,0.00043279
5672.62248413,0.00040046
5674.55129150,0.00039796
5676.48009888,0.00033509
5678.40890625,0.00040854
5680.33771362,0.00036913
5682.26652100,0.00036184
5684.19532837,0.00037701
5686.12413574,0.00031864
5688.05294311,0.00042799
5689.98175049,0.00040820
5691.91055786,0.00032234
5693.83936523,0.00035017
5695.76817261,0.00036223
5697.69697998,0.00035485
5699.62578735,0.00034670
5701.55459473,0.00034788
5703.48340210,0.00035006
5705.41220947,0.00032099
5707.34101685,0.00028161
5709.26982422,0.00031905
5711.19863159,0.00035043
5713.12743896,0.00035063
5715.05624634,0.00027233
5716.98505371,0.00027143
5718.91386108,0.00038392
5720.84266846,0.00035199
5722.77147583,0.00035188
5724.70028320,0.00032085
5726.62909058,0.00034266
5728.55789795,0.00039304
5730.48670532,0.00033309
5732.41551270,0.00040756
5734.34432007,0.00034588
5736.27312744,0.00027897
5738.20193481,0.00029188
5740.13074219,0.00025615
5742.05954956,0.00036363
5743.98835693,0.00037337
5745.91716431,0.00036770
5747.84597168,0.00042470
5749.77477905,0.00035955
5751.70358643,0.00033738
5753.63239380,0.00035704
5755.56120117,0.00033039
5757.49000854,0.00038360
5759.41881592,0.00040781
5761.34762329,0.00032189
5763.27643066,0.00029700
5765.20523804,0.00030345
5767.13404541,0.00033174
5769.06285278,0.00030672
5770.99166016,0.00026886
5772.92046753,0.00033475
5774.84927490,0.00033744
5776.77808228,0.00033487
5778.70688965,0.00033125
5780.63569702,0.00028833
5782.56450439,0.00030581
5784.49331177,0.00030951
5786.42211914,0.00030205
5788.35092651,0.00033681
5790.27973389,0.00033597
5792.20854126,0.00033882
5794.13734863,0.00034190
5796.06615601,0.00028257
5797.99496338,0.00037616
5799.92377075,0.00041542
5801.85257812,0.00030958
5803.78138550,0.00039290
5805.71019287,0.00035870
5807.63900024,0.00024723
5809.56780762,0.00030530
5811.49661499,0.00025535
5813.42542236,0.00024400
5815.35422974,0.00033900
5817.28303711,0.00027127
5819.21184448,0.00024449
5821.14065186,0.00030975
5823.06945923,0.00026804
5824.99826660,0.00025970
5826.92707397,0.00031698
5828.85588135,0.00036189
5830.78468872,0.00030348
5832.71349609,0.00025988
5834.64230347,0.00031468
5836.57111084,0.00030054
5838.49991821,0.00032838
5840.42872559,0.00030782
5842.35753296,0.00028045
5844.28634033,0.00031987
5846.21514770,0.00028118
5848.14395508,0.00028902
5850.07276245,0.00028885
5852.00156982,0.00028667
5853.93037720,0.00029558
5855.85918457,0.00028429
5857.78799194,0.00026706
5859.71679932,0.00028728
5861.64560669,0.00032022
5863.57441406,0.00024567
5865.50322144,0.00026985
5867.43202881,0.00029028
5869.36083618,0.00028301
5871.28964355,0.00031483
5873.21845093,0.00029421
5875.14725830,0.00031522
5877.07606567,0.00023583
5879.00487305,0.00020449
5880.93368042,0.00028414
5882.86248779,0.00033684
5884.79129517,0.00031208
5886.72010254,0.00024258
5888.64890991,0.00029941
5890.57771728,0.00032430
5892.50652466,0.00035183
5894.43533203,0.00032807
5896.36413940,0.00025084
5898.29294678,0.00027510
5900.22175415,0.00027059
5902.15056152,0.00027079
5904.07936890,0.00024950
5906.00817627,0.00029025
5907.93698364,0.00030282
5909.86579102,0.00028155
5911.79459839,0.00039824
5913.72340576,0.00034000
5915.65221313,0.00023173
5917.58102051,0.00024971
5919.50982788,0.00023665
5921.43863525,0.00027370
5923.36744263,0.00028327
5925.29625000,0.00023690
5927.22505737,0.00029722
5929.15386475,0.00033403
5931.08267212,0.00029351
5933.01147949,0.00029537
5934.94028686,0.00025445
5936.86909424,0.00022115
5938.79790161,0.00024757
5940.72670898,0.00023799
5942.65551636,0.00024237
5944.58432373,0.00030868
5946.51313110,0.00026988
5948.44193848,0.00018827
5950.37074585,0.00026829
5952.29955322,0.00028253
5954.22836060,0.00027205
5956.15716797,0.00027904
5958.08597534,0.00023385
5960.01478271,0.00028776
5961.94359009,0.00026626
5963.87239746,0.00023195
5965.80120483,0.00021645
5967.73001221,0.00021369
5969.65881958,0.00028423
5971.58762695,0.00027141
5973.51643433,0.00028798
5975.44524170,0.00024224
5977.37404907,0.00023217
5979.30285645,0.00030772
5981.23166382,0.00025003
5983.16047119,0.00024782
5985.08927856,0.00024454
5987.01808594,0.00023711
5988.94689331,0.00027905
5990.87570068,0.00029566
5992.80450806,0.00031075
5994.73331543,0.00029659
5996.66212280,0.00030851
5998.59093018,0.00024049
6000.51973755,0.00020487
