399.26312622,0.00094420
401.19193359,0.00050215
403.12074097,0.00049517
405.04954834,0.00050761
406.97835571,0.00128666
408.90716309,0.00116545
410.83597046,0.00099336
412.76477783,0.00063852
414.69358521,0.00081031
416.62239258,0.00123441
418.55119995,0.00076753
420.48000732,0.00094714
422.40881470,0.00073813
424.33762207,0.00061377
426.26642944,0.00109824
428.19523682,0.00123035
430.12404419,0.00080232
432.05285156,0.00072683
433.98165894,0.00120651
435.91046631,0.00096711
437.83927368,0.00081883
439.76808105,0.00079474
441.69688843,0.00089642
443.62569580,0.00093184
445.55450317,0.00100783
447.48331055,0.00122832
449.41211792,0.00080529
451.34092529,0.00104157
453.26973267,0.00096549
455.19854004,0.00070362
457.12734741,0.00095071
459.05615479,0.00063883
460.98496216,0.00070559
462.91376953,0.00045154
464.84257690,0.00015872
466.77138428,0.00040904
468.70019165,0.00034906
470.62899902,0.00027055
472.55780640,0.00026788
474.48661377,0.00038262
476.41542114,0.00022853
478.34422852,0.00029614
480.27303589,0.00038165
482.20184326,0.00028772
484.13065063,0.00051418
486.05945801,0.00026401
487.98826538,0.00031019
489.91707275,0.00045877
491.84588013,0.00011842
493.77468750,0.00012909
495.70349487,-0.00004186
497.63230225,0.00007993
499.56110962,0.00048954
501.48991699,0.00023394
503.41872437,0.00038043
505.34753174,0.00021793
507.27633911,-0.00001717
509.20514648,0.00046776
511.13395386,0.00036159
513.06276123,0.00017620
514.99156860,-0.00015540
516.92037598,0.00024276
518.84918335,0.00026097
520.77799072,0.00019210
522.70679810,0.00038808
524.63560547,0.00048973
526.56441284,0.00021826
528.49322021,0.00000685
530.42202759,-0.00005078
532.35083496,-0.00023080
534.27964233,0.00023484
536.20844971,0.00033461
538.13725708,0.00018163
540.06606445,-0.00007048
541.99487183,-0.00011966
543.92367920,-0.00006893
545.85248657,0.00007547
547.78129395,0.00010738
549.71010132,0.00008205
551.63890869,0.00021914
553.56771606,-0.00028206
555.49652344,-0.00011606
557.42533081,0.00035429
559.35413818,0.00007458
561.28294556,0.00020597
563.21175293,0.00007586
565.14056030,0.00013582
567.06936768,0.00032457
568.99817505,-0.00005081
570.92698242,0.00039126
572.85578979,0.00027478
574.78459717,0.00003038
576.71340454,0.00021233
578.64221191,-0.00012002
580.57101929,0.00043965
582.49982666,0.00036128
584.42863403,0.00001544
586.35744141,0.00035163
588.28624878,0.00021362
590.21505615,0.00032502
592.14386353,-0.00005152
594.07267090,-0.00000178
596.00147827,0.00011003
597.93028564,0.00020384
599.85909302,0.00057647
601.78790039,-0.00008680
603.71670776,0.00014514
605.64551514,0.00017674
607.57432251,0.00025923
609.50312988,0.00050020
611.43193726,0.00010478
613.36074463,0.00017653
615.28955200,-0.00004244
617.21835938,-0.00006447
619.14716675,0.00003855
621.07597412,0.00006352
623.00478149,-0.00002520
624.93358887,0.00019219
626.86239624,0.00004659
628.79120361,-0.00006866
630.72001099,0.00008296
632.64881836,0.00007725
634.57762573,0.00051279
636.50643311,0.00050359
638.43524048,0.00075778
640.36404785,0.00095153
642.29285522,0.00068496
644.22166260,0.00078109
646.15046997,0.00121999
648.07927734,0.00136383
650.00808472,0.00106887
651.93689209,0.00113058
653.86569946,0.00116482
655.79450684,0.00139256
657.72331421,0.00148918
659.65212158,0.00122838
661.58092896,0.00140530
663.50973633,0.00158045
665.43854370,0.00179995
667.36735107,0.00171705
669.29615845,0.00158678
671.22496582,0.00186913
673.15377319,0.00206862
675.08258057,0.00220157
677.01138794,0.00212473
678.94019531,0.00207062
680.86900269,0.00198851
682.79781006,0.00198843
684.72661743,0.00231644
686.65542480,0.00219906
688.58423218,0.00186218
690.51303955,0.00210441
692.44184692,0.00248270
694.37065430,0.00272777
696.29946167,0.00294239
698.22826904,0.00295544
700.15707642,0.00318772
702.08588379,0.00328522
704.01469116,0.00299491
705.94349854,0.00271484
707.87230591,0.00226459
709.80111328,0.00186723
711.72992065,0.00113688
713.65872803,0.00047207
715.58753540,0.00037402
717.51634277,0.00033484
719.44515015,0.00043270
721.37395752,0.00017367
723.30276489,0.00009192
725.23157227,0.00006405
727.16037964,-0.00018764
729.08918701,0.00022477
731.01799438,0.00012752
732.94680176,0.00020426
734.87560913,0.00035337
736.80441650,-0.00001376
738.73322388,0.00022415
740.66203125,-0.00010720
742.59083862,0.00011827
744.51964600,0.00014415
746.44845337,-0.00018447
748.37726074,0.00031125
750.30606812,0.00023607
752.23487549,0.00045025
754.16368286,0.00037654
756.09249023,0.00010230
758.02129761,-0.00007858
759.95010498,0.00006026
761.87891235,0.00036313
763.80771973,0.00022208
765.73652710,0.00044412
767.66533447,-0.00003966
769.59414185,0.00004034
771.52294922,0.00044173
773.45175659,-0.00004604
775.38056396,0.00005646
777.30937134,0.00024501
779.23817871,0.00030202
781.16698608,0.00015322
783.09579346,0.00012607
785.02460083,0.00025542
786.95340820,0.00022945
788.88221558,0.00028993
790.81102295,0.00014641
792.73983032,0.00040952
794.66863770,0.00044332
796.59744507,0.00042540
798.52625244,0.00057814
800.45505981,0.00021635
802.38386719,0.00029190
804.31267456,0.00028848
806.24148193,0.00020546
808.17028931,0.00040234
810.09909668,0.00033280
812.02790405,0.00006240
813.95671143,0.00022830
815.88551880,0.00054213
817.81432617,0.00030172
819.74313354,0.00037924
821.67194092,0.00037642
823.60074829,0.00029861
825.52955566,0.00051647
827.45836304,0.00054727
829.38717041,0.00060773
831.31597778,0.00057997
833.24478516,0.00082301
835.17359253,0.00087565
837.10239990,0.00082309
839.03120728,0.00091835
840.96001465,0.00069286
842.88882202,0.00081340
844.81762939,0.00073501
846.74643677,0.00050750
848.67524414,0.00040194
850.60405151,0.00025449
852.53285889,0.00067679
854.46166626,0.00080054
856.39047363,0.00038212
858.31928101,0.00024156
860.24808838,0.00019072
862.17689575,0.00015853
864.10570313,0.00022424
866.03451050,0.00016253
867.96331787,0.00023923
869.89212524,0.00038620
871.82093262,0.00049023
873.74973999,0.00055950
875.67854736,0.00041754
877.60735474,0.00028553
879.53616211,0.00002077
881.46496948,0.00014725
883.39377686,0.00041743
885.32258423,0.00024291
887.25139160,0.00019513
889.18019897,0.00029415
891.10900635,0.00040641
893.03781372,0.00047349
894.96662109,0.00039365
896.89542847,0.00009820
898.82423584,0.00008083
900.75304321,0.00021514
902.68185059,0.00037626
904.61065796,0.00046915
906.53946533,0.00013270
908.46827271,0.00052150
910.39708008,0.00065676
912.32588745,0.00017048
914.25469482,0.00055720
916.18350220,0.00060975
918.11230957,0.00052806
920.04111694,0.00070897
921.96992432,0.00037616
923.89873169,0.00064667
925.82753906,0.00097704
927.75634644,0.00080782
929.68515381,0.00090425
931.61396118,0.00068811
933.54276855,0.00082604
935.47157593,0.00117183
937.40038330,0.00096650
939.32919067,0.00119892
941.25799805,0.00123664
943.18680542,0.00114909
945.11561279,0.00127495
947.04442017,0.00107958
948.97322754,0.00123216
950.90203491,0.00129365
952.83084229,0.00119645
954.75964966,0.00099468
956.68845703,0.00081289
958.61726440,0.00102183
960.54607178,0.00086932
962.47487915,0.00113644
964.40368652,0.00146908
966.33249390,0.00126330
968.26130127,0.00134842
970.19010864,0.00133169
972.11891602,0.00142361
974.04772339,0.00152114
975.97653076,0.00156653
977.90533813,0.00188174
979.83414551,0.00188828
981.76295288,0.00184281
983.69176025,0.00199211
985.62056763,0.00229123
987.54937500,0.00276396
989.47818237,0.00300878
991.40698975,0.00311722
993.33579712,0.00345970
995.26460449,0.00385011
997.19341187,0.00416793
999.12221924,0.00457442
1001.05102661,0.00480932
1002.97983398,0.00511120
1004.90864136,0.00552101
1006.83744873,0.00560367
1008.76625610,0.00598807
1010.69506348,0.00646285
1012.62387085,0.00668526
1014.55267822,0.00712326
1016.48148560,0.00750288
1018.41029297,0.00788408
1020.33910034,0.00812441
1022.26790771,0.00831106
1024.19671509,0.00883907
1026.12552246,0.00923055
1028.05432983,0.00955522
1029.98313721,0.00975528
1031.91194458,0.00979161
1033.84075195,0.01009402
1035.76955933,0.01031350
1037.69836670,0.01023734
1039.62717407,0.01031620
1041.55598145,0.01055082
1043.48478882,0.01050924
1045.41359619,0.01027440
1047.34240356,0.01009243
1049.27121094,0.01006856
1051.20001831,0.00983882
1053.12882568,0.00941231
1055.05763306,0.00940723
1056.98644043,0.00930917
1058.91524780,0.00892635
1060.84405518,0.00870642
1062.77286255,0.00855346
1064.70166992,0.00825000
1066.63047729,0.00785370
1068.55928467,0.00756513
1070.48809204,0.00723094
1072.41689941,0.00690303
1074.34570679,0.00666663
1076.27451416,0.00651812
1078.20332153,0.00611782
1080.13212891,0.00575027
1082.06093628,0.00574255
1083.98974365,0.00516520
1085.91855103,0.00484226
1087.84735840,0.00507550
1089.77616577,0.00478860
1091.70497314,0.00443039
1093.63378052,0.00427373
1095.56258789,0.00407372
1097.49139526,0.00384675
1099.42020264,0.00390932
1101.34901001,0.00390433
1103.27781738,0.00370487
1105.20662476,0.00370811
1107.13543213,0.00375428
1109.06423950,0.00377272
1110.99304687,0.00356378
1112.92185425,0.00351062
1114.85066162,0.00363260
1116.77946899,0.00357887
1118.70827637,0.00352840
1120.63708374,0.00346027
1122.56589111,0.00338427
1124.49469849,0.00336481
1126.42350586,0.00363430
1128.35231323,0.00379212
1130.28112061,0.00369156
1132.20992798,0.00363491
1134.13873535,0.00383849
1136.06754272,0.00420146
1137.99635010,0.00433531
1139.92515747,0.00470810
1141.85396484,0.00503693
1143.78277222,0.00533658
1145.71157959,0.00564419
1147.64038696,0.00571464
1149.56919434,0.00601871
1151.49800171,0.00612932
1153.42680908,0.00649662
1155.35561646,0.00702608
1157.28442383,0.00713139
1159.21323120,0.00747834
1161.14203857,0.00781532
1163.07084595,0.00793081
1164.99965332,0.00814401
1166.92846069,0.00837868
1168.85726807,0.00872424
1170.78607544,0.00924275
1172.71488281,0.00956499
1174.64369019,0.01007084
1176.57249756,0.01041685
1178.50130493,0.01052896
1180.43011230,0.01120588
1182.35891968,0.01155503
1184.28772705,0.01192046
1186.21653442,0.01244312
1188.14534180,0.01292115
1190.07414917,0.01360049
1192.00295654,0.01400001
1193.93176392,0.01488053
1195.86057129,0.01562908
1197.78937866,0.01621768
1199.71818604,0.01708379
1201.64699341,0.01762811
1203.57580078,0.01827587
1205.50460815,0.01885116
1207.43341553,0.01963605
1209.36222290,0.02026943
1211.29103027,0.02067241
1213.21983765,0.02141237
1215.14864502,0.02184777
1217.07745239,0.02227801
1219.00625977,0.02271572
1220.93506714,0.02301556
1222.86387451,0.02352645
1224.79268188,0.02375682
1226.72148926,0.02364028
1228.65029663,0.02385098
1230.57910400,0.02391108
1232.50791138,0.02386912
1234.43671875,0.02412663
1236.36552612,0.02402449
1238.29433350,0.02415624
1240.22314087,0.02404609
1242.15194824,0.02370523
1244.08075562,0.02386745
1246.00956299,0.02368999
1247.93837036,0.02361303
1249.86717773,0.02334550
1251.79598511,0.02311184
1253.72479248,0.02310900
1255.65359985,0.02260919
1257.58240723,0.02243993
1259.51121460,0.02209300
1261.44002197,0.02165724
1263.36882935,0.02151618
1265.29763672,0.02112334
1267.22644409,0.02102555
1269.15525146,0.02074406
1271.08405884,0.02026778
1273.01286621,0.02007462
1274.94167358,0.01963470
1276.87048096,0.01935958
1278.79928833,0.01905134
1280.72809570,0.01851915
1282.65690308,0.01840534
1284.58571045,0.01803480
1286.51451782,0.01762563
1288.44332520,0.01741240
1290.37213257,0.01702520
1292.30093994,0.01700547
1294.22974731,0.01684142
1296.15855469,0.01669853
1298.08736206,0.01683881
1300.01616943,0.01669384
1301.94497681,0.01672208
1303.87378418,0.01699542
1305.80259155,0.01719014
1307.73139893,0.01735711
1309.66020630,0.01766337
1311.58901367,0.01784503
1313.51782104,0.01808179
1315.44662842,0.01867716
1317.37543579,0.01909487
1319.30424316,0.01948000
1321.23305054,0.02008759
1323.16185791,0.02073823
1325.09066528,0.02138381
1327.01947266,0.02203488
1328.94828003,0.02248846
1330.87708740,0.02303944
1332.80589478,0.02360836
1334.73470215,0.02379960
1336.66350952,0.02424522
1338.59231689,0.02420341
1340.52112427,0.02438596
1342.44993164,0.02530499
1344.37873901,0.02527995
1346.30754639,0.02533985
1348.23635376,0.02533194
1350.16516113,0.02519470
1352.09396851,0.02524180
1354.02277588,0.02479946
1355.95158325,0.02469774
1357.88039062,0.02433120
1359.80919800,0.02416101
1361.73800537,0.02320170
1363.66681274,0.02249151
1365.59562012,0.02380951
1367.52442749,0.02315238
1369.45323486,0.02310316
1371.38204224,0.02354547
1373.31084961,0.02202411
1375.23965698,0.02252017
1377.16846436,0.02296061
1379.09727173,0.02279310
1381.02607910,0.02284747
1382.95488647,0.02266924
1384.88369385,0.02280919
1386.81250122,0.02170565
1388.74130859,0.02208002
1390.67011597,0.02400519
1392.59892334,0.02325739
1394.52773071,0.02184175
1396.45653809,0.02288647
1398.38534546,0.02280797
1400.31415283,0.02292293
1402.24296021,0.02452485
1404.17176758,0.02308052
1406.10057495,0.02337158
1408.02938232,0.02409660
1409.95818970,0.02341601
1411.88699707,0.02392320
1413.81580444,0.02295809
1415.74461182,0.02341944
1417.67341919,0.02116133
1419.60222656,0.01911433
1421.53103394,0.02178507
1423.45984131,0.02113584
1425.38864868,0.02054103
1427.31745605,0.02058218
1429.24626343,0.01910800
1431.17507080,0.01873525
1433.10387817,0.01916002
1435.03268555,0.01740046
1436.96149292,0.01466590
1438.89030029,0.01650663
1440.81910767,0.01704641
1442.74791504,0.01619003
1444.67672241,0.01668379
1446.60552979,0.01519844
1448.53433716,0.01551361
1450.46314453,0.01584873
1452.39195190,0.01620953
1454.32075928,0.01692346
1456.24956665,0.01395217
1458.17837402,0.01461381
1460.10718140,0.01935917
1462.03598877,0.02047517
1463.96479614,0.02031136
1465.89360352,0.02103095
1467.82241089,0.02400378
1469.75121826,0.02572775
1471.68002563,0.02295596
1473.60883301,0.02446887
1475.53764038,0.02753376
1477.46644775,0.02955614
1479.39525513,0.03270490
1481.32406250,0.03307796
1483.25286987,0.03493195
1485.18167725,0.03585482
1487.11048462,0.03533252
1489.03929199,0.03508421
1490.96809937,0.03543427
1492.89690674,0.04118452
1494.82571411,0.03988697
1496.75452148,0.03616922
1498.68332886,0.04095098
1500.61213623,0.04207896
1502.54094360,0.04522270
1504.46975098,0.04228979
1506.39855835,0.03094595
1508.32736572,0.03827641
1510.25617310,0.04427312
1512.18498047,0.04298343
1514.11378784,0.04663534
1516.04259521,0.04169760
1517.97140259,0.04381141
1519.90020996,0.04209902
1521.82901733,0.03669368
1523.75782471,0.04500877
1525.68663208,0.04373394
1527.61543945,0.04387663
1529.54424683,0.04842633
1531.47305420,0.04642658
1533.40186157,0.04283778
1535.33066895,0.04531958
1537.25947632,0.04798011
1539.18828369,0.03445860
1541.11709106,0.03650904
1543.04589844,0.04327716
1544.97470581,0.04172357
1546.90351318,0.04942469
1548.83232056,0.04597396
1550.76112793,0.04746397
1552.68993530,0.04690409
1554.61874268,0.04287887
1556.54755005,0.04548598
1558.47635742,0.03213219
1560.40516479,0.03552474
1562.33397217,0.04967685
1564.26277954,0.04689613
1566.19158691,0.04835416
1568.12039429,0.04743370
1570.04920166,0.04239573
1571.97800903,0.04908025
1573.90681641,0.04910055
1575.83562378,0.03922641
1577.76443115,0.04454239
1579.69323853,0.04959894
1581.62204590,0.04762062
1583.55085327,0.04903338
1585.47966064,0.04817361
1587.40846802,0.04869033
1589.33727539,0.04822745
1591.26608276,0.04827828
1593.19489014,0.04835648
1595.12369751,0.04771082
1597.05250488,0.04833259
1598.98131226,0.04795934
1600.91011963,0.04825155
1602.83892700,0.04728190
1604.76773437,0.04815897
1606.69654175,0.04744334
1608.62534912,0.04719892
1610.55415649,0.04739325
1612.48296387,0.04779116
1614.41177124,0.04814151
1616.34057861,0.03947044
1618.26938599,0.04320148
1620.19819336,0.04989672
1622.12700073,0.04402711
1624.05580811,0.04442447
1625.98461548,0.04646053
1627.91342285,0.04631675
1629.84223022,0.04614282
1631.77103760,0.04891164
1633.69984497,0.04499782
1635.62865234,0.03737414
1637.55745972,0.04367323
1639.48626709,0.04769330
1641.41507446,0.04647908
1643.34388184,0.04794120
1645.27268921,0.04292890
1647.20149658,0.03809904
1649.13030396,0.04743385
1651.05911133,0.04411636
1652.98791870,0.02861875
1654.91672607,0.03945103
1656.84553345,0.04906834
1658.77434082,0.04685733
1660.70314819,0.04805454
1662.63195557,0.04378691
1664.56076294,0.04636115
1666.48957031,0.04956036
1668.41837769,0.04313716
1670.34718506,0.04217814
1672.27599243,0.04774517
1674.20479980,0.04371404
1676.13360718,0.04227463
1678.06241455,0.04859275
1679.99122192,0.04657866
1681.92002930,0.04613644
1683.84883667,0.03738761
1685.77764404,0.03763210
1687.70645142,0.05092379
1689.63525879,0.04393352
1691.56406616,0.04887693
1693.49287354,0.04896662
1695.42168091,0.03625146
1697.35048828,0.04489857
1699.27929565,0.03876010
1701.20810303,0.03557219
1703.13691040,0.04802246
1705.06571777,0.04381637
1706.99452515,0.04449227
1708.92333252,0.04808872
1710.85213989,0.04630473
1712.78094727,0.04696446
1714.70975464,0.04342430
1716.63856201,0.03915527
1718.56736938,0.03870007
1720.49617676,0.04591532
1722.42498413,0.04731839
1724.35379150,0.04389635
1726.28259888,0.04795507
1728.21140625,0.04420377
1730.14021362,0.04457511
1732.06902100,0.04313638
1733.99782837,0.03307648
1735.92663574,0.04154082
1737.85544312,0.04529407
1739.78425049,0.04044954
1741.71305786,0.04420125
1743.64186523,0.04447563
1745.57067261,0.04473741
1747.49947998,0.04501183
1749.42828735,0.04291876
1751.35709473,0.04136177
1753.28590210,0.04595935
1755.21470947,0.04751980
1757.14351685,0.04337154
1759.07232422,0.04790588
1761.00113159,0.04472363
1762.92993896,0.04358967
1764.85874634,0.04969428
1766.78755371,0.04463716
1768.71636108,0.04526822
1770.64516846,0.04465436
1772.57397583,0.04038737
1774.50278320,0.04507621
1776.43159058,0.04733158
1778.36039795,0.04658722
1780.28920532,0.04610787
1782.21801270,0.04664583
1784.14682007,0.04639214
1786.07562744,0.04556368
1788.00443481,0.04797800
1789.93324219,0.04657162
1791.86204956,0.04217901
1793.79085693,0.04404947
1795.71966431,0.04730903
1797.64847168,0.04667770
1799.57727905,0.04577398
1801.50608643,0.04501346
1803.43489380,0.04646124
1805.36370117,0.04743780
1807.29250854,0.04687433
1809.22131592,0.04684136
1811.15012329,0.04570973
1813.07893066,0.04714763
1815.00773804,0.04728420
1816.93654541,0.04685483
1818.86535278,0.04716875
1820.79416016,0.04706456
1822.72296753,0.04744495
1824.65177490,0.04448710
1826.58058228,0.04627386
1828.50938965,0.04588047
1830.43819702,0.04339276
1832.36700439,0.04730773
1834.29581177,0.04682776
1836.22461914,0.04681799
1838.15342651,0.04657421
1840.08223389,0.04680675
1842.01104126,0.04655162
1843.93984863,0.04149880
1845.86865601,0.04442163
1847.79746338,0.04675449
1849.72627075,0.04589212
1851.65507812,0.04720792
1853.58388550,0.04628084
1855.51269287,0.04660871
1857.44150024,0.04613008
1859.37030762,0.04586723
1861.29911499,0.04620655
1863.22792236,0.04564906
1865.15672974,0.04611952
1867.08553711,0.04462110
1869.01434448,0.04274339
1870.94315186,0.04461773
1872.87195923,0.04632772
1874.80076660,0.04527460
1876.72957397,0.04560606
1878.65838135,0.04556094
1880.58718872,0.04530014
1882.51599609,0.04566202
1884.44480347,0.04474317
1886.37361084,0.04546508
1888.30241821,0.04450618
1890.23122559,0.04360945
1892.16003296,0.04519706
1894.08884033,0.04443355
1896.01764771,0.04433165
1897.94645508,0.04489902
1899.87526245,0.04461796
1901.80406982,0.04473642
1903.73287720,0.04442577
1905.66168457,0.04459007
1907.59049194,0.04423442
1909.51929932,0.04393725
1911.44810669,0.04412873
1913.37691406,0.04422062
1915.30572144,0.04456602
1917.23452881,0.04254155
1919.16333618,0.04256414
1921.09214355,0.04424813
1923.02095093,0.04288153
1924.94975830,0.04368711
1926.87856567,0.04417996
1928.80737305,0.04366533
1930.73618042,0.04413164
1932.66498779,0.04347906
1934.59379517,0.04390328
1936.52260254,0.04355754
1938.45140991,0.04361310
1940.38021729,0.04353605
1942.30902466,0.04229634
1944.23783203,0.04309455
1946.16663940,0.04326792
1948.09544678,0.04334456
1950.02425415,0.04348760
1951.95306152,0.04323509
1953.88186890,0.04334516
1955.81067627,0.04298934
1957.73948364,0.04324248
1959.66829102,0.04325566
1961.59709839,0.04300073
1963.52590576,0.04309197
1965.45471313,0.04304553
1967.38352051,0.04254372
1969.31232788,0.04272701
1971.24113525,0.04319220
1973.16994263,0.04276321
1975.09875000,0.04286112
1977.02755737,0.04259695
1978.95636475,0.04266181
1980.88517212,0.04278509
1982.81397949,0.04244978
1984.74278687,0.04277154
1986.67159424,0.04245415
1988.60040161,0.04238955
1990.52920898,0.04195707
1992.45801636,0.04149771
1994.38682373,0.04207582
1996.31563110,0.04215267
1998.24443848,0.04200975
2000.17324585,0.04183108
2002.10205322,0.04184379
2004.03086060,0.04172477
2005.95966797,0.04151053
2007.88847534,0.04164993
2009.81728271,0.04154872
2011.74609009,0.04135237
2013.67489746,0.04135373
2015.60370483,0.04101702
2017.53251221,0.04061843
2019.46131958,0.04089351
2021.39012695,0.04077472
2023.31893433,0.04077940
2025.24774170,0.04085895
2027.17654907,0.04045539
2029.10535645,0.04054510
2031.03416382,0.04037631
2032.96297119,0.04022617
2034.89177856,0.04015139
2036.82058594,0.04006301
2038.74939331,0.03996841
2040.67820068,0.03961417
2042.60700806,0.03966738
2044.53581543,0.03962997
2046.46462280,0.03974010
2048.39343018,0.03962950
2050.32223755,0.03939201
2052.25104492,0.03959215
2054.17985229,0.03933329
2056.10865967,0.03920399
2058.03746704,0.03925318
2059.96627441,0.03913152
2061.89508179,0.03901952
2063.82388916,0.03881522
2065.75269653,0.03871008
2067.68150391,0.03870989
2069.61031128,0.03869817
2071.53911865,0.03862783
2073.46792603,0.03858870
2075.39673340,0.03853530
2077.32554077,0.03839020
2079.25434814,0.03827600
2081.18315552,0.03823024
2083.11196289,0.03808594
2085.04077026,0.03814464
2086.96957764,0.03827270
2088.89838501,0.03802911
2090.82719238,0.03773908
2092.75599976,0.03760720
2094.68480713,0.03776395
2096.61361450,0.03774227
2098.54242187,0.03752779
2100.47122925,0.03739067
2102.40003662,0.03735467
2104.32884399,0.03746659
2106.25765137,0.03725253
2108.18645874,0.03724589
2110.11526611,0.03721328
2112.04407349,0.03699247
2113.97288086,0.03711855
2115.90168823,0.03704292
2117.83049561,0.03692313
2119.75930298,0.03697449
2121.68811035,0.03693713
2123.61691772,0.03669695
2125.54572510,0.03670707
2127.47453247,0.03669575
2129.40333984,0.03645678
2131.33214722,0.03654943
2133.26095459,0.03636505
2135.18976196,0.03628092
2137.11856934,0.03636509
2139.04737671,0.03620155
2140.97618408,0.03629089
2142.90499146,0.03620480
2144.83379883,0.03601693
2146.76260620,0.03607709
2148.69141357,0.03603393
2150.62022095,0.03589717
2152.54902832,0.03594330
2154.47783569,0.03598226
2156.40664307,0.03589266
2158.33545044,0.03579262
2160.26425781,0.03561901
2162.19306519,0.03557546
2164.12187256,0.03561626
2166.05067993,0.03552165
2167.97948730,0.03544279
2169.90829468,0.03543070
2171.83710205,0.03538886
2173.76590942,0.03543530
2175.69471680,0.03542475
2177.62352417,0.03533273
2179.55233154,0.03522836
2181.48113892,0.03512548
2183.40994629,0.03526735
2185.33875366,0.03513826
2187.26756104,0.03498554
2189.19636841,0.03506149
2191.12517578,0.03504369
2193.05398315,0.03502573
2194.98279053,0.03483957
2196.91159790,0.03493977
2198.84040527,0.03488497
2200.76921265,0.03468314
2202.69802002,0.03473636
2204.62682739,0.03457587
2206.55563477,0.03460100
2208.48444214,0.03459967
2210.41324951,0.03456989
2212.34205688,0.03446783
2214.27086426,0.03431236
2216.19967163,0.03429623
2218.12847900,0.03419692
2220.05728638,0.03431022
2221.98609375,0.03425571
2223.91490112,0.03419810
2225.84370850,0.03406484
2227.77251587,0.03394004
2229.70132324,0.03411130
2231.63013062,0.03396063
2233.55893799,0.03394895
2235.48774536,0.03387166
2237.41655273,0.03375161
2239.34536011,0.03385020
2241.27416748,0.03378969
2243.20297485,0.03370274
2245.13178223,0.03353637
2247.06058960,0.03352092
2248.98939697,0.03345030
2250.91820435,0.03341093
2252.84701172,0.03338730
2254.77581909,0.03320957
2256.70462646,0.03334282
2258.63343384,0.03326186
2260.56224121,0.03309746
2262.49104858,0.03310546
2264.41985596,0.03295162
2266.34866333,0.03296863
2268.27747070,0.03299742
2270.20627808,0.03282458
2272.13508545,0.03277805
2274.06389282,0.03283483
2275.99270020,0.03275726
2277.92150757,0.03273034
2279.85031494,0.03272177
2281.77912231,0.03260075
2283.70792969,0.03257822
2285.63673706,0.03256040
2287.56554443,0.03245760
2289.49435181,0.03233736
2291.42315918,0.03229714
2293.35196655,0.03222185
2295.28077393,0.03206378
2297.20958130,0.03205316
2299.13838867,0.03183400
2301.06719604,0.03161903
2302.99600342,0.03166649
2304.92481079,0.03139620
2306.85361816,0.03111113
2308.78242554,0.03092788
2310.71123291,0.03070121
2312.64004028,0.03044387
2314.56884766,0.03000400
2316.49765503,0.02969002
2318.42646240,0.02935965
2320.35526978,0.02900092
2322.28407715,0.02859404
2324.21288452,0.02815882
2326.14169189,0.02795537
2328.07049927,0.02761767
2329.99930664,0.02717675
2331.92811401,0.02688161
2333.85692139,0.02689376
2335.78572876,0.02680170
2337.71453613,0.02660917
2339.64334351,0.02658798
2341.57215088,0.02671777
2343.50095825,0.02737840
2345.42976562,0.02779093
2347.35857300,0.02875001
2349.28738037,0.02977385
2351.21618774,0.02867860
2353.14499512,0.02720281
2355.07380249,0.02613489
2357.00260986,0.02529637
2358.93141724,0.02485496
2360.86022461,0.02453129
2362.78903198,0.02470548
2364.71783936,0.02474175
2366.64664673,0.02505670
2368.57545410,0.02576515
2370.50426147,0.02617052
2372.43306885,0.02681744
2374.36187622,0.02766618
2376.29068359,0.02845504
2378.21949097,0.02907363
2380.14829834,0.02955776
2382.07710571,0.02990356
2384.00591309,0.03006487
2385.93472046,0.03024924
2387.86352783,0.03025484
2389.79233521,0.03009878
2391.72114258,0.03002142
2393.64994995,0.03004609
2395.57875732,0.02998660
2397.50756470,0.02984154
2399.43637207,0.02994013
2401.36517944,0.02997478
2403.29398682,0.02984784
2405.22279419,0.02986963
2407.15160156,0.02977967
2409.08040894,0.02961487
2411.00921631,0.02959787
2412.93802368,0.02968276
2414.86683105,0.02957541
2416.79563843,0.02940864
2418.72444580,0.02954412
2420.65325317,0.02948828
2422.58206055,0.02941825
2424.51086792,0.02941276
2426.43967529,0.02926306
2428.36848267,0.02932118
2430.29729004,0.02931922
2432.22609741,0.02927074
2434.15490479,0.02913640
2436.08371216,0.02901964
2438.01251953,0.02908892
2439.94132690,0.02904676
2441.87013428,0.02901493
2443.79894165,0.02897754
2445.72774902,0.02897120
2447.65655640,0.02893963
2449.58536377,0.02886916
2451.51417114,0.02871677
2453.44297852,0.02869567
2455.37178589,0.02886868
2457.30059326,0.02869336
2459.22940063,0.02860941
2461.15820801,0.02858570
2463.08701538,0.02850230
2465.01582275,0.02849542
2466.94463013,0.02842833
2468.87343750,0.02842966
2470.80224487,0.02831222
2472.73105225,0.02833009
2474.65985962,0.02826313
2476.58866699,0.02821059
2478.51747437,0.02824941
2480.44628174,0.02803659
2482.37508911,0.02805818
2484.30389648,0.02805708
2486.23270386,0.02802899
2488.16151123,0.02792999
2490.09031860,0.02782341
2492.01912598,0.02792108
2493.94793335,0.02787132
2495.87674072,0.02780102
2497.80554810,0.02758111
2499.73435547,0.02764220
2501.66316284,0.02776057
2503.59197021,0.02756065
2505.52077759,0.02752577
2507.44958496,0.02744560
2509.37839233,0.02754202
2511.30719971,0.02752353
2513.23600708,0.02734118
2515.16481445,0.02746285
2517.09362183,0.02746693
2519.02242920,0.02737788
2520.95123657,0.02730411
2522.88004395,0.02723885
2524.80885132,0.02723962
2526.73765869,0.02713071
2528.66646606,0.02694623
2530.59527344,0.02701476
2532.52408081,0.02713596
2534.45288818,0.02693267
2536.38169556,0.02689768
2538.31050293,0.02700644
2540.23931030,0.02688359
2542.16811768,0.02682261
2544.09692505,0.02673804
2546.02573242,0.02668370
2547.95453979,0.02675225
2549.88334717,0.02666675
2551.81215454,0.02667243
2553.74096191,0.02665204
2555.66976929,0.02659466
2557.59857666,0.02659123
2559.52738403,0.02643035
2561.45619141,0.02646632
2563.38499878,0.02640723
2565.31380615,0.02633199
2567.24261353,0.02642932
2569.17142090,0.02635004
2571.10022827,0.02634238
2573.02903564,0.02622752
2574.95784302,0.02617845
2576.88665039,0.02618907
2578.81545776,0.02613251
2580.74426514,0.02615847
2582.67307251,0.02600442
2584.60187988,0.02598407
2586.53068726,0.02599098
2588.45949463,0.02595654
2590.38830200,0.02596870
2592.31710937,0.02590597
2594.24591675,0.02584159
2596.17472412,0.02580013
2598.10353149,0.02591114
2600.03233887,0.02575378
2601.96114624,0.02563675
2603.88995361,0.02568680
2605.81876099,0.02554197
2607.74756836,0.02552125
2609.67637573,0.02541685
2611.60518311,0.02544975
2613.53399048,0.02546725
2615.46279785,0.02532719
2617.39160522,0.02536318
2619.32041260,0.02528029
2621.24921997,0.02531861
2623.17802734,0.02520647
2625.10683472,0.02501915
2627.03564209,0.02522175
2628.96444946,0.02520173
2630.89325684,0.02506676
2632.82206421,0.02505021
2634.75087158,0.02502938
2636.67967895,0.02504252
2638.60848633,0.02495438
2640.53729370,0.02488932
2642.46610107,0.02482772
2644.39490845,0.02476807
2646.32371582,0.02484329
2648.25252319,0.02479197
2650.18133057,0.02469173
2652.11013794,0.02465105
2654.03894531,0.02451982
2655.96775269,0.02456246
2657.89656006,0.02460606
2659.82536743,0.02450546
2661.75417480,0.02454685
2663.68298218,0.02442187
2665.61178955,0.02429948
2667.54059692,0.02432852
2669.46940430,0.02421686
2671.39821167,0.02430522
2673.32701904,0.02437536
2675.25582642,0.02421435
2677.18463379,0.02410737
2679.11344116,0.02407877
2681.04224854,0.02408879
2682.97105591,0.02393314
2684.89986328,0.02392392
2686.82867065,0.02402140
2688.75747803,0.02384783
2690.68628540,0.02379655
2692.61509277,0.02386488
2694.54390015,0.02382686
2696.47270752,0.02375470
2698.40151489,0.02376987
2700.33032227,0.02378649
2702.25912964,0.02367971
2704.18793701,0.02363829
2706.11674438,0.02359342
2708.04555176,0.02344015
2709.97435913,0.02344562
2711.90316650,0.02360129
2713.83197388,0.02347107
2715.76078125,0.02327423
2717.68958862,0.02333855
2719.61839600,0.02336908
2721.54720337,0.02327147
2723.47601074,0.02316362
2725.40481812,0.02315751
2727.33362549,0.02309297
2729.26243286,0.02307323
2731.19124023,0.02313026
2733.12004761,0.02304224
2735.04885498,0.02303565
2736.97766235,0.02294465
2738.90646973,0.02285730
2740.83527710,0.02291886
2742.76408447,0.02286035
2744.69289185,0.02283352
2746.62169922,0.02285064
2748.55050659,0.02276720
2750.47931396,0.02270677
2752.40812134,0.02272844
2754.33692871,0.02256809
2756.26573608,0.02250529
2758.19454346,0.02262047
2760.12335083,0.02251257
2762.05215820,0.02247270
2763.98096558,0.02242446
2765.90977295,0.02238780
2767.83858032,0.02240233
2769.76738770,0.02217414
2771.69619507,0.02214625
2773.62500244,0.02217356
2775.55380981,0.02204585
2777.48261719,0.02216350
2779.41142456,0.02219714
2781.34023193,0.02208731
2783.26903931,0.02200493
2785.19784668,0.02189848
2787.12665405,0.02196863
2789.05546143,0.02184324
2790.98426880,0.02169768
2792.91307617,0.02176613
2794.84188354,0.02165778
2796.77069092,0.02165004
2798.69949829,0.02155055
2800.62830566,0.02148378
2802.55711304,0.02155560
2804.48592041,0.02142914
2806.41472778,0.02148495
2808.34353516,0.02145249
2810.27234253,0.02131760
2812.20114990,0.02134876
2814.12995728,0.02132027
2816.05876465,0.02128933
2817.98757202,0.02127434
2819.91637939,0.02119789
2821.84518677,0.02113157
2823.77399414,0.02114333
2825.70280151,0.02105556
2827.63160889,0.02101663
2829.56041626,0.02101869
2831.48922363,0.02090816
2833.41803101,0.02081765
2835.34683838,0.02077175
2837.27564575,0.02077275
2839.20445312,0.02069760
2841.13326050,0.02073107
2843.06206787,0.02064059
2844.99087524,0.02037750
2846.91968262,0.02028905
2848.84848999,0.02018674
2850.77729736,0.02018322
2852.70610474,0.02018451
2854.63491211,0.02017328
2856.56371948,0.02018202
2858.49252686,0.02015346
2860.42133423,0.02006362
2862.35014160,0.01996672
2864.27894897,0.02004456
2866.20775635,0.01996520
2868.13656372,0.01988694
2870.06537109,0.01980844
2871.99417847,0.01981167
2873.92298584,0.01988008
2875.85179321,0.01970779
2877.78060059,0.01974945
2879.70940796,0.01971480
2881.63821533,0.01966936
2883.56702270,0.01969652
2885.49583008,0.01961603
2887.42463745,0.01964653
2889.35344482,0.01956119
2891.28225220,0.01945847
2893.21105957,0.01939348
2895.13986694,0.01945410
2897.06867432,0.01934474
2898.99748169,0.01919314
2900.92628906,0.01926415
2902.85509644,0.01915834
2904.78390381,0.01916344
2906.71271118,0.01907767
2908.64151855,0.01898388
2910.57032593,0.01895947
2912.49913330,0.01874996
2914.42794067,0.01865195
2916.35674805,0.01860812
2918.28555542,0.01854199
2920.21436279,0.01848444
2922.14317017,0.01858075
2924.07197754,0.01849815
2926.00078491,0.01843314
2927.92959229,0.01850998
2929.85839966,0.01839096
2931.78720703,0.01843346
2933.71601440,0.01831575
2935.64482178,0.01828902
2937.57362915,0.01838435
2939.50243652,0.01839564
2941.43124390,0.01845926
2943.36005127,0.01831648
2945.28885864,0.01842008
2947.21766602,0.01831295
2949.14647339,0.01817028
2951.07528076,0.01830560
2953.00408813,0.01812803
2954.93289551,0.01817835
2956.86170288,0.01818113
2958.79051025,0.01797602
2960.71931763,0.01795704
2962.64812500,0.01793380
2964.57693237,0.01788411
2966.50573975,0.01783375
2968.43454712,0.01787351
2970.36335449,0.01794294
2972.29216187,0.01791532
2974.22096924,0.01785953
2976.14977661,0.01792906
2978.07858398,0.01786618
2980.00739136,0.01780006
2981.93619873,0.01792091
2983.86500610,0.01779108
2985.79381348,0.01775048
2987.72262085,0.01782026
2989.65142822,0.01782833
2991.58023560,0.01780564
2993.50904297,0.01766646
2995.43785034,0.01777877
2997.36665771,0.01766104
2999.29546509,0.01752162
3001.22427246,0.01775372
3003.15307983,0.01760965
3005.08188721,0.01751990
3007.01069458,0.01754342
3008.93950195,0.01738443
3010.86830933,0.01740889
3012.79711670,0.01739326
3014.72592407,0.01731605
3016.65473145,0.01729785
3018.58353882,0.01732631
3020.51234619,0.01726362
3022.44115356,0.01718702
3024.36996094,0.01725304
3026.29876831,0.01713965
3028.22757568,0.01710987
3030.15638306,0.01716244
3032.08519043,0.01698135
3034.01399780,0.01692368
3035.94280518,0.01700025
3037.87161255,0.01696888
3039.80041992,0.01696046
3041.72922729,0.01688477
3043.65803467,0.01673272
3045.58684204,0.01685988
3047.51564941,0.01679939
3049.44445679,0.01667447
3051.37326416,0.01675251
3053.30207153,0.01653719
3055.23087891,0.01654725
3057.15968628,0.01660284
3059.08849365,0.01652862
3061.01730103,0.01652046
3062.94610840,0.01638704
3064.87491577,0.01646411
3066.80372314,0.01638965
3068.73253052,0.01633493
3070.66133789,0.01640104
3072.59014526,0.01626001
3074.51895264,0.01630015
3076.44776001,0.01630984
3078.37656738,0.01623902
3080.30537476,0.01619843
3082.23418213,0.01615094
3084.16298950,0.01617454
3086.09179687,0.01621813
3088.02060425,0.01603925
3089.94941162,0.01582111
3091.87821899,0.01601333
3093.80702637,0.01602176
3095.73583374,0.01585633
3097.66464111,0.01589456
3099.59344849,0.01581253
3101.52225586,0.01571212
3103.45106323,0.01573504
3105.37987061,0.01579488
3107.30867798,0.01572287
3109.23748535,0.01565008
3111.16629272,0.01565467
3113.09510010,0.01554133
3115.02390747,0.01545689
3116.95271484,0.01545270
3118.88152222,0.01535003
3120.81032959,0.01528945
3122.73913696,0.01537465
3124.66794434,0.01537539
3126.59675171,0.01535268
3128.52555908,0.01530350
3130.45436645,0.01517630
3132.38317383,0.01506448
3134.31198120,0.01505483
3136.24078857,0.01510803
3138.16959595,0.01501068
3140.09840332,0.01499031
3142.02721069,0.01491013
3143.95601807,0.01480413
3145.88482544,0.01489073
3147.81363281,0.01481581
3149.74244019,0.01473765
3151.67124756,0.01470600
3153.60005493,0.01465086
3155.52886230,0.01452289
3157.45766968,0.01445289
3159.38647705,0.01453815
3161.31528442,0.01451301
3163.24409180,0.01460707
3165.17289917,0.01450737
3167.10170654,0.01432719
3169.03051392,0.01444950
3170.95932129,0.01429546
3172.88812866,0.01424825
3174.81693604,0.01442020
3176.74574341,0.01419730
3178.67455078,0.01407417
3180.60335815,0.01419545
3182.53216553,0.01407533
3184.46097290,0.01399069
3186.38978027,0.01402354
3188.31858765,0.01392994
3190.24739502,0.01386978
3192.17620239,0.01386725
3194.10500977,0.01380464
3196.03381714,0.01373699
3197.96262451,0.01374525
3199.89143188,0.01374367
3201.82023926,0.01370405
3203.74904663,0.01366509
3205.67785400,0.01371327
3207.60666138,0.01366768
3209.53546875,0.01347727
3211.46427612,0.01356810
3213.39308350,0.01362094
3215.32189087,0.01353659
3217.25069824,0.01349089
3219.17950562,0.01339214
3221.10831299,0.01342556
3223.03712036,0.01336987
3224.96592773,0.01338786
3226.89473511,0.01344406
3228.82354248,0.01326984
3230.75234985,0.01326162
3232.68115723,0.01324331
3234.60996460,0.01312342
3236.53877197,0.01316733
3238.46757935,0.01315432
3240.39638672,0.01306635
3242.32519409,0.01312650
3244.25400146,0.01311145
3246.18280884,0.01308455
3248.11161621,0.01316752
3250.04042358,0.01309077
3251.96923096,0.01301288
3253.89803833,0.01297648
3255.82684570,0.01297951
3257.75565308,0.01295910
3259.68446045,0.01278083
3261.61326782,0.01281158
3263.54207520,0.01299587
3265.47088257,0.01293368
3267.39968994,0.01285101
3269.32849731,0.01296312
3271.25730469,0.01287274
3273.18611206,0.01277888
3275.11491943,0.01287487
3277.04372681,0.01278272
3278.97253418,0.01270181
3280.90134155,0.01271206
3282.83014893,0.01273756
3284.75895630,0.01275925
3286.68776367,0.01271125
3288.61657104,0.01267404
3290.54537842,0.01268590
3292.47418579,0.01268160
3294.40299316,0.01258950
3296.33180054,0.01260332
3298.26060791,0.01260625
3300.18941528,0.01251926
3302.11822266,0.01251548
3304.04703003,0.01254933
3305.97583740,0.01254597
3307.90464478,0.01241001
3309.83345215,0.01232490
3311.76225952,0.01235415
3313.69106689,0.01242856
3315.61987427,0.01246697
3317.54868164,0.01236856
3319.47748901,0.01235589
3321.40629639,0.01244249
3323.33510376,0.01240980
3325.26391113,0.01228231
3327.19271851,0.01226497
3329.12152588,0.01226013
3331.05033325,0.01221013
3332.97914062,0.01224363
3334.90794800,0.01225101
3336.83675537,0.01217823
3338.76556274,0.01218915
3340.69437012,0.01225577
3342.62317749,0.01214580
3344.55198486,0.01212621
3346.48079224,0.01213386
3348.40959961,0.01203300
3350.33840698,0.01209936
3352.26721436,0.01204401
3354.19602173,0.01198667
3356.12482910,0.01205242
3358.05363647,0.01196645
3359.98244385,0.01188771
3361.91125122,0.01196559
3363.84005859,0.01198350
3365.76886597,0.01182828
3367.69767334,0.01179074
3369.62648071,0.01178110
3371.55528809,0.01178141
3373.48409546,0.01180319
3375.41290283,0.01168873
3377.34171020,0.01171598
3379.27051758,0.01177654
3381.19932495,0.01175146
3383.12813232,0.01173030
3385.05693970,0.01164471
3386.98574707,0.01162959
3388.91455444,0.01161882
3390.84336182,0.01154775
3392.77216919,0.01152497
3394.70097656,0.01143895
3396.62978394,0.01144455
3398.55859131,0.01149905
3400.48739868,0.01139690
3402.41620605,0.01140090
3404.34501343,0.01137535
3406.27382080,0.01135209
3408.20262817,0.01137260
3410.13143555,0.01134589
3412.06024292,0.01136806
3413.98905029,0.01122641
3415.91785767,0.01125142
3417.84666504,0.01127166
3419.77547241,0.01110065
3421.70427979,0.01113996
3423.63308716,0.01116432
3425.56189453,0.01116191
3427.49070190,0.01113778
3429.41950928,0.01106307
3431.34831665,0.01101325
3433.27712402,0.01103997
3435.20593140,0.01099377
3437.13473877,0.01095486
3439.06354614,0.01107678
3440.99235352,0.01094901
3442.92116089,0.01093893
3444.84996826,0.01097624
3446.77877563,0.01083186
3448.70758301,0.01089566
3450.63639038,0.01090751
3452.56519775,0.01087772
3454.49400513,0.01091143
3456.42281250,0.01092015
3458.35161987,0.01081840
3460.28042725,0.01076682
3462.20923462,0.01083258
3464.13804199,0.01073549
3466.06684937,0.01062636
3467.99565674,0.01063850
3469.92446411,0.01063951
3471.85327148,0.01060942
3473.78207886,0.01069538
3475.71088623,0.01068516
3477.63969360,0.01063546
3479.56850098,0.01062603
3481.49730835,0.01047601
3483.42611572,0.01054966
3485.35492310,0.01064415
3487.28373047,0.01047770
3489.21253784,0.01043865
3491.14134521,0.01063041
3493.07015259,0.01059785
3494.99895996,0.01047847
3496.92776733,0.01041593
3498.85657471,0.01040011
3500.78538208,0.01057270
3502.71418945,0.01022844
3504.64299683,0.01022956
3506.57180420,0.01059010
3508.50061157,0.01035713
3510.42941895,0.01039863
3512.35822632,0.01044744
3514.28703369,0.01052084
3516.21584106,0.01054462
3518.14464844,0.01040834
3520.07345581,0.01051552
3522.00226318,0.01028545
3523.93107056,0.01014333
3525.85987793,0.01031167
3527.78868530,0.01037542
3529.71749268,0.01030720
3531.64630005,0.01031221
3533.57510742,0.01041099
3535.50391479,0.01036962
3537.43272217,0.01030196
3539.36152954,0.01028911
3541.29033691,0.01032907
3543.21914429,0.01023982
3545.14795166,0.01006466
3547.07675903,0.00995655
3549.00556641,0.01021753
3550.93437378,0.01036658
3552.86318115,0.01014080
3554.79198853,0.01019975
3556.72079590,0.01023091
3558.64960327,0.01032855
3560.57841064,0.01019860
3562.50721802,0.01019665
3564.43602539,0.01028510
3566.36483276,0.00941925
3568.29364014,0.00932744
3570.22244751,0.01011090
3572.15125488,0.01024314
3574.08006226,0.01011917
3576.00886963,0.01023258
3577.93767700,0.01022481
3579.86648437,0.01010296
3581.79529175,0.01015724
3583.72409912,0.01020074
3585.65290649,0.00996875
3587.58171387,0.00920485
3589.51052124,0.00944386
3591.43932861,0.01020937
3593.36813599,0.00986970
3595.29694336,0.00983326
3597.22575073,0.01007513
3599.15455811,0.00994504
3601.08336548,0.00985430
3603.01217285,0.01005950
3604.94098022,0.01014876
3606.86978760,0.00973522
3608.79859497,0.00920789
3610.72740234,0.00938519
3612.65620972,0.00958646
3614.58501709,0.00945073
3616.51382446,0.01005014
3618.44263184,0.00923941
3620.37143921,0.00905439
3622.30024658,0.01009936
3624.22905395,0.00984940
3626.15786133,0.01031227
3628.08666870,0.00873410
3630.01547607,0.00806154
3631.94428345,0.00999827
3633.87309082,0.00970488
3635.80189819,0.00988623
3637.73070557,0.01017017
3639.65951294,0.00993543
3641.58832031,0.00990602
3643.51712769,0.00990506
3645.44593506,0.00994230
3647.37474243,0.00897943
3649.30354980,0.00829753
3651.23235718,0.00839457
3653.16116455,0.00989488
3655.08997192,0.00961931
3657.01877930,0.00877710
3658.94758667,0.01007645
3660.87639404,0.00984615
3662.80520142,0.01002378
3664.73400879,0.00992182
3666.66281616,0.00985612
3668.59162354,0.00944176
3670.52043091,0.00790619
3672.44923828,0.00951080
3674.37804565,0.00879717
3676.30685303,0.00753692
3678.23566040,0.00941874
3680.16446777,0.00961789
3682.09327515,0.00965341
3684.02208252,0.00978881
3685.95088989,0.00972466
3687.87969727,0.00871347
3689.80850464,0.00804313
3691.73731201,0.00913391
3693.66611938,0.00929104
3695.59492676,0.00966204
3697.52373413,0.00962154
3699.45254150,0.00946977
3701.38134888,0.00918768
3703.31015625,0.00888029
3705.23896362,0.00979764
3707.16777100,0.00919591
3709.09657837,0.00903296
3711.02538574,0.00855222
3712.95419312,0.00810611
3714.88300049,0.00944014
3716.81180786,0.00920778
3718.74061523,0.00937133
3720.66942261,0.00908073
3722.59822998,0.00882856
3724.52703735,0.00919963
3726.45584473,0.00847584
3728.38465210,0.00926630
3730.31345947,0.00912687
3732.24226685,0.00838854
3734.17107422,0.00818634
3736.09988159,0.00775005
3738.02868896,0.00820595
3739.95749634,0.00891421
3741.88630371,0.00923680
3743.81511108,0.00711096
3745.74391846,0.00696606
3747.67272583,0.00887072
3749.60153320,0.00747441
3751.53034058,0.00710887
3753.45914795,0.00811755
3755.38795532,0.00869154
3757.31676270,0.00906401
3759.24557007,0.00830400
3761.17437744,0.00862603
3763.10318481,0.00915275
3765.03199219,0.00851795
3766.96079956,0.00864814
3768.88960693,0.00852024
3770.81841431,0.00825758
3772.74722168,0.00891059
3774.67602905,0.00886337
3776.60483643,0.00890740
3778.53364380,0.00869606
3780.46245117,0.00838336
3782.39125854,0.00885774
3784.32006592,0.00861753
3786.24887329,0.00858813
3788.17768066,0.00882330
3790.10648804,0.00873397
3792.03529541,0.00855788
3793.96410278,0.00880666
3795.89291016,0.00839657
3797.82171753,0.00819715
3799.75052490,0.00849678
3801.67933228,0.00688964
3803.60813965,0.00803212
3805.53694702,0.00845937
3807.46575439,0.00714588
3809.39456177,0.00858967
3811.32336914,0.00824951
3813.25217651,0.00868608
3815.18098389,0.00771888
3817.10979126,0.00685790
3819.03859863,0.00871695
3820.96740601,0.00704410
3822.89621338,0.00751261
3824.82502075,0.00859517
3826.75382812,0.00774520
3828.68263550,0.00837213
3830.61144287,0.00804191
3832.54025024,0.00779170
3834.46905762,0.00791702
3836.39786499,0.00754413
3838.32667236,0.00684810
3840.25547974,0.00739182
3842.18428711,0.00794245
3844.11309448,0.00764068
3846.04190186,0.00822708
3847.97070923,0.00807082
3849.89951660,0.00815164
3851.82832397,0.00727048
3853.75713135,0.00551379
3855.68593872,0.00662389
3857.61474609,0.00813741
3859.54355347,0.00783017
3861.47236084,0.00776826
3863.40116821,0.00764770
3865.32997559,0.00708440
3867.25878296,0.00783689
3869.18759033,0.00716877
3871.11639770,0.00672966
3873.04520508,0.00790219
3874.97401245,0.00724141
3876.90281982,0.00787610
3878.83162720,0.00790830
3880.76043457,0.00689172
3882.68924194,0.00794306
3884.61804932,0.00725758
3886.54685669,0.00677828
3888.47566406,0.00793301
3890.40447144,0.00736920
3892.33327881,0.00693866
3894.26208618,0.00772776
3896.19089355,0.00784095
3898.11970093,0.00741109
3900.04850830,0.00697640
3901.97731567,0.00681715
3903.90612305,0.00688021
3905.83493042,0.00702536
3907.76373779,0.00761565
3909.69254517,0.00769983
3911.62135254,0.00761057
3913.55015991,0.00765384
3915.47896728,0.00734365
3917.40777466,0.00720020
3919.33658203,0.00712866
3921.26538940,0.00741207
3923.19419678,0.00745925
3925.12300415,0.00726634
3927.05181152,0.00749708
3928.98061890,0.00747657
3930.90942627,0.00718584
3932.83823364,0.00704445
3934.76704102,0.00728370
3936.69584839,0.00731493
3938.62465576,0.00732829
3940.55346313,0.00743794
3942.48227051,0.00700937
3944.41107788,0.00703832
3946.33988525,0.00734126
3948.26869263,0.00717158
3950.19750000,0.00712876
3952.12630737,0.00715340
3954.05511475,0.00717087
3955.98392212,0.00723812
3957.91272949,0.00721128
3959.84153687,0.00722234
3961.77034424,0.00709113
3963.69915161,0.00708409
3965.62795898,0.00715415
3967.55676636,0.00703720
3969.48557373,0.00716761
3971.41438110,0.00708636
3973.34318848,0.00695901
3975.27199585,0.00704303
3977.20080322,0.00702944
3979.12961060,0.00706813
3981.05841797,0.00697043
3982.98722534,0.00693928
3984.91603271,0.00695160
3986.84484009,0.00696720
3988.77364746,0.00693841
3990.70245483,0.00688606
3992.63126221,0.00693748
3994.56006958,0.00685684
3996.48887695,0.00691337
3998.41768433,0.00683370
4000.34649170,0.00680316
4002.27529907,0.00693104
4004.20410645,0.00684525
4006.13291382,0.00683781
4008.06172119,0.00674336
4009.99052856,0.00668350
4011.91933594,0.00672256
4013.84814331,0.00670163
4015.77695068,0.00668562
4017.70575806,0.00674479
4019.63456543,0.00673728
4021.56337280,0.00667615
4023.49218018,0.00668799
4025.42098755,0.00655796
4027.34979492,0.00660614
4029.27860229,0.00667685
4031.20740967,0.00668486
4033.13621704,0.00660878
4035.06502441,0.00649091
4036.99383179,0.00662107
4038.92263916,0.00652799
4040.85144653,0.00658192
4042.78025391,0.00658559
4044.70906128,0.00640494
4046.63786865,0.00646799
4048.56667603,0.00644969
4050.49548340,0.00643656
4052.42429077,0.00636509
4054.35309814,0.00640440
4056.28190552,0.00640243
4058.21071289,0.00631786
4060.13952026,0.00635871
4062.06832764,0.00631348
4063.99713501,0.00634230
4065.92594238,0.00632714
4067.85474976,0.00631061
4069.78355713,0.00632079
4071.71236450,0.00634499
4073.64117187,0.00626680
4075.56997925,0.00612353
4077.49878662,0.00619912
4079.42759399,0.00625876
4081.35640137,0.00624948
4083.28520874,0.00618541
4085.21401611,0.00624206
4087.14282349,0.00619351
4089.07163086,0.00614867
4091.00043823,0.00628027
4092.92924561,0.00612043
4094.85805298,0.00612125
4096.78686035,0.00615525
4098.71566772,0.00598825
4100.64447510,0.00601076
4102.57328247,0.00612054
4104.50208984,0.00609664
4106.43089722,0.00605580
4108.35970459,0.00606281
4110.28851196,0.00596756
4112.21731934,0.00600863
4114.14612671,0.00594590
4116.07493408,0.00586050
4118.00374145,0.00592316
4119.93254883,0.00591415
4121.86135620,0.00598153
4123.79016357,0.00594659
4125.71897095,0.00592728
4127.64777832,0.00587707
4129.57658569,0.00587799
4131.50539307,0.00588760
4133.43420044,0.00575430
4135.36300781,0.00582386
4137.29181519,0.00578966
4139.22062256,0.00575101
4141.14942993,0.00572321
4143.07823730,0.00570790
4145.00704468,0.00580606
4146.93585205,0.00574049
4148.86465942,0.00574449
4150.79346680,0.00570891
4152.72227417,0.00565487
4154.65108154,0.00568224
4156.57988892,0.00570557
4158.50869629,0.00569824
4160.43750366,0.00562345
4162.36631103,0.00561828
4164.29511841,0.00557753
4166.22392578,0.00560106
4168.15273315,0.00563164
4170.08154053,0.00560285
4172.01034790,0.00563960
4173.93915527,0.00563205
4175.86796265,0.00555370
4177.79677002,0.00545234
4179.72557739,0.00549758
4181.65438477,0.00556894
4183.58319214,0.00550402
4185.51199951,0.00540317
4187.44080688,0.00537806
4189.36961426,0.00540613
4191.29842163,0.00539388
4193.22722900,0.00541092
4195.15603638,0.00540091
4197.08484375,0.00538432
4199.01365112,0.00539677
4200.94245850,0.00533561
4202.87126587,0.00526394
4204.80007324,0.00532837
4206.72888062,0.00534492
4208.65768799,0.00530062
4210.58649536,0.00539976
4212.51530273,0.00531633
4214.44411011,0.00526439
4216.37291748,0.00529678
4218.30172485,0.00514852
4220.23053223,0.00523127
4222.15933960,0.00527774
4224.08814697,0.00521330
4226.01695435,0.00524580
4227.94576172,0.00517594
4229.87456909,0.00519349
4231.80337646,0.00519329
4233.73218384,0.00509622
4235.66099121,0.00509494
4237.58979858,0.00512661
4239.51860596,0.00514995
4241.44741333,0.00515348
4243.37622070,0.00508711
4245.30502808,0.00503708
4247.23383545,0.00512765
4249.16264282,0.00510525
4251.09145020,0.00501148
4253.02025757,0.00504362
4254.94906494,0.00503684
4256.87787231,0.00505163
4258.80667969,0.00494924
4260.73548706,0.00490054
4262.66429443,0.00499980
4264.59310181,0.00492671
4266.52190918,0.00494836
4268.45071655,0.00491583
4270.37952393,0.00488091
4272.30833130,0.00493450
4274.23713867,0.00482264
4276.16594604,0.00486624
4278.09475342,0.00486914
4280.02356079,0.00485034
4281.95236816,0.00494140
4283.88117554,0.00488456
4285.80998291,0.00487412
4287.73879028,0.00489448
4289.66759766,0.00483365
4291.59640503,0.00477569
4293.52521240,0.00477600
4295.45401978,0.00472338
4297.38282715,0.00469346
4299.31163452,0.00473923
4301.24044189,0.00472398
4303.16924927,0.00471666
4305.09805664,0.00470495
4307.02686401,0.00475114
4308.95567139,0.00468165
4310.88447876,0.00459881
4312.81328613,0.00469236
4314.74209351,0.00466882
4316.67090088,0.00463844
4318.59970825,0.00459881
4320.52851562,0.00460936
4322.45732300,0.00467560
4324.38613037,0.00458498
4326.31493774,0.00455244
4328.24374512,0.00457354
4330.17255249,0.00454699
4332.10135986,0.00457396
4334.03016724,0.00458707
4335.95897461,0.00451974
4337.88778198,0.00451992
4339.81658936,0.00448299
4341.74539673,0.00439514
4343.67420410,0.00444691
4345.60301147,0.00445724
4347.53181885,0.00440791
4349.46062622,0.00439363
4351.38943359,0.00440802
4353.31824097,0.00445883
4355.24704834,0.00448160
4357.17585571,0.00439357
4359.10466309,0.00434790
4361.03347046,0.00439773
4362.96227783,0.00432974
4364.89108520,0.00431315
4366.81989258,0.00431043
4368.74869995,0.00429729
4370.67750732,0.00435575
4372.60631470,0.00428842
4374.53512207,0.00429369
4376.46392944,0.00437519
4378.39273682,0.00433356
4380.32154419,0.00426880
4382.25035156,0.00425913
4384.17915894,0.00424462
4386.10796631,0.00423517
4388.03677368,0.00421197
4389.96558105,0.00418532
4391.89438843,0.00421649
4393.82319580,0.00414353
4395.75200317,0.00414851
4397.68081055,0.00417479
4399.60961792,0.00410580
4401.53842529,0.00414837
4403.46723267,0.00409285
4405.39604004,0.00406078
4407.32484741,0.00411302
4409.25365478,0.00409733
4411.18246216,0.00412577
4413.11126953,0.00414484
4415.04007690,0.00406138
4416.96888428,0.00399523
4418.89769165,0.00406173
4420.82649902,0.00406736
4422.75530640,0.00402534
4424.68411377,0.00403005
4426.61292114,0.00399684
4428.54172852,0.00394546
4430.47053589,0.00395343
4432.39934326,0.00397397
4434.32815063,0.00395979
4436.25695801,0.00401078
4438.18576538,0.00402044
4440.11457275,0.00402097
4442.04338013,0.00400123
4443.97218750,0.00395563
4445.90099487,0.00394266
4447.82980225,0.00392346
4449.75860962,0.00397885
4451.68741699,0.00386720
4453.61622437,0.00385975
4455.54503174,0.00391868
4457.47383911,0.00380156
4459.40264648,0.00384915
4461.33145386,0.00380088
4463.26026123,0.00381616
4465.18906860,0.00381176
4467.11787598,0.00374225
4469.04668335,0.00384607
4470.97549072,0.00372090
4472.90429810,0.00375245
4474.83310547,0.00382781
4476.76191284,0.00369082
4478.69072021,0.00372154
4480.61952759,0.00376493
4482.54833496,0.00374204
4484.47714233,0.00365718
4486.40594971,0.00367799
4488.33475708,0.00371008
4490.26356445,0.00367862
4492.19237183,0.00370197
4494.12117920,0.00365001
4496.04998657,0.00371338
4497.97879395,0.00368148
4499.90760132,0.00361181
4501.83640869,0.00367977
4503.76521606,0.00359448
4505.69402344,0.00364279
4507.62283081,0.00367132
4509.55163818,0.00358352
4511.48044556,0.00359593
4513.40925293,0.00355837
4515.33806030,0.00356811
4517.26686768,0.00357728
4519.19567505,0.00361350
4521.12448242,0.00359329
4523.05328979,0.00349371
4524.98209717,0.00350167
4526.91090454,0.00349368
4528.83971191,0.00356291
4530.76851929,0.00354923
4532.69732666,0.00342792
4534.62613403,0.00345080
4536.55494141,0.00345074
4538.48374878,0.00339560
4540.41255615,0.00340752
4542.34136353,0.00342275
4544.27017090,0.00340565
4546.19897827,0.00344571
4548.12778564,0.00338038
4550.05659302,0.00340076
4551.98540039,0.00343918
4553.91420776,0.00326487
4555.84301514,0.00337037
4557.77182251,0.00341778
4559.70062988,0.00333309
4561.62943726,0.00339025
4563.55824463,0.00336705
4565.48705200,0.00334144
4567.41585937,0.00326536
4569.34466675,0.00337585
4571.27347412,0.00342330
4573.20228149,0.00324088
4575.13108887,0.00327670
4577.05989624,0.00333181
4578.98870361,0.00327421
4580.91751099,0.00313081
4582.84631836,0.00318804
4584.77512573,0.00334200
4586.70393311,0.00321707
4588.63274048,0.00322481
4590.56154785,0.00328278
4592.49035522,0.00322405
4594.41916260,0.00327672
4596.34796997,0.00323371
4598.27677734,0.00313045
4600.20558472,0.00317388
4602.13439209,0.00323102
4604.06319946,0.00321721
4605.99200684,0.00313350
4607.92081421,0.00311612
4609.84962158,0.00315408
4611.77842895,0.00310359
4613.70723633,0.00310146
4615.63604370,0.00309001
4617.56485107,0.00305542
4619.49365845,0.00310896
4621.42246582,0.00309662
4623.35127319,0.00304885
4625.28008057,0.00310676
4627.20888794,0.00311977
4629.13769531,0.00304045
4631.06650269,0.00302996
4632.99531006,0.00306231
4634.92411743,0.00308199
4636.85292480,0.00302413
4638.78173218,0.00301865
4640.71053955,0.00304815
4642.63934692,0.00295777
4644.56815430,0.00299333
4646.49696167,0.00297948
4648.42576904,0.00290847
4650.35457642,0.00298410
4652.28338379,0.00299846
4654.21219116,0.00296954
4656.14099853,0.00294346
4658.06980591,0.00292355
4659.99861328,0.00291561
4661.92742065,0.00293145
4663.85622803,0.00290781
4665.78503540,0.00294400
4667.71384277,0.00300015
4669.64265015,0.00285204
4671.57145752,0.00286828
4673.50026489,0.00294150
4675.42907227,0.00285142
4677.35787964,0.00283505
4679.28668701,0.00284529
4681.21549438,0.00288879
4683.14430176,0.00288931
4685.07310913,0.00286162
4687.00191650,0.00290037
4688.93072388,0.00287936
4690.85953125,0.00285575
4692.78833862,0.00286613
4694.71714600,0.00285338
4696.64595337,0.00283869
4698.57476074,0.00278730
4700.50356812,0.00279637
4702.43237549,0.00280723
4704.36118286,0.00276740
4706.28999023,0.00277246
4708.21879761,0.00272272
4710.14760498,0.00275339
4712.07641235,0.00269628
4714.00521973,0.00265687
4715.93402710,0.00277334
4717.86283447,0.00266550
4719.79164185,0.00271834
4721.72044922,0.00277444
4723.64925659,0.00264097
4725.57806396,0.00263494
4727.50687134,0.00264903
4729.43567871,0.00266725
4731.36448608,0.00261774
4733.29329346,0.00260865
4735.22210083,0.00258679
4737.15090820,0.00257729
4739.07971558,0.00258982
4741.00852295,0.00261337
4742.93733032,0.00272120
4744.86613770,0.00264700
4746.79494507,0.00260455
4748.72375244,0.00256976
4750.65255981,0.00257733
4752.58136719,0.00266385
4754.51017456,0.00260269
4756.43898193,0.00255751
4758.36778931,0.00252216
4760.29659668,0.00253942
4762.22540405,0.00254386
4764.15421143,0.00255603
4766.08301880,0.00247911
4768.01182617,0.00245129
4769.94063354,0.00256220
4771.86944092,0.00252679
4773.79824829,0.00247988
4775.72705566,0.00237275
4777.65586304,0.00253039
4779.58467041,0.00252111
4781.51347778,0.00232953
4783.44228516,0.00255286
4785.37109253,0.00243198
4787.29989990,0.00228544
4789.22870728,0.00239993
4791.15751465,0.00247087
4793.08632202,0.00246784
4795.01512939,0.00237863
4796.94393677,0.00237713
4798.87274414,0.00237302
4800.80155151,0.00242024
4802.73035889,0.00236495
4804.65916626,0.00237842
4806.58797363,0.00239722
4808.51678101,0.00236732
4810.44558838,0.00242004
4812.37439575,0.00232257
4814.30320312,0.00244207
4816.23201050,0.00245835
4818.16081787,0.00233439
4820.08962524,0.00231777
4822.01843262,0.00225455
4823.94723999,0.00237879
4825.87604736,0.00242124
4827.80485474,0.00236069
4829.73366211,0.00232107
4831.66246948,0.00227218
4833.59127686,0.00227284
4835.52008423,0.00227142
4837.44889160,0.00223213
4839.37769897,0.00224553
4841.30650635,0.00229020
4843.23531372,0.00220954
4845.16412109,0.00222394
4847.09292847,0.00227113
4849.02173584,0.00225092
4850.95054321,0.00222292
4852.87935059,0.00225108
4854.80815796,0.00223669
4856.73696533,0.00214618
4858.66577270,0.00219595
4860.59458008,0.00216741
4862.52338745,0.00227436
4864.45219482,0.00231792
4866.38100220,0.00215079
4868.30980957,0.00216295
4870.23861694,0.00218664
4872.16742432,0.00220242
4874.09623169,0.00212409
4876.02503906,0.00216686
4877.95384644,0.00217826
4879.88265381,0.00209615
4881.81146118,0.00214217
4883.74026855,0.00210522
4885.66907593,0.00218242
4887.59788330,0.00217944
4889.52669067,0.00212408
4891.45549805,0.00208521
4893.38430542,0.00209777
4895.31311279,0.00215582
4897.24192017,0.00208062
4899.17072754,0.00212403
4901.09953491,0.00208898
4903.02834228,0.00213491
4904.95714966,0.00209779
4906.88595703,0.00201789
4908.81476440,0.00216429
4910.74357178,0.00209193
4912.67237915,0.00206843
4914.60118652,0.00203881
4916.52999390,0.00204240
4918.45880127,0.00204931
4920.38760864,0.00196267
4922.31641602,0.00206852
4924.24522339,0.00203368
4926.17403076,0.00200607
4928.10283813,0.00205457
4930.03164551,0.00200750
4931.96045288,0.00199331
4933.88926025,0.00199864
4935.81806763,0.00196639
4937.74687500,0.00196804
4939.67568237,0.00198390
4941.60448975,0.00190678
4943.53329712,0.00194083
4945.46210449,0.00194373
4947.39091187,0.00196188
4949.31971924,0.00201907
4951.24852661,0.00190463
4953.17733398,0.00192442
4955.10614136,0.00197106
4957.03494873,0.00194042
4958.96375610,0.00194928
4960.89256348,0.00191527
4962.82137085,0.00190040
4964.75017822,0.00193304
4966.67898560,0.00193841
4968.60779297,0.00189766
4970.53660034,0.00186159
4972.46540771,0.00191466
4974.39421509,0.00191392
4976.32302246,0.00185019
4978.25182983,0.00189569
4980.18063721,0.00183484
4982.10944458,0.00186256
4984.03825195,0.00188128
4985.96705933,0.00181622
4987.89586670,0.00192451
4989.82467407,0.00184464
4991.75348145,0.00188678
4993.68228882,0.00187236
4995.61109619,0.00178382
4997.53990356,0.00190897
4999.46871094,0.00179219
5001.39751831,0.00184361
5003.32632568,0.00190780
5005.25513306,0.00182355
5007.18394043,0.00183956
5009.11274780,0.00182496
5011.04155518,0.00181626
5012.97036255,0.00177348
5014.89916992,0.00180777
5016.82797729,0.00177307
5018.75678467,0.00178151
5020.68559204,0.00180347
5022.61439941,0.00173380
5024.54320679,0.00178195
5026.47201416,0.00177357
5028.40082153,0.00172881
5030.32962891,0.00171401
5032.25843628,0.00176789
5034.18724365,0.00174961
5036.11605103,0.00175563
5038.04485840,0.00178344
5039.97366577,0.00171026
5041.90247314,0.00174335
5043.83128052,0.00168613
5045.76008789,0.00170507
5047.68889526,0.00171399
5049.61770264,0.00163683
5051.54651001,0.00166932
5053.47531738,0.00166171
5055.40412476,0.00168787
5057.33293213,0.00170103
5059.26173950,0.00171595
5061.19054687,0.00162369
5063.11935425,0.00160464
5065.04816162,0.00167264
5066.97696899,0.00159965
5068.90577637,0.00160536
5070.83458374,0.00164999
5072.76339111,0.00172258
5074.69219849,0.00163502
5076.62100586,0.00159106
5078.54981323,0.00161901
5080.47862061,0.00156146
5082.40742798,0.00161364
5084.33623535,0.00154663
5086.26504272,0.00161176
5088.19385010,0.00163435
5090.12265747,0.00158769
5092.05146484,0.00166222
5093.98027222,0.00159644
5095.90907959,0.00160519
5097.83788696,0.00153330
5099.76669434,0.00154203
5101.69550171,0.00156773
5103.62430908,0.00152384
5105.55311645,0.00162998
5107.48192383,0.00153232
5109.41073120,0.00154136
5111.33953857,0.00157351
5113.26834595,0.00147095
5115.19715332,0.00155344
5117.12596069,0.00154477
5119.05476807,0.00147065
5120.98357544,0.00149026
5122.91238281,0.00149612
5124.84119019,0.00146552
5126.76999756,0.00147558
5128.69880493,0.00148950
5130.62761230,0.00150190
5132.55641968,0.00150763
5134.48522705,0.00143702
5136.41403442,0.00147063
5138.34284180,0.00146910
5140.27164917,0.00140576
5142.20045654,0.00145478
5144.12926392,0.00144107
5146.05807129,0.00147523
5147.98687866,0.00147937
5149.91568603,0.00139813
5151.84449341,0.00144783
5153.77330078,0.00145225
5155.70210815,0.00142740
5157.63091553,0.00141477
5159.55972290,0.00143868
5161.48853027,0.00147391
5163.41733765,0.00138191
5165.34614502,0.00141393
5167.27495239,0.00141533
5169.20375977,0.00134999
5171.13256714,0.00142163
5173.06137451,0.00140728
5174.99018188,0.00139319
5176.91898926,0.00138943
5178.84779663,0.00138757
5180.77660400,0.00141811
5182.70541138,0.00135600
5184.63421875,0.00136442
5186.56302612,0.00140770
5188.49183350,0.00138196
5190.42064087,0.00134918
5192.34944824,0.00132305
5194.27825562,0.00135542
5196.20706299,0.00131585
5198.13587036,0.00128160
5200.06467773,0.00140451
5201.99348511,0.00136769
5203.92229248,0.00133549
5205.85109985,0.00138019
5207.77990723,0.00127304
5209.70871460,0.00132607
5211.63752197,0.00132638
5213.56632935,0.00130546
5215.49513672,0.00139100
5217.42394409,0.00130220
5219.35275146,0.00132020
5221.28155884,0.00131812
5223.21036621,0.00127452
5225.13917358,0.00124381
5227.06798096,0.00122245
5228.99678833,0.00133377
5230.92559570,0.00122166
5232.85440308,0.00125839
5234.78321045,0.00138129
5236.71201782,0.00125905
5238.64082520,0.00130261
5240.56963257,0.00130203
5242.49843994,0.00129110
5244.42724731,0.00130292
5246.35605469,0.00119445
5248.28486206,0.00117546
5250.21366943,0.00119463
5252.14247681,0.00124585
5254.07128418,0.00123138
5256.00009155,0.00123677
5257.92889893,0.00131195
5259.85770630,0.00125359
5261.78651367,0.00121296
5263.71532104,0.00115912
5265.64412842,0.00117951
5267.57293579,0.00126752
5269.50174316,0.00121293
5271.43055054,0.00122773
5273.35935791,0.00124080
5275.28816528,0.00121384
5277.21697266,0.00119220
5279.14578003,0.00118275
5281.07458740,0.00123218
5283.00339478,0.00116712
5284.93220215,0.00118211
5286.86100952,0.00120324
5288.78981689,0.00114014
5290.71862427,0.00117069
5292.64743164,0.00115788
5294.57623901,0.00119708
5296.50504639,0.00120323
5298.43385376,0.00116486
5300.36266113,0.00116605
5302.29146851,0.00113973
5304.22027588,0.00117457
5306.14908325,0.00114434
5308.07789062,0.00114289
5310.00669800,0.00116438
5311.93550537,0.00114200
5313.86431274,0.00117048
5315.79312012,0.00117541
5317.72192749,0.00121948
5319.65073486,0.00115942
5321.57954224,0.00109642
5323.50834961,0.00113714
5325.43715698,0.00109760
5327.36596436,0.00112538
5329.29477173,0.00113367
5331.22357910,0.00110599
5333.15238647,0.00115225
5335.08119385,0.00114741
5337.01000122,0.00107013
5338.93880859,0.00102905
5340.86761597,0.00111137
5342.79642334,0.00111898
5344.72523071,0.00107541
5346.65403809,0.00111196
5348.58284546,0.00109980
5350.51165283,0.00108050
5352.44046020,0.00103724
5354.36926758,0.00102590
5356.29807495,0.00110779
5358.22688232,0.00109305
5360.15568970,0.00105950
5362.08449707,0.00109624
5364.01330444,0.00105680
5365.94211182,0.00103229
5367.87091919,0.00108978
5369.79972656,0.00108589
5371.72853394,0.00105596
5373.65734131,0.00104711
5375.58614868,0.00104101
5377.51495605,0.00103711
5379.44376343,0.00105627
5381.37257080,0.00103957
5383.30137817,0.00099807
5385.23018555,0.00106179
5387.15899292,0.00099734
5389.08780029,0.00098778
5391.01660767,0.00107473
5392.94541504,0.00094325
5394.87422241,0.00102591
5396.80302978,0.00105269
5398.73183716,0.00089554
5400.66064453,0.00099810
5402.58945190,0.00101933
5404.51825928,0.00098718
5406.44706665,0.00102441
5408.37587402,0.00100421
5410.30468140,0.00097634
5412.23348877,0.00097086
5414.16229614,0.00098447
5416.09110352,0.00097592
5418.01991089,0.00098887
5419.94871826,0.00100500
5421.87752563,0.00098072
5423.80633301,0.00093273
5425.73514038,0.00095681
5427.66394775,0.00096007
5429.59275513,0.00093629
5431.52156250,0.00100271
5433.45036987,0.00098772
5435.37917725,0.00093473
5437.30798462,0.00097408
5439.23679199,0.00102828
5441.16559936,0.00091965
5443.09440674,0.00090151
5445.02321411,0.00097370
5446.95202148,0.00090431
5448.88082886,0.00094338
5450.80963623,0.00085741
5452.73844360,0.00086775
5454.66725098,0.00097565
5456.59605835,0.00092030
5458.52486572,0.00096922
5460.45367310,0.00085823
5462.38248047,0.00088004
5464.31128784,0.00098482
5466.24009521,0.00095421
5468.16890259,0.00094633
5470.09770996,0.00086541
5472.02651733,0.00095261
5473.95532471,0.00089126
5475.88413208,0.00078979
5477.81293945,0.00087989
5479.74174683,0.00089309
5481.67055420,0.00090421
5483.59936157,0.00085218
5485.52816895,0.00086442
5487.45697632,0.00087339
5489.38578369,0.00086196
5491.31459106,0.00091626
5493.24339844,0.00087064
5495.17220581,0.00086679
5497.10101318,0.00087553
5499.02982056,0.00084114
5500.95862793,0.00089619
5502.88743530,0.00090079
5504.81624268,0.00084158
5506.74505005,0.00088191
5508.67385742,0.00088453
5510.60266479,0.00086884
5512.53147217,0.00086353
5514.46027954,0.00084329
5516.38908691,0.00085201
5518.31789429,0.00078739
5520.24670166,0.00080796
5522.17550903,0.00081993
5524.10431641,0.00082209
5526.03312378,0.00090709
5527.96193115,0.00087159
5529.89073853,0.00081175
5531.81954590,0.00076360
5533.74835327,0.00078305
5535.67716064,0.00084226
5537.60596802,0.00082560
5539.53477539,0.00075022
5541.46358276,0.00076405
5543.39239014,0.00083079
5545.32119751,0.00077686
5547.25000488,0.00080928
5549.17881226,0.00081715
5551.10761963,0.00079528
5553.03642700,0.00084412
5554.96523437,0.00082887
5556.89404175,0.00077434
5558.82284912,0.00077185
5560.75165649,0.00084708
5562.68046387,0.00080839
5564.60927124,0.00078687
5566.53807861,0.00075996
5568.46688599,0.00077670
5570.39569336,0.00083177
5572.32450073,0.00074251
5574.25330811,0.00077688
5576.18211548,0.00076615
5578.11092285,0.00080533
5580.03973022,0.00082050
5581.96853760,0.00075532
5583.89734497,0.00081602
5585.82615234,0.00070744
5587.75495972,0.00070437
5589.68376709,0.00070808
5591.61257446,0.00064485
5593.54138184,0.00073357
5595.47018921,0.00074445
5597.39899658,0.00070651
5599.32780395,0.00071205
5601.25661133,0.00073238
5603.18541870,0.00074452
5605.11422607,0.00080386
5607.04303345,0.00073344
5608.97184082,0.00073586
5610.90064819,0.00077062
5612.82945557,0.00070697
5614.75826294,0.00082466
5616.68707031,0.00070757
5618.61587769,0.00066571
5620.54468506,0.00075094
5622.47349243,0.00067507
5624.40229980,0.00073231
5626.33110718,0.00070601
5628.25991455,0.00072158
5630.18872192,0.00070456
5632.11752930,0.00063710
5634.04633667,0.00070819
5635.97514404,0.00073441
5637.90395142,0.00073001
5639.83275879,0.00069321
5641.76156616,0.00072459
5643.69037353,0.00078994
5645.61918091,0.00073680
5647.54798828,0.00064751
5649.47679565,0.00067057
5651.40560303,0.00068569
5653.33441040,0.00070938
5655.26321777,0.00075115
5657.19202515,0.00065814
5659.12083252,0.00067307
5661.04963989,0.00068644
5662.97844727,0.00067595
5664.90725464,0.00069819
5666.83606201,0.00063412
5668.76486938,0.00062030
5670.69367676,0.00068661
5672.62248413,0.00074277
5674.55129150,0.00058842
5676.48009888,0.00060594
5678.40890625,0.00076259
5680.33771362,0.00064048
5682.26652100,0.00061139
5684.19532837,0.00067144
5686.12413574,0.00064481
5688.05294311,0.00060329
5689.98175049,0.00061147
5691.91055786,0.00059858
5693.83936523,0.00061744
5695.76817261,0.00069084
5697.69697998,0.00066807
5699.62578735,0.00073524
5701.55459473,0.00069621
5703.48340210,0.00055172
5705.41220947,0.00062306
5707.34101685,0.00070403
5709.26982422,0.00067306
5711.19863159,0.00063863
5713.12743896,0.00062770
5715.05624634,0.00059141
5716.98505371,0.00061319
5718.91386108,0.00061674
5720.84266846,0.00055879
5722.77147583,0.00060381
5724.70028320,0.00062991
5726.62909058,0.00058662
5728.55789795,0.00060121
5730.48670532,0.00056450
5732.41551270,0.00049674
5734.34432007,0.00058292
5736.27312744,0.00062272
5738.20193481,0.00060876
5740.13074219,0.00063658
5742.05954956,0.00060266
5743.98835693,0.00057799
5745.91716431,0.00057937
5747.84597168,0.00062134
5749.77477905,0.00057749
5751.70358643,0.00056086
5753.63239380,0.00063955
5755.56120117,0.00061001
5757.49000854,0.00063784
5759.41881592,0.00058443
5761.34762329,0.00048856
5763.27643066,0.00060299
5765.20523804,0.00065396
5767.13404541,0.00056728
5769.06285278,0.00055097
5770.99166016,0.00057623
5772.92046753,0.00054984
5774.84927490,0.00058391
5776.77808228,0.00058987
5778.70688965,0.00054668
5780.63569702,0.00057606
5782.56450439,0.00061661
5784.49331177,0.00063569
5786.42211914,0.00054658
5788.35092651,0.00053210
5790.27973389,0.00059002
5792.20854126,0.00046539
5794.13734863,0.00046572
5796.06615601,0.00056527
5797.99496338,0.00050847
5799.92377075,0.00053166
5801.85257812,0.00058152
5803.78138550,0.00054574
5805.71019287,0.00052717
5807.63900024,0.00052499
5809.56780762,0.00053638
5811.49661499,0.00054293
5813.42542236,0.00056903
5815.35422974,0.00052108
5817.28303711,0.00050806
5819.21184448,0.00056287
5821.14065186,0.00049439
5823.06945923,0.00050116
5824.99826660,0.00051837
5826.92707397,0.00047802
5828.85588135,0.00047378
5830.78468872,0.00049261
5832.71349609,0.00049143
5834.64230347,0.00042810
5836.57111084,0.00046532
5838.49991821,0.00048483
5840.42872559,0.00050765
5842.35753296,0.00046288
5844.28634033,0.00040609
5846.21514770,0.00053101
5848.14395508,0.00043820
5850.07276245,0.00043827
5852.00156982,0.00057396
5853.93037720,0.00048354
5855.85918457,0.00045446
5857.78799194,0.00047961
5859.71679932,0.00049485
5861.64560669,0.00052989
5863.57441406,0.00051746
5865.50322144,0.00046698
5867.43202881,0.00048396
5869.36083618,0.00048072
5871.28964355,0.00047064
5873.21845093,0.00049613
5875.14725830,0.00043940
5877.07606567,0.00041398
5879.00487305,0.00040514
5880.93368042,0.00048022
5882.86248779,0.00047095
5884.79129517,0.00042556
5886.72010254,0.00051106
5888.64890991,0.00044817
5890.57771728,0.00047581
5892.50652466,0.00049370
5894.43533203,0.00047530
5896.36413940,0.00043576
5898.29294678,0.00027975
5900.22175415,0.00040026
5902.15056152,0.00043906
5904.07936890,0.00039432
5906.00817627,0.00043879
5907.93698364,0.00040378
5909.86579102,0.00045707
5911.79459839,0.00040395
5913.72340576,0.00040009
5915.65221313,0.00047054
5917.58102051,0.00037696
5919.50982788,0.00042508
5921.43863525,0.00050207
5923.36744263,0.00042885
5925.29625000,0.00041602
5927.22505737,0.00041327
5929.15386475,0.00044390
5931.08267212,0.00048025
5933.01147949,0.00038483
5934.94028686,0.00041278
5936.86909424,0.00043273
5938.79790161,0.00038827
5940.72670898,0.00047974
5942.65551636,0.00044788
5944.58432373,0.00042976
5946.51313110,0.00042401
5948.44193848,0.00034448
5950.37074585,0.00042156
5952.29955322,0.00041103
5954.22836060,0.00037758
5956.15716797,0.00043044
5958.08597534,0.00036329
5960.01478271,0.00032599
5961.94359009,0.00038743
5963.87239746,0.00042603
5965.80120483,0.00035136
5967.73001221,0.00035125
5969.65881958,0.00045769
5971.58762695,0.00038264
5973.51643433,0.00034624
5975.44524170,0.00043744
5977.37404907,0.00040083
5979.30285645,0.00035872
5981.23166382,0.00044660
5983.16047119,0.00044738
5985.08927856,0.00035808
5987.01808594,0.00039649
5988.94689331,0.00039106
5990.87570068,0.00036474
5992.80450806,0.00038589
5994.73331543,0.00036756
5996.66212280,0.00041000
5998.59093018,0.00039861
6000.51973755,0.00036756
