399.26312622,0.00228016
401.19193359,0.00306813
403.12074097,0.00288001
405.04954834,0.00381293
406.97835571,0.00407164
408.90716309,0.00410045
410.83597046,0.00412619
412.76477783,0.00388604
414.69358521,0.00435724
416.62239258,0.00418724
418.55119995,0.00386810
420.48000732,0.00425561
422.40881470,0.00441595
424.33762207,0.00436830
426.26642944,0.00478022
428.19523682,0.00479294
430.12404419,0.00460675
432.05285156,0.00493987
433.98165894,0.00445590
435.91046631,0.00402857
437.83927368,0.00452709
439.76808105,0.00459227
441.69688843,0.00419126
443.62569580,0.00408609
445.55450317,0.00423473
447.48331055,0.00406345
449.41211792,0.00401671
451.34092529,0.00394376
453.26973267,0.00358449
455.19854004,0.00372805
457.12734741,0.00312997
459.05615479,0.00261346
460.98496216,0.00279968
462.91376953,0.00212465
464.84257690,0.00237665
466.77138428,0.00240377
468.70019165,0.00158371
470.62899902,0.00220282
472.55780640,0.00227696
474.48661377,0.00162113
476.41542114,0.00162741
478.34422852,0.00150501
480.27303589,0.00133354
482.20184326,0.00125415
484.13065063,0.00075118
486.05945801,0.00071277
487.98826538,0.00135910
489.91707275,0.00144631
491.84588013,0.00112478
493.77468750,0.00065203
495.70349487,0.00071686
497.63230225,0.00082565
499.56110962,0.00069813
501.48991699,0.00107368
503.41872437,0.00100284
505.34753174,0.00062637
507.27633911,0.00092235
509.20514648,0.00068153
511.13395386,0.00051184
513.06276123,0.00110362
514.99156860,0.00080896
516.92037598,0.00059992
518.84918335,0.00081711
520.77799072,0.00076261
522.70679810,0.00044095
524.63560547,0.00080506
526.56441284,0.00065909
528.49322021,0.00029253
530.42202759,0.00090126
532.35083496,0.00078643
534.27964233,0.00071605
536.20844971,0.00059197
538.13725708,0.00067380
540.06606445,0.00054573
541.99487183,0.00042094
543.92367920,0.00106359
545.85248657,0.00036991
547.78129395,0.00050902
549.71010132,0.00073969
551.63890869,0.00053013
553.56771606,0.00116801
555.49652344,0.00057037
557.42533081,0.00058225
559.35413818,0.00093936
561.28294556,0.00068339
563.21175293,0.00094242
565.14056030,0.00100180
567.06936768,0.00067290
568.99817505,0.00043921
570.92698242,0.00085075
572.85578979,0.00110742
574.78459717,0.00071467
576.71340454,0.00033679
578.64221191,0.00051040
580.57101929,0.00088709
582.49982666,0.00061926
584.42863403,0.00063040
586.35744141,0.00104938
588.28624878,0.00075325
590.21505615,0.00075920
592.14386353,0.00114590
594.07267090,0.00075684
596.00147827,0.00058418
597.93028564,0.00078730
599.85909302,0.00089118
601.78790039,0.00070957
603.71670776,0.00037423
605.64551514,0.00068827
607.57432251,0.00061526
609.50312988,0.00041854
611.43193726,0.00042085
613.36074463,0.00040126
615.28955200,0.00020455
617.21835938,0.00009854
619.14716675,0.00019824
621.07597412,0.00027814
623.00478149,0.00043094
624.93358887,0.00006178
626.86239624,0.00001703
628.79120361,0.00024756
630.72001099,0.00102756
632.64881836,0.00233098
634.57762573,0.00249752
636.50643311,0.00280135
638.43524048,0.00372504
640.36404785,0.00386290
642.29285522,0.00406222
644.22166260,0.00443589
646.15046997,0.00483602
648.07927734,0.00557075
650.00808472,0.00547049
651.93689209,0.00542298
653.86569946,0.00598991
655.79450684,0.00599580
657.72331421,0.00581766
659.65212158,0.00628884
661.58092896,0.00658758
663.50973633,0.00662055
665.43854370,0.00726907
667.36735107,0.00663017
669.29615845,0.00704875
671.22496582,0.00883809
673.15377319,0.00836588
675.08258057,0.00857176
677.01138794,0.00902197
678.94019531,0.00890477
680.86900269,0.00907542
682.79781006,0.00867651
684.72661743,0.00901755
686.65542480,0.00911990
688.58423218,0.00884627
690.51303955,0.00938808
692.44184692,0.01037967
694.37065430,0.01087630
696.29946167,0.01177279
698.22826904,0.01360615
700.15707642,0.01457184
702.08588379,0.01437765
704.01469116,0.01312942
705.94349854,0.01197218
707.87230591,0.01028796
709.80111328,0.00796062
711.72992065,0.00585927
713.65872803,0.00337745
715.58753540,0.00204675
717.51634277,0.00134502
719.44515015,0.00117641
721.37395752,0.00106053
723.30276489,0.00052109
725.23157227,0.00071493
727.16037964,0.00017447
729.08918701,0.00000895
731.01799438,0.00048531
732.94680176,0.00026230
734.87560913,0.00013730
736.80441650,0.00020667
738.73322388,-0.00010979
740.66203125,-0.00003836
742.59083862,0.00059249
744.51964600,0.00040874
746.44845337,0.00072531
748.37726074,0.00075996
750.30606812,0.00046962
752.23487549,0.00076866
754.16368286,0.00049839
756.09249023,0.00028948
758.02129761,0.00045377
759.95010498,0.00053041
761.87891235,0.00071615
763.80771973,0.00031138
765.73652710,0.00038087
767.66533447,0.00067152
769.59414185,0.00044182
771.52294922,0.00058548
773.45175659,0.00092113
775.38056396,0.00069202
777.30937134,0.00076117
779.23817871,0.00070140
781.16698608,0.00069281
783.09579346,0.00076169
785.02460083,0.00080972
786.95340820,0.00098561
788.88221558,0.00070965
790.81102295,0.00102933
792.73983032,0.00087441
794.66863770,0.00098209
796.59744507,0.00130101
798.52625244,0.00126244
800.45505981,0.00218295
802.38386719,0.00177377
804.31267456,0.00131917
806.24148193,0.00132340
808.17028931,0.00131507
810.09909668,0.00150385
812.02790405,0.00070065
813.95671143,0.00065224
815.88551880,0.00070683
817.81432617,0.00080068
819.74313354,0.00081997
821.67194092,0.00067247
823.60074829,0.00121020
825.52955566,0.00130706
827.45836304,0.00149347
829.38717041,0.00156786
831.31597778,0.00201059
833.24478516,0.00245055
835.17359253,0.00278532
837.10239990,0.00341129
839.03120728,0.00309260
840.96001465,0.00287864
842.88882202,0.00270388
844.81762939,0.00260285
846.74643677,0.00228544
848.67524414,0.00190662
850.60405151,0.00208041
852.53285889,0.00182613
854.46166626,0.00175226
856.39047363,0.00135509
858.31928101,0.00127789
860.24808838,0.00148661
862.17689575,0.00090415
864.10570313,0.00081510
866.03451050,0.00089306
867.96331787,0.00068778
869.89212524,0.00055773
871.82093262,0.00067909
873.74973999,0.00080730
875.67854736,0.00081532
877.60735474,0.00055913
879.53616211,0.00043132
881.46496948,0.00075157
883.39377686,0.00062589
885.32258423,0.00075677
887.25139160,0.00072923
889.18019897,0.00050978
891.10900635,0.00093712
893.03781372,0.00091572
894.96662109,0.00066062
896.89542847,0.00063722
898.82423584,0.00070763
900.75304321,0.00095435
902.68185059,0.00102322
904.61065796,0.00083402
906.53946533,0.00088072
908.46827271,0.00091958
910.39708008,0.00119724
912.32588745,0.00146920
914.25469482,0.00147389
916.18350220,0.00198920
918.11230957,0.00205662
920.04111694,0.00205574
921.96992432,0.00237603
923.89873169,0.00248713
925.82753906,0.00282665
927.75634644,0.00287335
929.68515381,0.00288545
931.61396118,0.00319363
933.54276855,0.00349431
935.47157593,0.00378432
937.40038330,0.00404787
939.32919067,0.00431107
941.25799805,0.00445965
943.18680542,0.00441273
945.11561279,0.00433416
947.04442017,0.00426329
948.97322754,0.00428873
950.90203491,0.00446733
952.83084229,0.00418068
954.75964966,0.00402408
956.68845703,0.00441854
958.61726440,0.00450054
960.54607178,0.00406802
962.47487915,0.00400503
964.40368652,0.00462558
966.33249390,0.00463482
968.26130127,0.00462769
970.19010864,0.00488394
972.11891602,0.00515171
974.04772339,0.00560981
975.97653076,0.00586910
977.90533813,0.00648931
979.83414551,0.00667731
981.76295288,0.00735264
983.69176025,0.00856669
985.62056763,0.00926936
987.54937500,0.01053394
989.47818237,0.01168216
991.40698975,0.01297665
993.33579712,0.01421315
995.26460449,0.01544003
997.19341187,0.01702272
999.12221924,0.01828850
1001.05102661,0.01970733
1002.97983398,0.02080889
1004.90864136,0.02211176
1006.83744873,0.02372739
1008.76625610,0.02523771
1010.69506348,0.02665888
1012.62387085,0.02796395
1014.55267822,0.02950055
1016.48148560,0.03077728
1018.41029297,0.03249200
1020.33910034,0.03419190
1022.26790771,0.03535676
1024.19671509,0.03682406
1026.12552246,0.03822477
1028.05432983,0.03935547
1029.98313721,0.04045776
1031.91194458,0.04164389
1033.84075195,0.04243347
1035.76955933,0.04308932
1037.69836670,0.04365899
1039.62717407,0.04389456
1041.55598145,0.04382309
1043.48478882,0.04329247
1045.41359619,0.04296252
1047.34240356,0.04249318
1049.27121094,0.04168155
1051.20001831,0.04089155
1053.12882568,0.04027581
1055.05763306,0.03936754
1056.98644043,0.03819088
1058.91524780,0.03754995
1060.84405518,0.03629662
1062.77286255,0.03504925
1064.70166992,0.03426670
1066.63047729,0.03276494
1068.55928467,0.03129094
1070.48809204,0.03000953
1072.41689941,0.02872225
1074.34570679,0.02732659
1076.27451416,0.02606038
1078.20332153,0.02507010
1080.13212891,0.02396597
1082.06093628,0.02288296
1083.98974365,0.02153702
1085.91855103,0.02049847
1087.84735840,0.01972483
1089.77616577,0.01855481
1091.70497314,0.01781790
1093.63378052,0.01714620
1095.56258789,0.01629497
1097.49139526,0.01591269
1099.42020264,0.01552807
1101.34901001,0.01510732
1103.27781738,0.01470815
1105.20662476,0.01432112
1107.13543213,0.01422103
1109.06423950,0.01388267
1110.99304687,0.01356544
1112.92185425,0.01362953
1114.85066162,0.01338795
1116.77946899,0.01325476
1118.70827637,0.01359853
1120.63708374,0.01359303
1122.56589111,0.01342397
1124.49469849,0.01367708
1126.42350586,0.01390444
1128.35231323,0.01404423
1130.28112061,0.01450366
1132.20992798,0.01497456
1134.13873535,0.01531665
1136.06754272,0.01606414
1137.99635010,0.01698549
1139.92515747,0.01785548
1141.85396484,0.01898965
1143.78277222,0.02020454
1145.71157959,0.02151292
1147.64038696,0.02281772
1149.56919434,0.02414398
1151.49800171,0.02555451
1153.42680908,0.02683587
1155.35561646,0.02796918
1157.28442383,0.02896920
1159.21323120,0.03025782
1161.14203857,0.03133553
1163.07084595,0.03224192
1164.99965332,0.03356766
1166.92846069,0.03473255
1168.85726807,0.03599455
1170.78607544,0.03740425
1172.71488281,0.03892440
1174.64369019,0.04042806
1176.57249756,0.04161081
1178.50130493,0.04332910
1180.43011230,0.04520956
1182.35891968,0.04685337
1184.28772705,0.04903806
1186.21653442,0.05137410
1188.14534180,0.05360404
1190.07414917,0.05616620
1192.00295654,0.05879944
1193.93176392,0.06143025
1195.86057129,0.06421033
1197.78937866,0.06716381
1199.71818604,0.07027724
1201.64699341,0.07326614
1203.57580078,0.07624324
1205.50460815,0.07920285
1207.43341553,0.08190858
1209.36222290,0.08463721
1211.29103027,0.08742982
1213.21983765,0.08973052
1215.14864502,0.09195008
1217.07745239,0.09419534
1219.00625977,0.09569815
1220.93506714,0.09719773
1222.86387451,0.09854499
1224.79268188,0.09935914
1226.72148926,0.10013916
1228.65029663,0.10065137
1230.57910400,0.10104440
1232.50791138,0.10118195
1234.43671875,0.10117447
1236.36552612,0.10113085
1238.29433350,0.10099852
1240.22314087,0.10075837
1242.15194824,0.10034775
1244.08075562,0.10002464
1246.00956299,0.09938729
1247.93837036,0.09885281
1249.86717773,0.09818868
1251.79598511,0.09726894
1253.72479248,0.09647866
1255.65359985,0.09498462
1257.58240723,0.09354216
1259.51121460,0.09224002
1261.44002197,0.09087141
1263.36882935,0.08981976
1265.29763672,0.08857067
1267.22644409,0.08745928
1269.15525146,0.08625726
1271.08405884,0.08486118
1273.01286621,0.08349451
1274.94167358,0.08205737
1276.87048096,0.08061565
1278.79928833,0.07881998
1280.72809570,0.07720055
1282.65690308,0.07573780
1284.58571045,0.07428669
1286.51451782,0.07298741
1288.44332520,0.07134186
1290.37213257,0.07053790
1292.30093994,0.07020833
1294.22974731,0.06939828
1296.15855469,0.06895921
1298.08736206,0.06865565
1300.01616943,0.06893974
1301.94497681,0.06948537
1303.87378418,0.06999829
1305.80259155,0.07064836
1307.73139893,0.07121466
1309.66020630,0.07280219
1311.58901367,0.07392815
1313.51782104,0.07493401
1315.44662842,0.07703578
1317.37543579,0.07838751
1319.30424316,0.08025390
1321.23305054,0.08330677
1323.16185791,0.08600701
1325.09066528,0.08826663
1327.01947266,0.09086712
1328.94828003,0.09330294
1330.87708740,0.09543040
1332.80589478,0.09784422
1334.73470215,0.09952646
1336.66350952,0.10038785
1338.59231689,0.09949099
1340.52112427,0.10064125
1342.44993164,0.10499589
1344.37873901,0.10569246
1346.30754639,0.10572144
1348.23635376,0.10561543
1350.16516113,0.10448651
1352.09396851,0.10481720
1354.02277588,0.10304925
1355.95158325,0.10216949
1357.88039062,0.10191940
1359.80919800,0.10005186
1361.73800537,0.09575208
1363.66681274,0.09387898
1365.59562012,0.09889221
1367.52442749,0.09676257
1369.45323486,0.09538451
1371.38204224,0.09739236
1373.31084961,0.09179629
1375.23965698,0.09248701
1377.16846436,0.09510215
1379.09727173,0.09457292
1381.02607910,0.09479830
1382.95488647,0.09453493
1384.88369385,0.09441444
1386.81250122,0.08977777
1388.74130859,0.09115829
1390.67011597,0.09912843
1392.59892334,0.09623708
1394.52773071,0.08980852
1396.45653809,0.09456354
1398.38534546,0.09417203
1400.31415283,0.09373479
1402.24296021,0.10186215
1404.17176758,0.09580291
1406.10057495,0.09638450
1408.02938232,0.10038485
1409.95818970,0.09646732
1411.88699707,0.09876773
1413.81580444,0.09519739
1415.74461182,0.09687680
1417.67341919,0.08692125
1419.60222656,0.07737485
1421.53103394,0.08993047
1423.45984131,0.08692658
1425.38864868,0.08424388
1427.31745605,0.08568309
1429.24626343,0.07907052
1431.17507080,0.07671951
1433.10387817,0.07809179
1435.03268555,0.07102396
1436.96149292,0.05943511
1438.89030029,0.06824903
1440.81910767,0.07003737
1442.74791504,0.06466392
1444.67672241,0.06811205
1446.60552979,0.06193309
1448.53433716,0.06300432
1450.46314453,0.06517892
1452.39195190,0.06642512
1454.32075928,0.06903145
1456.24956665,0.05628260
1458.17837402,0.05878418
1460.10718140,0.07905629
1462.03598877,0.08441226
1463.96479614,0.08355232
1465.89360352,0.08698133
1467.82241089,0.09962826
1469.75121826,0.10708909
1471.68002563,0.09477665
1473.60883301,0.09981218
1475.53764038,0.11427294
1477.46644775,0.12333227
1479.39525513,0.13592896
1481.32406250,0.13769956
1483.25286987,0.14667872
1485.18167725,0.15143478
1487.11048462,0.14865229
1489.03929199,0.14771366
1490.96809937,0.14852616
1492.89690674,0.17407024
1494.82571411,0.16991469
1496.75452148,0.15228781
1498.68332886,0.17286433
1500.61213623,0.17825571
1502.54094360,0.19196926
1504.46975098,0.18089452
1506.39855835,0.12977977
1508.32736572,0.15980007
1510.25617310,0.18881989
1512.18498047,0.18271884
1514.11378784,0.19852147
1516.04259521,0.17817762
1517.97140259,0.18609947
1519.90020996,0.17981000
1521.82901733,0.15454856
1523.75782471,0.19073626
1525.68663208,0.18734197
1527.61543945,0.18672343
1529.54424683,0.20767480
1531.47305420,0.19899100
1533.40186157,0.18159416
1535.33066895,0.19306463
1537.25947632,0.20736325
1539.18828369,0.14655915
1541.11709106,0.15328267
1543.04589844,0.18513173
1544.97470581,0.17716950
1546.90351318,0.21136868
1548.83232056,0.19659419
1550.76112793,0.20285228
1552.68993530,0.20176524
1554.61874268,0.18217850
1556.54755005,0.19554496
1558.47635742,0.13576747
1560.40516479,0.14712924
1562.33397217,0.21250045
1564.26277954,0.20049888
1566.19158691,0.20628439
1568.12039429,0.20397985
1570.04920166,0.17990477
1571.97800903,0.20888922
1573.90681641,0.21160939
1575.83562378,0.16585436
1577.76443115,0.18879515
1579.69323853,0.21472596
1581.62204590,0.20481971
1583.55085327,0.21021181
1585.47966064,0.20694926
1587.40846802,0.20833746
1589.33727539,0.20651533
1591.26608276,0.20663761
1593.19489014,0.20666200
1595.12369751,0.20402169
1597.05250488,0.20713747
1598.98131226,0.20565802
1600.91011963,0.20699281
1602.83892700,0.20285644
1604.76773437,0.20675036
1606.69654175,0.20367372
1608.62534912,0.20263255
1610.55415649,0.20274580
1612.48296387,0.20425580
1614.41177124,0.20714444
1616.34057861,0.16786104
1618.26938599,0.18273683
1620.19819336,0.21397676
1622.12700073,0.18856633
1624.05580811,0.18964019
1625.98461548,0.19930661
1627.91342285,0.19811393
1629.84223022,0.19707376
1631.77103760,0.21096303
1633.69984497,0.19386101
1635.62865234,0.15852092
1637.55745972,0.18562827
1639.48626709,0.20517644
1641.41507446,0.20015518
1643.34388184,0.20563161
1645.27268921,0.18443827
1647.20149658,0.16090840
1649.13030396,0.20214656
1651.05911133,0.19115856
1652.98791870,0.12000667
1654.91672607,0.16593397
1656.84553345,0.21017534
1658.77434082,0.20079428
1660.70314819,0.20662001
1662.63195557,0.18686280
1664.56076294,0.19770122
1666.48957031,0.21297295
1668.41837769,0.18457559
1670.34718506,0.17901194
1672.27599243,0.20423964
1674.20479980,0.18783918
1676.13360718,0.17977062
1678.06241455,0.20832255
1679.99122192,0.20019676
1681.92002930,0.19764253
1683.84883667,0.15919118
1685.77764404,0.15771121
1687.70645142,0.21891922
1689.63525879,0.18878078
1691.56406616,0.20857026
1693.49287354,0.21235031
1695.42168091,0.15272075
1697.35048828,0.19058412
1699.27929565,0.16647300
1701.20810303,0.14902166
1703.13691040,0.20605469
1705.06571777,0.18810289
1706.99452515,0.18957819
1708.92333252,0.20687196
1710.85213989,0.19847907
1712.78094727,0.20198601
1714.70975464,0.18652928
1716.63856201,0.16669604
1718.56736938,0.16383353
1720.49617676,0.19573453
1722.42498413,0.20374577
1724.35379150,0.18831852
1726.28259888,0.20562980
1728.21140625,0.18927264
1730.14021362,0.19073972
1732.06902100,0.18581814
1733.99782837,0.13966164
1735.92663574,0.17558691
1737.85544312,0.19482893
1739.78425049,0.17230082
1741.71305786,0.18842858
1743.64186523,0.19107381
1745.57067261,0.19126718
1747.49947998,0.19281222
1749.42828735,0.18400186
1751.35709473,0.17571852
1753.28590210,0.19564506
1755.21470947,0.20499104
1757.14351685,0.18621556
1759.07232422,0.20555338
1761.00113159,0.19238053
1762.92993896,0.18547392
1764.85874634,0.21360049
1766.78755371,0.19120297
1768.71636108,0.19305924
1770.64516846,0.19163972
1772.57397583,0.17134990
1774.50278320,0.19230959
1776.43159058,0.20349428
1778.36039795,0.20072141
1780.28920532,0.19793314
1782.21801270,0.19950014
1784.14682007,0.19929430
1786.07562744,0.19486845
1788.00443481,0.20569137
1789.93324219,0.20012754
1791.86204956,0.17999133
1793.79085693,0.18836689
1795.71966431,0.20269766
1797.64847168,0.19984159
1799.57727905,0.19653939
1801.50608643,0.19306640
1803.43489380,0.19961914
1805.36370117,0.20403545
1807.29250854,0.20111454
1809.22131592,0.20184392
1811.15012329,0.19625130
1813.07893066,0.20259336
1815.00773804,0.20360324
1816.93654541,0.20115435
1818.86535278,0.20286691
1820.79416016,0.20179486
1822.72296753,0.20487484
1824.65177490,0.19095160
1826.58058228,0.19810200
1828.50938965,0.19838476
1830.43819702,0.18544687
1832.36700439,0.20287189
1834.29581177,0.20129408
1836.22461914,0.20102116
1838.15342651,0.20023900
1840.08223389,0.20133148
1842.01104126,0.20197065
1843.93984863,0.17801313
1845.86865601,0.19024035
1847.79746338,0.20126674
1849.72627075,0.19679223
1851.65507812,0.20285949
1853.58388550,0.19846775
1855.51269287,0.20083836
1857.44150024,0.19929448
1859.37030762,0.19798416
1861.29911499,0.19924207
1863.22792236,0.19686556
1865.15672974,0.19938794
1867.08553711,0.19207555
1869.01434448,0.18385199
1870.94315186,0.19137132
1872.87195923,0.19899783
1874.80076660,0.19563389
1876.72957397,0.19671056
1878.65838135,0.19629423
1880.58718872,0.19496521
1882.51599609,0.19678679
1884.44480347,0.19332159
1886.37361084,0.19632596
1888.30241821,0.19161080
1890.23122559,0.18760544
1892.16003296,0.19505712
1894.08884033,0.19186556
1896.01764771,0.19118769
1897.94645508,0.19351003
1899.87526245,0.19250782
1901.80406982,0.19278921
1903.73287720,0.19147062
1905.66168457,0.19253013
1907.59049194,0.19041102
1909.51929932,0.18916151
1911.44810669,0.19029662
1913.37691406,0.19051647
1915.30572144,0.19201154
1917.23452881,0.18334568
1919.16333618,0.18362240
1921.09214355,0.19065431
1923.02095093,0.18449378
1924.94975830,0.18846712
1926.87856567,0.19056153
1928.80737305,0.18797970
1930.73618042,0.19048035
1932.66498779,0.18768050
1934.59379517,0.18936706
1936.52260254,0.18808189
1938.45140991,0.18861525
1940.38021729,0.18846670
1942.30902466,0.18202698
1944.23783203,0.18576100
1946.16663940,0.18753749
1948.09544678,0.18702579
1950.02425415,0.18775821
1951.95306152,0.18700981
1953.88186890,0.18742260
1955.81067627,0.18651783
1957.73948364,0.18719913
1959.66829102,0.18659075
1961.59709839,0.18626276
1963.52590576,0.18690754
1965.45471313,0.18548030
1967.38352051,0.18370853
1969.31232788,0.18519045
1971.24113525,0.18653134
1973.16994263,0.18502283
1975.09875000,0.18581653
1977.02755737,0.18485565
1978.95636475,0.18489742
1980.88517212,0.18494691
1982.81397949,0.18385825
1984.74278687,0.18482287
1986.67159424,0.18312146
1988.60040161,0.18343690
1990.52920898,0.18183649
1992.45801636,0.17969218
1994.38682373,0.18244013
1996.31563110,0.18256997
1998.24443848,0.18164554
2000.17324585,0.18166769
2002.10205322,0.18128480
2004.03086060,0.18081322
2005.95966797,0.18054003
2007.88847534,0.18008253
2009.81728271,0.17968823
2011.74609009,0.17938124
2013.67489746,0.17919743
2015.60370483,0.17807931
2017.53251221,0.17640048
2019.46131958,0.17757776
2021.39012695,0.17767221
2023.31893433,0.17696720
2025.24774170,0.17671627
2027.17654907,0.17594135
2029.10535645,0.17602655
2031.03416382,0.17518637
2032.96297119,0.17520139
2034.89177856,0.17470846
2036.82058594,0.17414698
2038.74939331,0.17424977
2040.67820068,0.17295951
2042.60700806,0.17277041
2044.53581543,0.17273596
2046.46462280,0.17235610
2048.39343018,0.17197777
2050.32223755,0.17157674
2052.25104492,0.17136124
2054.17985229,0.17092010
2056.10865967,0.17070523
2058.03746704,0.17031722
2059.96627441,0.16976717
2061.89508179,0.16959098
2063.82388916,0.16902387
2065.75269653,0.16810414
2067.68150391,0.16862467
2069.61031128,0.16834563
2071.53911865,0.16775316
2073.46792603,0.16782850
2075.39673340,0.16703612
2077.32554077,0.16699037
2079.25434814,0.16645281
2081.18315552,0.16621798
2083.11196289,0.16608429
2085.04077026,0.16548927
2086.96957764,0.16544142
2088.89838501,0.16473083
2090.82719238,0.16459435
2092.75599976,0.16437349
2094.68480713,0.16395740
2096.61361450,0.16363016
2098.54242187,0.16341639
2100.47122925,0.16320726
2102.40003662,0.16262567
2104.32884399,0.16259441
2106.25765137,0.16221115
2108.18645874,0.16199511
2110.11526611,0.16171202
2112.04407349,0.16153213
2113.97288086,0.16128734
2115.90168823,0.16070512
2117.83049561,0.16065787
2119.75930298,0.16028544
2121.68811035,0.16023716
2123.61691772,0.15993381
2125.54572510,0.15972912
2127.47453247,0.15955371
2129.40333984,0.15904096
2131.33214722,0.15902433
2133.26095459,0.15876900
2135.18976196,0.15852715
2137.11856934,0.15805778
2139.04737671,0.15793346
2140.97618408,0.15773588
2142.90499146,0.15756407
2144.83379883,0.15750089
2146.76260620,0.15692411
2148.69141357,0.15683872
2150.62022095,0.15667590
2152.54902832,0.15667316
2154.47783569,0.15630209
2156.40664307,0.15600973
2158.33545044,0.15592183
2160.26425781,0.15568811
2162.19306519,0.15578017
2164.12187256,0.15522838
2166.05067993,0.15510473
2167.97948730,0.15484218
2169.90829468,0.15454662
2171.83710205,0.15444079
2173.76590942,0.15418831
2175.69471680,0.15424287
2177.62352417,0.15380424
2179.55233154,0.15361881
2181.48113892,0.15341063
2183.40994629,0.15334982
2185.33875366,0.15311223
2187.26756104,0.15276873
2189.19636841,0.15266572
2191.12517578,0.15235797
2193.05398315,0.15241036
2194.98279053,0.15197828
2196.91159790,0.15193796
2198.84040527,0.15180320
2200.76921265,0.15138446
2202.69802002,0.15134105
2204.62682739,0.15108550
2206.55563477,0.15099829
2208.48444214,0.15066256
2210.41324951,0.15062824
2212.34205688,0.15030998
2214.27086426,0.15001941
2216.19967163,0.14999489
2218.12847900,0.14974588
2220.05728638,0.14958173
2221.98609375,0.14914209
2223.91490112,0.14911747
2225.84370850,0.14882481
2227.77251587,0.14862445
2229.70132324,0.14846465
2231.63013062,0.14816125
2233.55893799,0.14795277
2235.48774536,0.14758527
2237.41655273,0.14759934
2239.34536011,0.14711250
2241.27416748,0.14698039
2243.20297485,0.14670999
2245.13178223,0.14635547
2247.06058960,0.14627379
2248.98939697,0.14580518
2250.91820435,0.14583758
2252.84701172,0.14544024
2254.77581909,0.14521229
2256.70462646,0.14499968
2258.63343384,0.14473587
2260.56224121,0.14447020
2262.49104858,0.14416176
2264.41985596,0.14431611
2266.34866333,0.14385998
2268.27747070,0.14384328
2270.20627808,0.14360821
2272.13508545,0.14336142
2274.06389282,0.14329682
2275.99270020,0.14286256
2277.92150757,0.14283863
2279.85031494,0.14252928
2281.77912231,0.14260259
2283.70792969,0.14238630
2285.63673706,0.14208853
2287.56554443,0.14185870
2289.49435181,0.14140992
2291.42315918,0.14107563
2293.35196655,0.14039093
2295.28077393,0.14032716
2297.20958130,0.13979539
2299.13838867,0.13907820
2301.06719604,0.13864662
2302.99600342,0.13793100
2304.92481079,0.13724121
2306.85361816,0.13616884
2308.78242554,0.13514477
2310.71123291,0.13404509
2312.64004028,0.13276553
2314.56884766,0.13120875
2316.49765503,0.12970269
2318.42646240,0.12800184
2320.35526978,0.12609053
2322.28407715,0.12414803
2324.21288452,0.12227335
2326.14169189,0.12114988
2328.07049927,0.11962275
2329.99930664,0.11807026
2331.92811401,0.11694439
2333.85692139,0.11654986
2335.78572876,0.11611935
2337.71453613,0.11569971
2339.64334351,0.11582756
2341.57215088,0.11593656
2343.50095825,0.11797264
2345.42976562,0.12015345
2347.35857300,0.12530872
2349.28738037,0.12981579
2351.21618774,0.12481973
2353.14499512,0.11838629
2355.07380249,0.11388503
2357.00260986,0.10999186
2358.93141724,0.10791574
2360.86022461,0.10657623
2362.78903198,0.10649948
2364.71783936,0.10700050
2366.64664673,0.10859838
2368.57545410,0.11096147
2370.50426147,0.11375551
2372.43306885,0.11704639
2374.36187622,0.12050785
2376.29068359,0.12386967
2378.21949097,0.12662385
2380.14829834,0.12901416
2382.07710571,0.13046476
2384.00591309,0.13158554
2385.93472046,0.13195974
2387.86352783,0.13185288
2389.79233521,0.13190597
2391.72114258,0.13173819
2393.64994995,0.13170180
2395.57875732,0.13134407
2397.50756470,0.13113743
2399.43637207,0.13091391
2401.36517944,0.13085896
2403.29398682,0.13072097
2405.22279419,0.13040137
2407.15160156,0.13043776
2409.08040894,0.13014862
2411.00921631,0.12993029
2412.93802368,0.12967153
2414.86683105,0.12952924
2416.79563843,0.12926582
2418.72444580,0.12905988
2420.65325317,0.12896347
2422.58206055,0.12868026
2424.51086792,0.12866247
2426.43967529,0.12833634
2428.36848267,0.12834260
2430.29729004,0.12809794
2432.22609741,0.12778506
2434.15490479,0.12776688
2436.08371216,0.12746620
2438.01251953,0.12736434
2439.94132690,0.12697279
2441.87013428,0.12694497
2443.79894165,0.12675342
2445.72774902,0.12645435
2447.65655640,0.12643820
2449.58536377,0.12624611
2451.51417114,0.12620506
2453.44297852,0.12586518
2455.37178589,0.12579012
2457.30059326,0.12550090
2459.22940063,0.12525462
2461.15820801,0.12527496
2463.08701538,0.12488279
2465.01582275,0.12486883
2466.94463013,0.12478662
2468.87343750,0.12449718
2470.80224487,0.12433860
2472.73105225,0.12407869
2474.65985962,0.12385839
2476.58866699,0.12388176
2478.51747437,0.12359035
2480.44628174,0.12342197
2482.37508911,0.12335758
2484.30389648,0.12291958
2486.23270386,0.12285024
2488.16151123,0.12262310
2490.09031860,0.12259589
2492.01912598,0.12236202
2493.94793335,0.12208676
2495.87674072,0.12218527
2497.80554810,0.12181772
2499.73435547,0.12181509
2501.66316284,0.12151706
2503.59197021,0.12124813
2505.52077759,0.12112738
2507.44958496,0.12093854
2509.37839233,0.12089144
2511.30719971,0.12057347
2513.23600708,0.12059589
2515.16481445,0.12022842
2517.09362183,0.12013925
2519.02242920,0.12005302
2520.95123657,0.11973657
2522.88004395,0.11976321
2524.80885132,0.11938380
2526.73765869,0.11938764
2528.66646606,0.11916911
2530.59527344,0.11888041
2532.52408081,0.11873562
2534.45288818,0.11845588
2536.38169556,0.11846299
2538.31050293,0.11832868
2540.23931030,0.11813104
2542.16811768,0.11791213
2544.09692505,0.11788524
2546.02573242,0.11763541
2547.95453979,0.11752526
2549.88334717,0.11742701
2551.81215454,0.11708134
2553.74096191,0.11701041
2555.66976929,0.11670495
2557.59857666,0.11663567
2559.52738403,0.11648586
2561.45619141,0.11627802
2563.38499878,0.11613888
2565.31380615,0.11597954
2567.24261353,0.11586647
2569.17142090,0.11551131
2571.10022827,0.11548504
2573.02903564,0.11534520
2574.95784302,0.11526754
2576.88665039,0.11500463
2578.81545776,0.11472761
2580.74426514,0.11474171
2582.67307251,0.11440423
2584.60187988,0.11433576
2586.53068726,0.11412551
2588.45949463,0.11400010
2590.38830200,0.11388319
2592.31710937,0.11356949
2594.24591675,0.11346534
2596.17472412,0.11329637
2598.10353149,0.11311413
2600.03233887,0.11283498
2601.96114624,0.11280061
2603.88995361,0.11259191
2605.81876099,0.11246730
2607.74756836,0.11234415
2609.67637573,0.11198318
2611.60518311,0.11197502
2613.53399048,0.11172676
2615.46279785,0.11163755
2617.39160522,0.11155619
2619.32041260,0.11133121
2621.24921997,0.11120410
2623.17802734,0.11096352
2625.10683472,0.11072598
2627.03564209,0.11061025
2628.96444946,0.11063837
2630.89325684,0.11035924
2632.82206421,0.11021009
2634.75087158,0.11001711
2636.67967895,0.10984273
2638.60848633,0.10968831
2640.53729370,0.10934238
2642.46610107,0.10930000
2644.39490845,0.10910982
2646.32371582,0.10911605
2648.25252319,0.10887179
2650.18133057,0.10858095
2652.11013794,0.10853764
2654.03894531,0.10817081
2655.96775269,0.10805801
2657.89656006,0.10786434
2659.82536743,0.10782100
2661.75417480,0.10765968
2663.68298218,0.10741635
2665.61178955,0.10742754
2667.54059692,0.10709932
2669.46940430,0.10690211
2671.39821167,0.10689065
2673.32701904,0.10680772
2675.25582642,0.10650158
2677.18463379,0.10634588
2679.11344116,0.10618059
2681.04224854,0.10591713
2682.97105591,0.10589255
2684.89986328,0.10567964
2686.82867065,0.10556175
2688.75747803,0.10539915
2690.68628540,0.10520860
2692.61509277,0.10509652
2694.54390015,0.10489713
2696.47270752,0.10472082
2698.40151489,0.10450835
2700.33032227,0.10433449
2702.25912964,0.10415886
2704.18793701,0.10400485
2706.11674438,0.10377035
2708.04555176,0.10373090
2709.97435913,0.10360546
2711.90316650,0.10342161
2713.83197388,0.10336758
2715.76078125,0.10300282
2717.68958862,0.10288595
2719.61839600,0.10277157
2721.54720337,0.10258162
2723.47601074,0.10236786
2725.40481812,0.10206130
2727.33362549,0.10196248
2729.26243286,0.10183366
2731.19124023,0.10175769
2733.12004761,0.10151801
2735.04885498,0.10130911
2736.97766235,0.10118839
2738.90646973,0.10104859
2740.83527710,0.10086848
2742.76408447,0.10060604
2744.69289185,0.10048610
2746.62169922,0.10031805
2748.55050659,0.10032998
2750.47931396,0.10011103
2752.40812134,0.09983946
2754.33692871,0.09978686
2756.26573608,0.09948899
2758.19454346,0.09932604
2760.12335083,0.09922722
2762.05215820,0.09907106
2763.98096558,0.09877768
2765.90977295,0.09863302
2767.83858032,0.09856153
2769.76738770,0.09830735
2771.69619507,0.09817569
2773.62500244,0.09796713
2775.55380981,0.09778577
2777.48261719,0.09762745
2779.41142456,0.09740707
2781.34023193,0.09712060
2783.26903931,0.09707123
2785.19784668,0.09706406
2787.12665405,0.09673432
2789.05546143,0.09657946
2790.98426880,0.09635286
2792.91307617,0.09609067
2794.84188354,0.09598003
2796.77069092,0.09585111
2798.69949829,0.09565106
2800.62830566,0.09547823
2802.55711304,0.09526373
2804.48592041,0.09493306
2806.41472778,0.09486149
2808.34353516,0.09470907
2810.27234253,0.09451181
2812.20114990,0.09429171
2814.12995728,0.09410946
2816.05876465,0.09404971
2817.98757202,0.09376809
2819.91637939,0.09356736
2821.84518677,0.09331763
2823.77399414,0.09320495
2825.70280151,0.09309998
2827.63160889,0.09291317
2829.56041626,0.09280004
2831.48922363,0.09240544
2833.41803101,0.09217505
2835.34683838,0.09204234
2837.27564575,0.09182864
2839.20445312,0.09150796
2841.13326050,0.09113507
2843.06206787,0.09090567
2844.99087524,0.09063619
2846.91968262,0.09013434
2848.84848999,0.08947861
2850.77729736,0.08920877
2852.70610474,0.08910856
2854.63491211,0.08904108
2856.56371948,0.08901290
2858.49252686,0.08883381
2860.42133423,0.08866556
2862.35014160,0.08855820
2864.27894897,0.08843716
2866.20775635,0.08821964
2868.13656372,0.08819650
2870.06537109,0.08810993
2871.99417847,0.08783633
2873.92298584,0.08764771
2875.85179321,0.08759590
2877.78060059,0.08738077
2879.70940796,0.08711678
2881.63821533,0.08719240
2883.56702270,0.08693847
2885.49583008,0.08685713
2887.42463745,0.08676240
2889.35344482,0.08648258
2891.28225220,0.08647648
2893.21105957,0.08606280
2895.13986694,0.08592529
2897.06867432,0.08575408
2898.99748169,0.08542612
2900.92628906,0.08526725
2902.85509644,0.08493721
2904.78390381,0.08478236
2906.71271118,0.08451443
2908.64151855,0.08424725
2910.57032593,0.08390400
2912.49913330,0.08349383
2914.42794067,0.08304264
2916.35674805,0.08268057
2918.28555542,0.08252829
2920.21436279,0.08230495
2922.14317017,0.08227389
2924.07197754,0.08202733
2926.00078491,0.08187270
2927.92959229,0.08184664
2929.85839966,0.08176264
2931.78720703,0.08172920
2933.71601440,0.08162840
2935.64482178,0.08167806
2937.57362915,0.08148658
2939.50243652,0.08157025
2941.43124390,0.08166666
2943.36005127,0.08155614
2945.28885864,0.08153674
2947.21766602,0.08128539
2949.14647339,0.08115970
2951.07528076,0.08091354
2953.00408813,0.08077091
2954.93289551,0.08060287
2956.86170288,0.08028959
2958.79051025,0.08005779
2960.71931763,0.07976773
2962.64812500,0.07960089
2964.57693237,0.07944407
2966.50573975,0.07941401
2968.43454712,0.07925284
2970.36335449,0.07934467
2972.29216187,0.07951251
2974.22096924,0.07947697
2976.14977661,0.07959706
2978.07858398,0.07939449
2980.00739136,0.07933103
2981.93619873,0.07939210
2983.86500610,0.07940844
2985.79381348,0.07925946
2987.72262085,0.07915422
2989.65142822,0.07918675
2991.58023560,0.07886365
2993.50904297,0.07880522
2995.43785034,0.07865477
2997.36665771,0.07847825
2999.29546509,0.07839852
3001.22427246,0.07826629
3003.15307983,0.07823502
3005.08188721,0.07797752
3007.01069458,0.07790144
3008.93950195,0.07772325
3010.86830933,0.07741396
3012.79711670,0.07710874
3014.72592407,0.07698060
3016.65473145,0.07702522
3018.58353882,0.07682829
3020.51234619,0.07671274
3022.44115356,0.07655251
3024.36996094,0.07637793
3026.29876831,0.07607891
3028.22757568,0.07600621
3030.15638306,0.07585715
3032.08519043,0.07541814
3034.01399780,0.07547678
3035.94280518,0.07538924
3037.87161255,0.07528742
3039.80041992,0.07504922
3041.72922729,0.07478188
3043.65803467,0.07480438
3045.58684204,0.07457936
3047.51564941,0.07440357
3049.44445679,0.07409604
3051.37326416,0.07403154
3053.30207153,0.07407720
3055.23087891,0.07368243
3057.15968628,0.07345434
3059.08849365,0.07351585
3061.01730103,0.07343832
3062.94610840,0.07312055
3064.87491577,0.07285126
3066.80372314,0.07271174
3068.73253052,0.07282116
3070.66133789,0.07269324
3072.59014526,0.07245595
3074.51895264,0.07247058
3076.44776001,0.07217489
3078.37656738,0.07181856
3080.30537476,0.07168432
3082.23418213,0.07169582
3084.16298950,0.07160179
3086.09179687,0.07152535
3088.02060425,0.07136005
3089.94941162,0.07106923
3091.87821899,0.07111330
3093.80702637,0.07092595
3095.73583374,0.07055543
3097.66464111,0.07043554
3099.59344849,0.07034720
3101.52225586,0.07011960
3103.45106323,0.07004105
3105.37987061,0.06999208
3107.30867798,0.06970038
3109.23748535,0.06954266
3111.16629272,0.06936411
3113.09510010,0.06914532
3115.02390747,0.06886063
3116.95271484,0.06878612
3118.88152222,0.06876903
3120.81032959,0.06844063
3122.73913696,0.06830149
3124.66794434,0.06813247
3126.59675171,0.06804601
3128.52555908,0.06789970
3130.45436645,0.06762807
3132.38317383,0.06738216
3134.31198120,0.06719399
3136.24078857,0.06724942
3138.16959595,0.06694758
3140.09840332,0.06665930
3142.02721069,0.06650378
3143.95601807,0.06639010
3145.88482544,0.06625691
3147.81363281,0.06594297
3149.74244019,0.06589162
3151.67124756,0.06563985
3153.60005493,0.06544638
3155.52886230,0.06541467
3157.45766968,0.06513229
3159.38647705,0.06490098
3161.31528442,0.06480318
3163.24409180,0.06466975
3165.17289917,0.06439922
3167.10170654,0.06420822
3169.03051392,0.06412146
3170.95932129,0.06397706
3172.88812866,0.06367499
3174.81693604,0.06359674
3176.74574341,0.06338070
3178.67455078,0.06301923
3180.60335815,0.06301359
3182.53216553,0.06283495
3184.46097290,0.06263719
3186.38978027,0.06236476
3188.31858765,0.06240059
3190.24739502,0.06237538
3192.17620239,0.06199081
3194.10500977,0.06199685
3196.03381714,0.06174906
3197.96262451,0.06154818
3199.89143188,0.06142993
3201.82023926,0.06137197
3203.74904663,0.06120821
3205.67785400,0.06093715
3207.60666138,0.06091391
3209.53546875,0.06059124
3211.46427612,0.06062448
3213.39308350,0.06032745
3215.32189087,0.06016363
3217.25069824,0.06034565
3219.17950562,0.05989464
3221.10831299,0.05991794
3223.03712036,0.05981816
3224.96592773,0.05971223
3226.89473511,0.05966093
3228.82354248,0.05940540
3230.75234985,0.05935845
3232.68115723,0.05915307
3234.60996460,0.05910637
3236.53877197,0.05905028
3238.46757935,0.05908954
3240.39638672,0.05894268
3242.32519409,0.05873588
3244.25400146,0.05863601
3246.18280884,0.05841186
3248.11161621,0.05849447
3250.04042358,0.05836614
3251.96923096,0.05832682
3253.89803833,0.05823097
3255.82684570,0.05800002
3257.75565308,0.05801190
3259.68446045,0.05791726
3261.61326782,0.05796703
3263.54207520,0.05791765
3265.47088257,0.05778295
3267.39968994,0.05767866
3269.32849731,0.05754438
3271.25730469,0.05742662
3273.18611206,0.05729328
3275.11491943,0.05719550
3277.04372681,0.05715620
3278.97253418,0.05714535
3280.90134155,0.05705900
3282.83014893,0.05701979
3284.75895630,0.05690627
3286.68776367,0.05695830
3288.61657104,0.05686650
3290.54537842,0.05665209
3292.47418579,0.05661160
3294.40299316,0.05642205
3296.33180054,0.05644888
3298.26060791,0.05629777
3300.18941528,0.05629108
3302.11822266,0.05631343
3304.04703003,0.05601715
3305.97583740,0.05599559
3307.90464478,0.05585167
3309.83345215,0.05576474
3311.76225952,0.05569866
3313.69106689,0.05570299
3315.61987427,0.05571606
3317.54868164,0.05560829
3319.47748901,0.05553904
3321.40629639,0.05538427
3323.33510376,0.05527378
3325.26391113,0.05509924
3327.19271851,0.05520419
3329.12152588,0.05515128
3331.05033325,0.05497335
3332.97914062,0.05486853
3334.90794800,0.05465681
3336.83675537,0.05457848
3338.76556274,0.05444063
3340.69437012,0.05457650
3342.62317749,0.05441197
3344.55198486,0.05432765
3346.48079224,0.05434208
3348.40959961,0.05400868
3350.33840698,0.05393749
3352.26721436,0.05383871
3354.19602173,0.05381639
3356.12482910,0.05352616
3358.05363647,0.05358599
3359.98244385,0.05359414
3361.91125122,0.05327576
3363.84005859,0.05329908
3365.76886597,0.05301530
3367.69767334,0.05302042
3369.62648071,0.05283255
3371.55528809,0.05285062
3373.48409546,0.05294808
3375.41290283,0.05264989
3377.34171020,0.05258605
3379.27051758,0.05238182
3381.19932495,0.05244255
3383.12813232,0.05220877
3385.05693970,0.05211712
3386.98574707,0.05204517
3388.91455444,0.05199939
3390.84336182,0.05184819
3392.77216919,0.05125432
3394.70097656,0.05162784
3396.62978394,0.05141937
3398.55859131,0.05119884
3400.48739868,0.05117189
3402.41620605,0.05094995
3404.34501343,0.05125085
3406.27382080,0.05097911
3408.20262817,0.05100533
3410.13143555,0.05084417
3412.06024292,0.05066431
3413.98905029,0.05064631
3415.91785767,0.05058653
3417.84666504,0.05059375
3419.77547241,0.05006325
3421.70427979,0.05008053
3423.63308716,0.05002391
3425.56189453,0.05001980
3427.49070190,0.04999302
3429.41950928,0.04979102
3431.34831665,0.04970130
3433.27712402,0.04951799
3435.20593140,0.04960955
3437.13473877,0.04926189
3439.06354614,0.04936492
3440.99235352,0.04909213
3442.92116089,0.04890182
3444.84996826,0.04914846
3446.77877563,0.04834832
3448.70758301,0.04856616
3450.63639038,0.04894830
3452.56519775,0.04880456
3454.49400513,0.04879394
3456.42281250,0.04857814
3458.35161987,0.04852153
3460.28042725,0.04828524
3462.20923462,0.04809599
3464.13804199,0.04825511
3466.06684937,0.04829238
3467.99565674,0.04795893
3469.92446411,0.04807523
3471.85327148,0.04802489
3473.78207886,0.04778451
3475.71088623,0.04780778
3477.63969360,0.04782229
3479.56850098,0.04780535
3481.49730835,0.04714707
3483.42611572,0.04736269
3485.35492310,0.04768144
3487.28373047,0.04731614
3489.21253784,0.04736310
3491.14134521,0.04741051
3493.07015259,0.04749916
3494.99895996,0.04724763
3496.92776733,0.04713333
3498.85657471,0.04726529
3500.78538208,0.04721773
3502.71418945,0.04633838
3504.64299683,0.04633955
3506.57180420,0.04743350
3508.50061157,0.04674213
3510.42941895,0.04653788
3512.35822632,0.04694570
3514.28703369,0.04702000
3516.21584106,0.04707935
3518.14464844,0.04678424
3520.07345581,0.04702945
3522.00226318,0.04650619
3523.93107056,0.04590511
3525.85987793,0.04610517
3527.78868530,0.04611171
3529.71749268,0.04606785
3531.64630005,0.04653461
3533.57510742,0.04686592
3535.50391479,0.04630231
3537.43272217,0.04613312
3539.36152954,0.04657589
3541.29033691,0.04665148
3543.21914429,0.04620901
3545.14795166,0.04525461
3547.07675903,0.04451425
3549.00556641,0.04601664
3550.93437378,0.04637280
3552.86318115,0.04517603
3554.79198853,0.04630374
3556.72079590,0.04639599
3558.64960327,0.04615676
3560.57841064,0.04572530
3562.50721802,0.04544480
3564.43602539,0.04592083
3566.36483276,0.04261482
3568.29364014,0.04160871
3570.22244751,0.04512092
3572.15125488,0.04636319
3574.08006226,0.04570487
3576.00886963,0.04579014
3577.93767700,0.04574154
3579.86648437,0.04553439
3581.79529175,0.04556161
3583.72409912,0.04575945
3585.65290649,0.04473564
3587.58171387,0.04090682
3589.51052124,0.04227048
3591.43932861,0.04604309
3593.36813599,0.04451586
3595.29694336,0.04379303
3597.22575073,0.04460324
3599.15455811,0.04499784
3601.08336548,0.04455909
3603.01217285,0.04495999
3604.94098022,0.04579318
3606.86978760,0.04404315
3608.79859497,0.04147560
3610.72740234,0.04246533
3612.65620972,0.04339639
3614.58501709,0.04214085
3616.51382446,0.04521574
3618.44263184,0.04171415
3620.37143921,0.04021083
3622.30024658,0.04541175
3624.22905395,0.04407537
3626.15786133,0.04617865
3628.08666870,0.03906700
3630.01547607,0.03546545
3631.94428345,0.04485730
3633.87309082,0.04365950
3635.80189819,0.04433148
3637.73070557,0.04527799
3639.65951294,0.04465703
3641.58832031,0.04501825
3643.51712769,0.04435761
3645.44593506,0.04486315
3647.37474243,0.04007117
3649.30354980,0.03674204
3651.23235718,0.03723726
3653.16116455,0.04428004
3655.08997192,0.04383739
3657.01877930,0.03914752
3658.94758667,0.04518373
3660.87639404,0.04413574
3662.80520142,0.04477970
3664.73400879,0.04467609
3666.66281616,0.04411911
3668.59162354,0.04289105
3670.52043091,0.03470734
3672.44923828,0.04230633
3674.37804565,0.04029752
3676.30685303,0.03303479
3678.23566040,0.04196371
3680.16446777,0.04292220
3682.09327515,0.04296601
3684.02208252,0.04428004
3685.95088989,0.04345155
3687.87969727,0.03900430
3689.80850464,0.03572520
3691.73731201,0.04093020
3693.66611938,0.04207398
3695.59492676,0.04316439
3697.52373413,0.04315683
3699.45254150,0.04275244
3701.38134888,0.04167844
3703.31015625,0.03994512
3705.23896362,0.04411300
3707.16777100,0.04185830
3709.09657837,0.04082950
3711.02538574,0.03842220
3712.95419312,0.03578642
3714.88300049,0.04222115
3716.81180786,0.04156739
3718.74061523,0.04174035
3720.66942261,0.04088074
3722.59822998,0.03952756
3724.52703735,0.04100626
3726.45584473,0.03799307
3728.38465210,0.04130816
3730.31345947,0.04072806
3732.24226685,0.03740699
3734.17107422,0.03647250
3736.09988159,0.03446897
3738.02868896,0.03658718
3739.95749634,0.03970388
3741.88630371,0.04177416
3743.81511108,0.03226883
3745.74391846,0.03022607
3747.67272583,0.03967032
3749.60153320,0.03398272
3751.53034058,0.03116089
3753.45914795,0.03605299
3755.38795532,0.03884035
3757.31676270,0.04040270
3759.24557007,0.03727429
3761.17437744,0.03860126
3763.10318481,0.04109705
3765.03199219,0.03830151
3766.96079956,0.03909638
3768.88960693,0.03859935
3770.81841431,0.03676937
3772.74722168,0.03991345
3774.67602905,0.04000311
3776.60483643,0.03991251
3778.53364380,0.03882632
3780.46245117,0.03730316
3782.39125854,0.03985464
3784.32006592,0.03894355
3786.24887329,0.03859369
3788.17768066,0.03947486
3790.10648804,0.03933113
3792.03529541,0.03907600
3793.96410278,0.03965936
3795.89291016,0.03721711
3797.82171753,0.03676650
3799.75052490,0.03880739
3801.67933228,0.03059310
3803.60813965,0.03583992
3805.53694702,0.03897052
3807.46575439,0.03160377
3809.39456177,0.03858817
3811.32336914,0.03787281
3813.25217651,0.03905256
3815.18098389,0.03525715
3817.10979126,0.03084527
3819.03859863,0.03910834
3820.96740601,0.03150431
3822.89621338,0.03318897
3824.82502075,0.03878522
3826.75382812,0.03495076
3828.68263550,0.03773031
3830.61144287,0.03618258
3832.54025024,0.03500524
3834.46905762,0.03570607
3836.39786499,0.03397491
3838.32667236,0.03071551
3840.25547974,0.03314722
3842.18428711,0.03585436
3844.11309448,0.03414626
3846.04190186,0.03697509
3847.97070923,0.03641127
3849.89951660,0.03650600
3851.82832397,0.03287285
3853.75713135,0.02434793
3855.68593872,0.02891496
3857.61474609,0.03660016
3859.54355347,0.03562092
3861.47236084,0.03508547
3863.40116821,0.03438253
3865.32997559,0.03178974
3867.25878296,0.03558683
3869.18759033,0.03256232
3871.11639770,0.02991483
3873.04520508,0.03564205
3874.97401245,0.03261847
3876.90281982,0.03528570
3878.83162720,0.03611974
3880.76043457,0.03083290
3882.68924194,0.03560204
3884.61804932,0.03322594
3886.54685669,0.03033220
3888.47566406,0.03560712
3890.40447144,0.03371827
3892.33327881,0.03162040
3894.26208618,0.03465930
3896.19089355,0.03520782
3898.11970093,0.03355549
3900.04850830,0.03157067
3901.97731567,0.03120055
3903.90612305,0.03108042
3905.83493042,0.03142894
3907.76373779,0.03449763
3909.69254517,0.03445569
3911.62135254,0.03406952
3913.55015991,0.03477161
3915.47896728,0.03351016
3917.40777466,0.03262852
3919.33658203,0.03230002
3921.26538940,0.03358456
3923.19419678,0.03338622
3925.12300415,0.03262078
3927.05181152,0.03332563
3928.98061890,0.03361014
3930.90942627,0.03300834
3932.83823364,0.03181328
3934.76704102,0.03313629
3936.69584839,0.03351570
3938.62465576,0.03311926
3940.55346313,0.03340918
3942.48227051,0.03208213
3944.41107788,0.03243618
3946.33988525,0.03294791
3948.26869263,0.03209324
3950.19750000,0.03221820
3952.12630737,0.03279238
3954.05511475,0.03270321
3955.98392212,0.03258322
3957.91272949,0.03251301
3959.84153687,0.03242938
3961.77034424,0.03224717
3963.69915161,0.03201245
3965.62795898,0.03246517
3967.55676636,0.03224134
3969.48557373,0.03211086
3971.41438110,0.03211220
3973.34318848,0.03184642
3975.27199585,0.03182476
3977.20080322,0.03165020
3979.12961060,0.03199357
3981.05841797,0.03175392
3982.98722534,0.03163899
3984.91603271,0.03159730
3986.84484009,0.03150946
3988.77364746,0.03156600
3990.70245483,0.03114194
3992.63126221,0.03137618
3994.56006958,0.03117554
3996.48887695,0.03114574
3998.41768433,0.03121383
4000.34649170,0.03107698
4002.27529907,0.03117070
4004.20410645,0.03095202
4006.13291382,0.03096416
4008.06172119,0.03066732
4009.99052856,0.03073785
4011.91933594,0.03071961
4013.84814331,0.03059478
4015.77695068,0.03056817
4017.70575806,0.03040551
4019.63456543,0.03048024
4021.56337280,0.03025159
4023.49218018,0.03040085
4025.42098755,0.03015807
4027.34979492,0.03015991
4029.27860229,0.03023910
4031.20740967,0.02993124
4033.13621704,0.03006797
4035.06502441,0.02984648
4036.99383179,0.02987777
4038.92263916,0.02967466
4040.85144653,0.02965185
4042.78025391,0.02961973
4044.70906128,0.02941014
4046.63786865,0.02959705
4048.56667603,0.02935876
4050.49548340,0.02944469
4052.42429077,0.02935548
4054.35309814,0.02920523
4056.28190552,0.02918134
4058.21071289,0.02910016
4060.13952026,0.02899123
4062.06832764,0.02886523
4063.99713501,0.02900856
4065.92594238,0.02883138
4067.85474976,0.02889312
4069.78355713,0.02874801
4071.71236450,0.02862816
4073.64117187,0.02857383
4075.56997925,0.02847180
4077.49878662,0.02858066
4079.42759399,0.02828224
4081.35640137,0.02836842
4083.28520874,0.02825268
4085.21401611,0.02821956
4087.14282349,0.02811729
4089.07163086,0.02789408
4091.00043823,0.02809487
4092.92924561,0.02791012
4094.85805298,0.02794518
4096.78686035,0.02778080
4098.71566772,0.02773078
4100.64447510,0.02765995
4102.57328247,0.02748937
4104.50208984,0.02762241
4106.43089722,0.02748566
4108.35970459,0.02749941
4110.28851196,0.02734270
4112.21731934,0.02730434
4114.14612671,0.02718083
4116.07493408,0.02711400
4118.00374145,0.02714498
4119.93254883,0.02703287
4121.86135620,0.02710764
4123.79016357,0.02691207
4125.71897095,0.02694435
4127.64777832,0.02680782
4129.57658569,0.02676145
4131.50539307,0.02668366
4133.43420044,0.02651511
4135.36300781,0.02662902
4137.29181519,0.02643400
4139.22062256,0.02647204
4141.14942993,0.02633796
4143.07823730,0.02639175
4145.00704468,0.02632145
4146.93585205,0.02618302
4148.86465942,0.02627902
4150.79346680,0.02600650
4152.72227417,0.02607995
4154.65108154,0.02594220
4156.57988892,0.02596312
4158.50869629,0.02585861
4160.43750366,0.02575305
4162.36631103,0.02585449
4164.29511841,0.02554970
4166.22392578,0.02567495
4168.15273315,0.02552616
4170.08154053,0.02549661
4172.01034790,0.02546056
4173.93915527,0.02525002
4175.86796265,0.02532191
4177.79677002,0.02521235
4179.72557739,0.02522733
4181.65438477,0.02515056
4183.58319214,0.02510967
4185.51199951,0.02494740
4187.44080688,0.02501595
4189.36961426,0.02495632
4191.29842163,0.02471922
4193.22722900,0.02485766
4195.15603638,0.02468574
4197.08484375,0.02471103
4199.01365112,0.02458009
4200.94245850,0.02445834
4202.87126587,0.02445425
4204.80007324,0.02442327
4206.72888062,0.02449148
4208.65768799,0.02418404
4210.58649536,0.02420726
4212.51530273,0.02427701
4214.44411011,0.02423665
4216.37291748,0.02408099
4218.30172485,0.02400025
4220.23053223,0.02406001
4222.15933960,0.02391452
4224.08814697,0.02390930
4226.01695435,0.02380590
4227.94576172,0.02384688
4229.87456909,0.02373846
4231.80337646,0.02366771
4233.73218384,0.02367828
4235.66099121,0.02350280
4237.58979858,0.02353261
4239.51860596,0.02346207
4241.44741333,0.02343583
4243.37622070,0.02326362
4245.30502808,0.02323839
4247.23383545,0.02321682
4249.16264282,0.02312420
4251.09145020,0.02316602
4253.02025757,0.02303198
4254.94906494,0.02306542
4256.87787231,0.02293194
4258.80667969,0.02296827
4260.73548706,0.02292217
4262.66429443,0.02279098
4264.59310181,0.02282593
4266.52190918,0.02263236
4268.45071655,0.02264356
4270.37952393,0.02251349
4272.30833130,0.02249038
4274.23713867,0.02245680
4276.16594604,0.02239595
4278.09475342,0.02242643
4280.02356079,0.02226276
4281.95236816,0.02226093
4283.88117554,0.02217022
4285.80998291,0.02218639
4287.73879028,0.02217086
4289.66759766,0.02215996
4291.59640503,0.02209134
4293.52521240,0.02190418
4295.45401978,0.02192421
4297.38282715,0.02186176
4299.31163452,0.02188711
4301.24044189,0.02177907
4303.16924927,0.02171622
4305.09805664,0.02167637
4307.02686401,0.02159492
4308.95567139,0.02166616
4310.88447876,0.02160346
4312.81328613,0.02152516
4314.74209351,0.02140574
4316.67090088,0.02136047
4318.59970825,0.02125880
4320.52851562,0.02124145
4322.45732300,0.02112383
4324.38613037,0.02106271
4326.31493774,0.02120291
4328.24374512,0.02093992
4330.17255249,0.02097671
4332.10135986,0.02101405
4334.03016724,0.02086299
4335.95897461,0.02085501
4337.88778198,0.02075265
4339.81658936,0.02068533
4341.74539673,0.02071555
4343.67420410,0.02075284
4345.60301147,0.02054451
4347.53181885,0.02055089
4349.46062622,0.02055286
4351.38943359,0.02040908
4353.31824097,0.02035733
4355.24704834,0.02036587
4357.17585571,0.02036211
4359.10466309,0.02020008
4361.03347046,0.02026760
4362.96227783,0.02014889
4364.89108520,0.02014169
4366.81989258,0.02008072
4368.74869995,0.01990587
4370.67750732,0.02005437
4372.60631470,0.01991277
4374.53512207,0.01988970
4376.46392944,0.01977048
4378.39273682,0.01976399
4380.32154419,0.01971962
4382.25035156,0.01960890
4384.17915894,0.01975304
4386.10796631,0.01944074
4388.03677368,0.01952787
4389.96558105,0.01959351
4391.89438843,0.01941098
4393.82319580,0.01942346
4395.75200317,0.01931239
4397.68081055,0.01932979
4399.60961792,0.01927243
4401.53842529,0.01921012
4403.46723267,0.01919802
4405.39604004,0.01923869
4407.32484741,0.01905304
4409.25365478,0.01892436
4411.18246216,0.01897459
4413.11126953,0.01889442
4415.04007690,0.01890378
4416.96888428,0.01881342
4418.89769165,0.01882920
4420.82649902,0.01873055
4422.75530640,0.01871410
4424.68411377,0.01873396
4426.61292114,0.01859883
4428.54172852,0.01857933
4430.47053589,0.01843883
4432.39934326,0.01846595
4434.32815063,0.01839927
4436.25695801,0.01844596
4438.18576538,0.01838185
4440.11457275,0.01814694
4442.04338013,0.01820238
4443.97218750,0.01817722
4445.90099487,0.01819758
4447.82980225,0.01798570
4449.75860962,0.01801000
4451.68741699,0.01808240
4453.61622437,0.01791831
4455.54503174,0.01793730
4457.47383911,0.01787725
4459.40264648,0.01789716
4461.33145386,0.01774172
4463.26026123,0.01768901
4465.18906860,0.01770828
4467.11787598,0.01762940
4469.04668335,0.01760974
4470.97549072,0.01756356
4472.90429810,0.01749105
4474.83310547,0.01739528
4476.76191284,0.01751227
4478.69072021,0.01735080
4480.61952759,0.01734151
4482.54833496,0.01737101
4484.47714233,0.01725194
4486.40594971,0.01734456
4488.33475708,0.01711650
4490.26356445,0.01709676
4492.19237183,0.01710481
4494.12117920,0.01706179
4496.04998657,0.01702266
4497.97879395,0.01692879
4499.90760132,0.01695453
4501.83640869,0.01685988
4503.76521606,0.01686279
4505.69402344,0.01673994
4507.62283081,0.01679051
4509.55163818,0.01675307
4511.48044556,0.01664549
4513.40925293,0.01665927
4515.33806030,0.01648802
4517.26686768,0.01658234
4519.19567505,0.01654249
4521.12448242,0.01649983
4523.05328979,0.01639909
4524.98209717,0.01633834
4526.91090454,0.01641624
4528.83971191,0.01629956
4530.76851929,0.01630974
4532.69732666,0.01621386
4534.62613403,0.01620355
4536.55494141,0.01612317
4538.48374878,0.01609685
4540.41255615,0.01608155
4542.34136353,0.01592651
4544.27017090,0.01601561
4546.19897827,0.01597986
4548.12778564,0.01594964
4550.05659302,0.01580969
4551.98540039,0.01578545
4553.91420776,0.01575854
4555.84301514,0.01563055
4557.77182251,0.01571359
4559.70062988,0.01562908
4561.62943726,0.01565306
4563.55824463,0.01560146
4565.48705200,0.01555625
4567.41585937,0.01553171
4569.34466675,0.01543535
4571.27347412,0.01540787
4573.20228149,0.01531692
4575.13108887,0.01536429
4577.05989624,0.01531895
4578.98870361,0.01531241
4580.91751099,0.01526233
4582.84631836,0.01520364
4584.77512573,0.01517613
4586.70393311,0.01510411
4588.63274048,0.01512866
4590.56154785,0.01500837
4592.49035522,0.01501482
4594.41916260,0.01493593
4596.34796997,0.01490138
4598.27677734,0.01489499
4600.20558472,0.01477132
4602.13439209,0.01483018
4604.06319946,0.01478420
4605.99200684,0.01479116
4607.92081421,0.01471429
4609.84962158,0.01460858
4611.77842895,0.01460080
4613.70723633,0.01462081
4615.63604370,0.01456299
4617.56485107,0.01449218
4619.49365845,0.01458399
4621.42246582,0.01441719
4623.35127319,0.01438683
4625.28008057,0.01439491
4627.20888794,0.01431368
4629.13769531,0.01432751
4631.06650269,0.01424362
4632.99531006,0.01419599
4634.92411743,0.01417431
4636.85292480,0.01419674
4638.78173218,0.01406633
4640.71053955,0.01413884
4642.63934692,0.01409027
4644.56815430,0.01388042
4646.49696167,0.01398306
4648.42576904,0.01392309
4650.35457642,0.01392999
4652.28338379,0.01379724
4654.21219116,0.01379297
4656.14099853,0.01388923
4658.06980591,0.01367942
4659.99861328,0.01373252
4661.92742065,0.01376156
4663.85622803,0.01359055
4665.78503540,0.01350138
4667.71384277,0.01360477
4669.64265015,0.01356849
4671.57145752,0.01347956
4673.50026489,0.01345164
4675.42907227,0.01342743
4677.35787964,0.01348522
4679.28668701,0.01336388
4681.21549438,0.01336795
4683.14430176,0.01332127
4685.07310913,0.01325455
4687.00191650,0.01319808
4688.93072388,0.01315294
4690.85953125,0.01322726
4692.78833862,0.01307755
4694.71714600,0.01310619
4696.64595337,0.01308128
4698.57476074,0.01309044
4700.50356812,0.01311911
4702.43237549,0.01298248
4704.36118286,0.01299052
4706.28999023,0.01286134
4708.21879761,0.01284159
4710.14760498,0.01287962
4712.07641235,0.01288460
4714.00521973,0.01275687
4715.93402710,0.01271482
4717.86283447,0.01278309
4719.79164185,0.01260018
4721.72044922,0.01261280
4723.64925659,0.01263919
4725.57806396,0.01269117
4727.50687134,0.01263277
4729.43567871,0.01253366
4731.36448608,0.01253529
4733.29329346,0.01247130
4735.22210083,0.01254263
4737.15090820,0.01234834
4739.07971558,0.01228799
4741.00852295,0.01235412
4742.93733032,0.01233899
4744.86613770,0.01233460
4746.79494507,0.01218419
4748.72375244,0.01223746
4750.65255981,0.01220417
4752.58136719,0.01213147
4754.51017456,0.01213551
4756.43898193,0.01209629
4758.36778931,0.01205428
4760.29659668,0.01206667
4762.22540405,0.01206589
4764.15421143,0.01196531
4766.08301880,0.01200129
4768.01182617,0.01189883
4769.94063354,0.01186507
4771.86944092,0.01186075
4773.79824829,0.01178137
4775.72705566,0.01181381
4777.65586304,0.01172418
4779.58467041,0.01174031
4781.51347778,0.01171973
4783.44228516,0.01166027
4785.37109253,0.01158605
4787.29989990,0.01154745
4789.22870728,0.01160802
4791.15751465,0.01155093
4793.08632202,0.01155367
4795.01512939,0.01154317
4796.94393677,0.01152762
4798.87274414,0.01145166
4800.80155151,0.01141313
4802.73035889,0.01139510
4804.65916626,0.01128787
4806.58797363,0.01130710
4808.51678101,0.01132152
4810.44558838,0.01125565
4812.37439575,0.01116367
4814.30320312,0.01124113
4816.23201050,0.01120287
4818.16081787,0.01111845
4820.08962524,0.01114786
4822.01843262,0.01104993
4823.94723999,0.01108463
4825.87604736,0.01101332
4827.80485474,0.01096039
4829.73366211,0.01095215
4831.66246948,0.01087119
4833.59127686,0.01092528
4835.52008423,0.01089368
4837.44889160,0.01087679
4839.37769897,0.01082118
4841.30650635,0.01077084
4843.23531372,0.01077454
4845.16412109,0.01068770
4847.09292847,0.01067496
4849.02173584,0.01072025
4850.95054321,0.01063161
4852.87935059,0.01056158
4854.80815796,0.01059579
4856.73696533,0.01058222
4858.66577270,0.01063983
4860.59458008,0.01056037
4862.52338745,0.01051901
4864.45219482,0.01052645
4866.38100220,0.01039754
4868.30980957,0.01046814
4870.23861694,0.01040092
4872.16742432,0.01036437
4874.09623169,0.01043320
4876.02503906,0.01031448
4877.95384644,0.01025666
4879.88265381,0.01023220
4881.81146118,0.01023244
4883.74026855,0.01027254
4885.66907593,0.01021468
4887.59788330,0.01008386
4889.52669067,0.01009959
4891.45549805,0.01008278
4893.38430542,0.01001341
4895.31311279,0.01002052
4897.24192017,0.01000872
4899.17072754,0.00997766
4901.09953491,0.00993733
4903.02834228,0.01000948
4904.95714966,0.00994683
4906.88595703,0.00990287
4908.81476440,0.00984549
4910.74357178,0.00972065
4912.67237915,0.00982456
4914.60118652,0.00977783
4916.52999390,0.00974744
4918.45880127,0.00972770
4920.38760864,0.00967875
4922.31641602,0.00970917
4924.24522339,0.00963744
4926.17403076,0.00959200
4928.10283813,0.00962283
4930.03164551,0.00962266
4931.96045288,0.00948138
4933.88926025,0.00953041
4935.81806763,0.00954093
4937.74687500,0.00950175
4939.67568237,0.00948172
4941.60448975,0.00932856
4943.53329712,0.00942721
4945.46210449,0.00938254
4947.39091187,0.00934921
4949.31971924,0.00934078
4951.24852661,0.00930242
4953.17733398,0.00934409
4955.10614136,0.00920751
4957.03494873,0.00929091
4958.96375610,0.00928397
4960.89256348,0.00920147
4962.82137085,0.00915241
4964.75017822,0.00912088
4966.67898560,0.00910609
4968.60779297,0.00896865
4970.53660034,0.00904229
4972.46540771,0.00898611
4974.39421509,0.00899045
4976.32302246,0.00902987
4978.25182983,0.00892567
4980.18063721,0.00890528
4982.10944458,0.00885766
4984.03825195,0.00889288
4985.96705933,0.00883955
4987.89586670,0.00880499
4989.82467407,0.00879876
4991.75348145,0.00883968
4993.68228882,0.00877866
4995.61109619,0.00865900
4997.53990356,0.00874399
4999.46871094,0.00865168
5001.39751831,0.00862490
5003.32632568,0.00863064
5005.25513306,0.00860638
5007.18394043,0.00854867
5009.11274780,0.00852634
5011.04155518,0.00859902
5012.97036255,0.00848334
5014.89916992,0.00850562
5016.82797729,0.00844535
5018.75678467,0.00844459
5020.68559204,0.00846594
5022.61439941,0.00836691
5024.54320679,0.00847147
5026.47201416,0.00842309
5028.40082153,0.00839086
5030.32962891,0.00834605
5032.25843628,0.00830811
5034.18724365,0.00831301
5036.11605103,0.00824678
5038.04485840,0.00823363
5039.97366577,0.00818685
5041.90247314,0.00819236
5043.83128052,0.00813043
5045.76008789,0.00816650
5047.68889526,0.00817213
5049.61770264,0.00809557
5051.54651001,0.00810423
5053.47531738,0.00802752
5055.40412476,0.00805899
5057.33293213,0.00806758
5059.26173950,0.00801535
5061.19054687,0.00793198
5063.11935425,0.00793321
5065.04816162,0.00795703
5066.97696899,0.00782671
5068.90577637,0.00780912
5070.83458374,0.00781253
5072.76339111,0.00786058
5074.69219849,0.00784675
5076.62100586,0.00777742
5078.54981323,0.00777503
5080.47862061,0.00776805
5082.40742798,0.00780399
5084.33623535,0.00774679
5086.26504272,0.00772216
5088.19385010,0.00765942
5090.12265747,0.00758911
5092.05146484,0.00762927
5093.98027222,0.00755325
5095.90907959,0.00752021
5097.83788696,0.00759505
5099.76669434,0.00760244
5101.69550171,0.00756683
5103.62430908,0.00752983
5105.55311645,0.00750369
5107.48192383,0.00752493
5109.41073120,0.00744485
5111.33953857,0.00735797
5113.26834595,0.00737087
5115.19715332,0.00738648
5117.12596069,0.00743305
5119.05476807,0.00736047
5120.98357544,0.00731793
5122.91238281,0.00738105
5124.84119019,0.00730063
5126.76999756,0.00716015
5128.69880493,0.00720581
5130.62761230,0.00727032
5132.55641968,0.00717941
5134.48522705,0.00718256
5136.41403442,0.00715919
5138.34284180,0.00716030
5140.27164917,0.00719108
5142.20045654,0.00709731
5144.12926392,0.00708982
5146.05807129,0.00705102
5147.98687866,0.00707254
5149.91568603,0.00710553
5151.84449341,0.00699256
5153.77330078,0.00702045
5155.70210815,0.00702173
5157.63091553,0.00692349
5159.55972290,0.00693273
5161.48853027,0.00686050
5163.41733765,0.00683682
5165.34614502,0.00694038
5167.27495239,0.00689227
5169.20375977,0.00682863
5171.13256714,0.00683136
5173.06137451,0.00686840
5174.99018188,0.00679941
5176.91898926,0.00675051
5178.84779663,0.00676690
5180.77660400,0.00667828
5182.70541138,0.00677438
5184.63421875,0.00671715
5186.56302612,0.00663983
5188.49183350,0.00670579
5190.42064087,0.00659645
5192.34944824,0.00666753
5194.27825562,0.00666807
5196.20706299,0.00651418
5198.13587036,0.00649032
5200.06467773,0.00653594
5201.99348511,0.00654913
5203.92229248,0.00654846
5205.85109985,0.00640591
5207.77990723,0.00626867
5209.70871460,0.00645509
5211.63752197,0.00642009
5213.56632935,0.00640240
5215.49513672,0.00646150
5217.42394409,0.00639527
5219.35275146,0.00640693
5221.28155884,0.00630796
5223.21036621,0.00637353
5225.13917358,0.00626268
5227.06798096,0.00622743
5228.99678833,0.00636691
5230.92559570,0.00622699
5232.85440308,0.00620154
5234.78321045,0.00616051
5236.71201782,0.00622420
5238.64082520,0.00622441
5240.56963257,0.00623266
5242.49843994,0.00625345
5244.42724731,0.00605825
5246.35605469,0.00610717
5248.28486206,0.00600247
5250.21366943,0.00602689
5252.14247681,0.00618500
5254.07128418,0.00598244
5256.00009155,0.00596718
5257.92889893,0.00607770
5259.85770630,0.00611047
5261.78651367,0.00602241
5263.71532104,0.00585524
5265.64412842,0.00587819
5267.57293579,0.00596998
5269.50174316,0.00593104
5271.43055054,0.00591381
5273.35935791,0.00597155
5275.28816528,0.00592676
5277.21697266,0.00581746
5279.14578003,0.00578192
5281.07458740,0.00585497
5283.00339478,0.00591261
5284.93220215,0.00586714
5286.86100952,0.00583108
5288.78981689,0.00584579
5290.71862427,0.00575681
5292.64743164,0.00574221
5294.57623901,0.00579618
5296.50504639,0.00572740
5298.43385376,0.00573829
5300.36266113,0.00572220
5302.29146851,0.00572771
5304.22027588,0.00572375
5306.14908325,0.00558890
5308.07789062,0.00549978
5310.00669800,0.00560026
5311.93550537,0.00575412
5313.86431274,0.00564939
5315.79312012,0.00562077
5317.72192749,0.00559907
5319.65073486,0.00557446
5321.57954224,0.00559415
5323.50834961,0.00551313
5325.43715698,0.00554680
5327.36596436,0.00539410
5329.29477173,0.00541952
5331.22357910,0.00549762
5333.15238647,0.00534918
5335.08119385,0.00546763
5337.01000122,0.00543208
5338.93880859,0.00518527
5340.86761597,0.00530981
5342.79642334,0.00548219
5344.72523071,0.00517769
5346.65403809,0.00517248
5348.58284546,0.00528510
5350.51165283,0.00528434
5352.44046020,0.00540274
5354.36926758,0.00509892
5356.29807495,0.00519472
5358.22688232,0.00533698
5360.15568970,0.00522270
5362.08449707,0.00530101
5364.01330444,0.00517237
5365.94211182,0.00518553
5367.87091919,0.00518735
5369.79972656,0.00522265
5371.72853394,0.00519347
5373.65734131,0.00513724
5375.58614868,0.00510812
5377.51495605,0.00495396
5379.44376343,0.00510009
5381.37257080,0.00507024
5383.30137817,0.00503784
5385.23018555,0.00502301
5387.15899292,0.00488584
5389.08780029,0.00495218
5391.01660767,0.00501088
5392.94541504,0.00495086
5394.87422241,0.00480093
5396.80302978,0.00492070
5398.73183716,0.00494286
5400.66064453,0.00496509
5402.58945190,0.00495451
5404.51825928,0.00476303
5406.44706665,0.00495964
5408.37587402,0.00488026
5410.30468140,0.00479003
5412.23348877,0.00483991
5414.16229614,0.00469967
5416.09110352,0.00481270
5418.01991089,0.00487306
5419.94871826,0.00483523
5421.87752563,0.00480569
5423.80633301,0.00478635
5425.73514038,0.00483580
5427.66394775,0.00477337
5429.59275513,0.00461901
5431.52156250,0.00470281
5433.45036987,0.00475379
5435.37917725,0.00451975
5437.30798462,0.00458556
5439.23679199,0.00469498
5441.16559936,0.00456670
5443.09440674,0.00457082
5445.02321411,0.00454052
5446.95202148,0.00445380
5448.88082886,0.00456581
5450.80963623,0.00457729
5452.73844360,0.00456638
5454.66725098,0.00462044
5456.59605835,0.00452160
5458.52486572,0.00460729
5460.45367310,0.00450358
5462.38248047,0.00441184
5464.31128784,0.00453409
5466.24009521,0.00445599
5468.16890259,0.00449710
5470.09770996,0.00443127
5472.02651733,0.00453210
5473.95532471,0.00454642
5475.88413208,0.00428890
5477.81293945,0.00438426
5479.74174683,0.00443147
5481.67055420,0.00447586
5483.59936157,0.00442455
5485.52816895,0.00432969
5487.45697632,0.00434824
5489.38578369,0.00432073
5491.31459106,0.00435798
5493.24339844,0.00422447
5495.17220581,0.00425212
5497.10101318,0.00437324
5499.02982056,0.00428100
5500.95862793,0.00434083
5502.88743530,0.00432643
5504.81624268,0.00420163
5506.74505005,0.00423641
5508.67385742,0.00413652
5510.60266479,0.00413547
5512.53147217,0.00427437
5514.46027954,0.00415883
5516.38908691,0.00415786
5518.31789429,0.00418297
5520.24670166,0.00420005
5522.17550903,0.00417135
5524.10431641,0.00409307
5526.03312378,0.00417542
5527.96193115,0.00407071
5529.89073853,0.00408309
5531.81954590,0.00408188
5533.74835327,0.00408761
5535.67716064,0.00413920
5537.60596802,0.00401935
5539.53477539,0.00412391
5541.46358276,0.00403904
5543.39239014,0.00404806
5545.32119751,0.00407646
5547.25000488,0.00389910
5549.17881226,0.00399918
5551.10761963,0.00395156
5553.03642700,0.00391501
5554.96523437,0.00398673
5556.89404175,0.00396582
5558.82284912,0.00395250
5560.75165649,0.00398834
5562.68046387,0.00396964
5564.60927124,0.00393174
5566.53807861,0.00397031
5568.46688599,0.00385278
5570.39569336,0.00386101
5572.32450073,0.00390255
5574.25330811,0.00388176
5576.18211548,0.00389215
5578.11092285,0.00382508
5580.03973022,0.00382218
5581.96853760,0.00376369
5583.89734497,0.00380868
5585.82615234,0.00383911
5587.75495972,0.00379655
5589.68376709,0.00381679
5591.61257446,0.00376175
5593.54138184,0.00376546
5595.47018921,0.00374823
5597.39899658,0.00368643
5599.32780395,0.00370374
5601.25661133,0.00379073
5603.18541870,0.00378153
5605.11422607,0.00373349
5607.04303345,0.00368194
5608.97184082,0.00366052
5610.90064819,0.00370646
5612.82945557,0.00364620
5614.75826294,0.00370918
5616.68707031,0.00365240
5618.61587769,0.00359155
5620.54468506,0.00362939
5622.47349243,0.00351926
5624.40229980,0.00361080
5626.33110718,0.00357420
5628.25991455,0.00355230
5630.18872192,0.00362686
5632.11752930,0.00354572
5634.04633667,0.00356054
5635.97514404,0.00356657
5637.90395142,0.00356578
5639.83275879,0.00346924
5641.76156616,0.00350143
5643.69037353,0.00357458
5645.61918091,0.00343294
5647.54798828,0.00342651
5649.47679565,0.00347196
5651.40560303,0.00351346
5653.33441040,0.00347197
5655.26321777,0.00345758
5657.19202515,0.00352537
5659.12083252,0.00343564
5661.04963989,0.00344736
5662.97844727,0.00346659
5664.90725464,0.00336593
5666.83606201,0.00339140
5668.76486938,0.00340306
5670.69367676,0.00334385
5672.62248413,0.00335408
5674.55129150,0.00333752
5676.48009888,0.00327086
5678.40890625,0.00325935
5680.33771362,0.00331993
5682.26652100,0.00330024
5684.19532837,0.00323022
5686.12413574,0.00330067
5688.05294311,0.00330057
5689.98175049,0.00324183
5691.91055786,0.00324460
5693.83936523,0.00321047
5695.76817261,0.00321030
5697.69697998,0.00321569
5699.62578735,0.00323596
5701.55459473,0.00323895
5703.48340210,0.00319092
5705.41220947,0.00317843
5707.34101685,0.00320910
5709.26982422,0.00323054
5711.19863159,0.00314720
5713.12743896,0.00308279
5715.05624634,0.00311229
5716.98505371,0.00314207
5718.91386108,0.00313512
5720.84266846,0.00309413
5722.77147583,0.00307134
5724.70028320,0.00308360
5726.62909058,0.00313657
5728.55789795,0.00312846
5730.48670532,0.00308811
5732.41551270,0.00309132
5734.34432007,0.00302878
5736.27312744,0.00304358
5738.20193481,0.00310239
5740.13074219,0.00304158
5742.05954956,0.00302153
5743.98835693,0.00302370
5745.91716431,0.00301951
5747.84597168,0.00301454
5749.77477905,0.00299652
5751.70358643,0.00299597
5753.63239380,0.00294392
5755.56120117,0.00292749
5757.49000854,0.00293794
5759.41881592,0.00297028
5761.34762329,0.00298724
5763.27643066,0.00291598
5765.20523804,0.00290612
5767.13404541,0.00292000
5769.06285278,0.00292443
5770.99166016,0.00288585
5772.92046753,0.00287983
5774.84927490,0.00289013
5776.77808228,0.00283196
5778.70688965,0.00289080
5780.63569702,0.00287419
5782.56450439,0.00280640
5784.49331177,0.00281873
5786.42211914,0.00281496
5788.35092651,0.00283855
5790.27973389,0.00281338
5792.20854126,0.00281086
5794.13734863,0.00279518
5796.06615601,0.00276865
5797.99496338,0.00281413
5799.92377075,0.00275543
5801.85257812,0.00272188
5803.78138550,0.00281920
5805.71019287,0.00279129
5807.63900024,0.00274911
5809.56780762,0.00277881
5811.49661499,0.00269350
5813.42542236,0.00266896
5815.35422974,0.00267068
5817.28303711,0.00269074
5819.21184448,0.00271562
5821.14065186,0.00262166
5823.06945923,0.00267973
5824.99826660,0.00266899
5826.92707397,0.00256495
5828.85588135,0.00259144
5830.78468872,0.00257648
5832.71349609,0.00260321
5834.64230347,0.00265691
5836.57111084,0.00263015
5838.49991821,0.00260568
5840.42872559,0.00262395
5842.35753296,0.00258581
5844.28634033,0.00253306
5846.21514770,0.00253257
5848.14395508,0.00254047
5850.07276245,0.00251491
5852.00156982,0.00251320
5853.93037720,0.00259977
5855.85918457,0.00255775
5857.78799194,0.00248860
5859.71679932,0.00251443
5861.64560669,0.00254321
5863.57441406,0.00247919
5865.50322144,0.00243211
5867.43202881,0.00250997
5869.36083618,0.00239165
5871.28964355,0.00238377
5873.21845093,0.00246329
5875.14725830,0.00246041
5877.07606567,0.00249900
5879.00487305,0.00237184
5880.93368042,0.00240631
5882.86248779,0.00243680
5884.79129517,0.00241722
5886.72010254,0.00244047
5888.64890991,0.00236702
5890.57771728,0.00241831
5892.50652466,0.00235292
5894.43533203,0.00235638
5896.36413940,0.00242237
5898.29294678,0.00235117
5900.22175415,0.00233888
5902.15056152,0.00228300
5904.07936890,0.00228307
5906.00817627,0.00227164
5907.93698364,0.00222870
5909.86579102,0.00230524
5911.79459839,0.00230319
5913.72340576,0.00224549
5915.65221313,0.00228859
5917.58102051,0.00224256
5919.50982788,0.00224362
5921.43863525,0.00229770
5923.36744263,0.00226278
5925.29625000,0.00235483
5927.22505737,0.00221697
5929.15386475,0.00213788
5931.08267212,0.00229096
5933.01147949,0.00219420
5934.94028686,0.00217706
5936.86909424,0.00221234
5938.79790161,0.00219728
5940.72670898,0.00213676
5942.65551636,0.00213164
5944.58432373,0.00223391
5946.51313110,0.00218416
5948.44193848,0.00218374
5950.37074585,0.00219734
5952.29955322,0.00215588
5954.22836060,0.00213023
5956.15716797,0.00213007
5958.08597534,0.00214988
5960.01478271,0.00210488
5961.94359009,0.00211138
5963.87239746,0.00217564
5965.80120483,0.00216710
5967.73001221,0.00209678
5969.65881958,0.00210340
5971.58762695,0.00210427
5973.51643433,0.00212605
5975.44524170,0.00215035
5977.37404907,0.00209613
5979.30285645,0.00209436
5981.23166382,0.00206328
5983.16047119,0.00205096
5985.08927856,0.00202017
5987.01808594,0.00201072
5988.94689331,0.00200023
5990.87570068,0.00197726
5992.80450806,0.00206770
5994.73331543,0.00204431
5996.66212280,0.00204925
5998.59093018,0.00204391
6000.51973755,0.00199198
