399.26312622,0.00038141
401.19193359,0.00134149
403.12074097,0.00117520
405.04954834,0.00079584
406.97835571,0.00078246
408.90716309,0.00094026
410.83597046,0.00104542
412.76477783,0.00075027
414.69358521,0.00130390
416.62239258,0.00101555
418.55119995,0.00079037
420.48000732,0.00096288
422.40881470,0.00081248
424.33762207,0.00127205
426.26642944,0.00127996
428.19523682,0.00134940
430.12404419,0.00133111
432.05285156,0.00127155
433.98165894,0.00139659
435.91046631,0.00102587
437.83927368,0.00126703
439.76808105,0.00113366
441.69688843,0.00080683
443.62569580,0.00124101
445.55450317,0.00110908
447.48331055,0.00100818
449.41211792,0.00107515
451.34092529,0.00081416
453.26973267,0.00073595
455.19854004,0.00072487
457.12734741,0.00053559
459.05615479,0.00063833
460.98496216,0.00084340
462.91376953,0.00051913
464.84257690,0.00058642
466.77138428,0.00064343
468.70019165,0.00052695
470.62899902,0.00074320
472.55780640,0.00045210
474.48661377,0.00010682
476.41542114,0.00015279
478.34422852,0.00065725
480.27303589,0.00052726
482.20184326,0.00001173
484.13065063,0.00025557
486.05945801,0.00025771
487.98826538,0.00038533
489.91707275,0.00006268
491.84588013,0.00016271
493.77468750,0.00076232
495.70349487,-0.00003436
497.63230225,-0.00012020
499.56110962,0.00012919
501.48991699,-0.00001178
503.41872437,0.00009275
505.34753174,0.00019237
507.27633911,0.00033654
509.20514648,0.00014001
511.13395386,0.00024072
513.06276123,0.00024400
514.99156860,0.00005194
516.92037598,-0.00007486
518.84918335,0.00038632
520.77799072,0.00104339
522.70679810,0.00049182
524.63560547,0.00012456
526.56441284,0.00001135
528.49322021,0.00012671
530.42202759,0.00013766
532.35083496,-0.00013092
534.27964233,0.00025642
536.20844971,0.00029642
538.13725708,0.00048181
540.06606445,0.00038777
541.99487183,-0.00026220
543.92367920,-0.00009335
545.85248657,0.00015398
547.78129395,-0.00008003
549.71010132,0.00001445
551.63890869,0.00014530
553.56771606,0.00005935
555.49652344,-0.00008311
557.42533081,-0.00001795
559.35413818,0.00021892
561.28294556,0.00005733
563.21175293,0.00021051
565.14056030,0.00001461
567.06936768,0.00003742
568.99817505,0.00050044
570.92698242,0.00005773
572.85578979,-0.00001590
574.78459717,0.00031117
576.71340454,0.00029689
578.64221191,0.00015412
580.57101929,0.00023688
582.49982666,0.00003386
584.42863403,-0.00024910
586.35744141,0.00001770
588.28624878,0.00002928
590.21505615,0.00032613
592.14386353,0.00045476
594.07267090,0.00002178
596.00147827,-0.00009873
597.93028564,-0.00005949
599.85909302,0.00017816
601.78790039,0.00022701
603.71670776,0.00028337
605.64551514,0.00033484
607.57432251,0.00014790
609.50312988,0.00011050
611.43193726,0.00014718
613.36074463,0.00004230
615.28955200,-0.00009865
617.21835938,-0.00011719
619.14716675,0.00003203
621.07597412,0.00002400
623.00478149,-0.00012294
624.93358887,-0.00000509
626.86239624,0.00009342
628.79120361,-0.00000095
630.72001099,0.00017422
632.64881836,0.00037627
634.57762573,0.00069287
636.50643311,0.00107238
638.43524048,0.00078199
640.36404785,0.00081107
642.29285522,0.00121350
644.22166260,0.00108846
646.15046997,0.00105774
648.07927734,0.00120728
650.00808472,0.00143186
651.93689209,0.00141517
653.86569946,0.00112088
655.79450684,0.00173558
657.72331421,0.00198795
659.65212158,0.00135921
661.58092896,0.00172759
663.50973633,0.00195175
665.43854370,0.00174321
667.36735107,0.00189022
669.29615845,0.00202858
671.22496582,0.00242819
673.15377319,0.00226588
675.08258057,0.00222929
677.01138794,0.00251429
678.94019531,0.00219096
680.86900269,0.00234144
682.79781006,0.00250997
684.72661743,0.00248644
686.65542480,0.00238257
688.58423218,0.00223834
690.51303955,0.00246485
692.44184692,0.00226688
694.37065430,0.00259243
696.29946167,0.00322356
698.22826904,0.00338609
700.15707642,0.00362811
702.08588379,0.00350801
704.01469116,0.00335772
705.94349854,0.00296426
707.87230591,0.00267790
709.80111328,0.00235145
711.72992065,0.00150848
713.65872803,0.00114248
715.58753540,0.00059019
717.51634277,0.00041520
719.44515015,0.00029146
721.37395752,-0.00005995
723.30276489,0.00031130
725.23157227,0.00003643
727.16037964,0.00026469
729.08918701,0.00057510
731.01799438,0.00006272
732.94680176,0.00028708
734.87560913,0.00025585
736.80441650,0.00030816
738.73322388,0.00031753
740.66203125,-0.00013756
742.59083862,0.00009286
744.51964600,0.00019561
746.44845337,-0.00001478
748.37726074,0.00023101
750.30606812,0.00032566
752.23487549,0.00010967
754.16368286,0.00020131
756.09249023,0.00031275
758.02129761,0.00024396
759.95010498,0.00005612
761.87891235,0.00032803
763.80771973,0.00038928
765.73652710,0.00012282
767.66533447,0.00026828
769.59414185,0.00005562
771.52294922,0.00004104
773.45175659,0.00018914
775.38056396,0.00029262
777.30937134,0.00037611
779.23817871,0.00027986
781.16698608,0.00024342
783.09579346,-0.00000375
785.02460083,0.00033687
786.95340820,0.00044840
788.88221558,0.00017440
790.81102295,0.00047968
792.73983032,0.00038486
794.66863770,0.00023107
796.59744507,0.00025586
798.52625244,0.00039289
800.45505981,0.00072633
802.38386719,0.00065386
804.31267456,0.00051047
806.24148193,0.00046917
808.17028931,0.00016360
810.09909668,0.00010409
812.02790405,0.00046029
813.95671143,0.00026635
815.88551880,0.00011718
817.81432617,0.00038831
819.74313354,0.00039275
821.67194092,0.00026418
823.60074829,0.00014445
825.52955566,0.00059788
827.45836304,0.00067422
829.38717041,0.00037934
831.31597778,0.00053801
833.24478516,0.00068899
835.17359253,0.00097007
837.10239990,0.00094545
839.03120728,0.00110293
840.96001465,0.00107147
842.88882202,0.00083713
844.81762939,0.00085933
846.74643677,0.00049872
848.67524414,0.00061242
850.60405151,0.00058402
852.53285889,0.00059161
854.46166626,0.00063367
856.39047363,0.00043216
858.31928101,0.00067332
860.24808838,0.00031554
862.17689575,0.00041430
864.10570313,0.00051763
866.03451050,0.00014075
867.96331787,0.00058707
869.89212524,0.00050985
871.82093262,0.00035302
873.74973999,0.00058180
875.67854736,0.00024827
877.60735474,0.00000832
879.53616211,0.00012310
881.46496948,0.00041112
883.39377686,0.00053649
885.32258423,0.00017618
887.25139160,0.00019546
889.18019897,0.00057203
891.10900635,0.00030582
893.03781372,0.00010770
894.96662109,0.00049207
896.89542847,0.00040620
898.82423584,0.00028765
900.75304321,0.00071434
902.68185059,0.00079419
904.61065796,0.00038979
906.53946533,0.00010951
908.46827271,0.00034972
910.39708008,0.00051305
912.32588745,0.00049388
914.25469482,0.00057362
916.18350220,0.00042556
918.11230957,0.00058900
920.04111694,0.00094500
921.96992432,0.00088409
923.89873169,0.00083760
925.82753906,0.00082345
927.75634644,0.00073288
929.68515381,0.00100732
931.61396118,0.00121240
933.54276855,0.00116345
935.47157593,0.00109842
937.40038330,0.00093603
939.32919067,0.00128524
941.25799805,0.00138820
943.18680542,0.00118896
945.11561279,0.00159357
947.04442017,0.00153523
948.97322754,0.00124362
950.90203491,0.00136655
952.83084229,0.00153500
954.75964966,0.00143962
956.68845703,0.00119022
958.61726440,0.00129925
960.54607178,0.00132648
962.47487915,0.00118538
964.40368652,0.00129493
966.33249390,0.00149557
968.26130127,0.00142540
970.19010864,0.00155590
972.11891602,0.00181853
974.04772339,0.00165018
975.97653076,0.00191383
977.90533813,0.00205159
979.83414551,0.00183497
981.76295288,0.00223869
983.69176025,0.00256899
985.62056763,0.00267213
987.54937500,0.00302679
989.47818237,0.00330247
991.40698975,0.00355508
993.33579712,0.00411844
995.26460449,0.00437606
997.19341187,0.00442805
999.12221924,0.00478276
1001.05102661,0.00527518
1002.97983398,0.00584880
1004.90864136,0.00628216
1006.83744873,0.00667652
1008.76625610,0.00678131
1010.69506348,0.00701567
1012.62387085,0.00773498
1014.55267822,0.00807061
1016.48148560,0.00823955
1018.41029297,0.00868665
1020.33910034,0.00913147
1022.26790771,0.00930640
1024.19671509,0.00966810
1026.12552246,0.01012091
1028.05432983,0.01038308
1029.98313721,0.01065986
1031.91194458,0.01106623
1033.84075195,0.01157632
1035.76955933,0.01149047
1037.69836670,0.01163777
1039.62717407,0.01183415
1041.55598145,0.01153134
1043.48478882,0.01159057
1045.41359619,0.01158904
1047.34240356,0.01149619
1049.27121094,0.01108850
1051.20001831,0.01097017
1053.12882568,0.01065597
1055.05763306,0.00997790
1056.98644043,0.01041357
1058.91524780,0.01023883
1060.84405518,0.00964990
1062.77286255,0.00947946
1064.70166992,0.00912241
1066.63047729,0.00874803
1068.55928467,0.00840137
1070.48809204,0.00831298
1072.41689941,0.00790776
1074.34570679,0.00757197
1076.27451416,0.00707884
1078.20332153,0.00667277
1080.13212891,0.00663532
1082.06093628,0.00606789
1083.98974365,0.00602797
1085.91855103,0.00580927
1087.84735840,0.00527417
1089.77616577,0.00528607
1091.70497314,0.00497671
1093.63378052,0.00474291
1095.56258789,0.00475151
1097.49139526,0.00443494
1099.42020264,0.00412854
1101.34901001,0.00427090
1103.27781738,0.00440537
1105.20662476,0.00427098
1107.13543213,0.00397486
1109.06423950,0.00382007
1110.99304687,0.00381878
1112.92185425,0.00378330
1114.85066162,0.00393114
1116.77946899,0.00385740
1118.70827637,0.00382606
1120.63708374,0.00393717
1122.56589111,0.00405468
1124.49469849,0.00409892
1126.42350586,0.00394566
1128.35231323,0.00415232
1130.28112061,0.00431286
1132.20992798,0.00432613
1134.13873535,0.00435685
1136.06754272,0.00465274
1137.99635010,0.00494926
1139.92515747,0.00491169
1141.85396484,0.00529301
1143.78277222,0.00562578
1145.71157959,0.00588707
1147.64038696,0.00632226
1149.56919434,0.00669569
1151.49800171,0.00705533
1153.42680908,0.00739022
1155.35561646,0.00755881
1157.28442383,0.00777772
1159.21323120,0.00837207
1161.14203857,0.00857844
1163.07084595,0.00899811
1164.99965332,0.00940880
1166.92846069,0.00941893
1168.85726807,0.00996234
1170.78607544,0.01023941
1172.71488281,0.01048336
1174.64369019,0.01085908
1176.57249756,0.01129461
1178.50130493,0.01186424
1180.43011230,0.01227692
1182.35891968,0.01281914
1184.28772705,0.01320777
1186.21653442,0.01401990
1188.14534180,0.01476714
1190.07414917,0.01511704
1192.00295654,0.01592016
1193.93176392,0.01663354
1195.86057129,0.01724799
1197.78937866,0.01799031
1199.71818604,0.01877301
1201.64699341,0.01946553
1203.57580078,0.02022533
1205.50460815,0.02119789
1207.43341553,0.02201257
1209.36222290,0.02265911
1211.29103027,0.02318005
1213.21983765,0.02383424
1215.14864502,0.02468653
1217.07745239,0.02511345
1219.00625977,0.02523878
1220.93506714,0.02578187
1222.86387451,0.02623071
1224.79268188,0.02642293
1226.72148926,0.02661556
1228.65029663,0.02663925
1230.57910400,0.02678037
1232.50791138,0.02670938
1234.43671875,0.02687914
1236.36552612,0.02700530
1238.29433350,0.02656448
1240.22314087,0.02668951
1242.15194824,0.02664089
1244.08075562,0.02648612
1246.00956299,0.02659682
1247.93837036,0.02627142
1249.86717773,0.02628741
1251.79598511,0.02610553
1253.72479248,0.02564624
1255.65359985,0.02557363
1257.58240723,0.02499470
1259.51121460,0.02449650
1261.44002197,0.02439303
1263.36882935,0.02407868
1265.29763672,0.02383073
1267.22644409,0.02337536
1269.15525146,0.02313094
1271.08405884,0.02296901
1273.01286621,0.02238258
1274.94167358,0.02224819
1276.87048096,0.02182679
1278.79928833,0.02101547
1280.72809570,0.02082578
1282.65690308,0.02057654
1284.58571045,0.02024034
1286.51451782,0.01980082
1288.44332520,0.01915759
1290.37213257,0.01915661
1292.30093994,0.01909051
1294.22974731,0.01865270
1296.15855469,0.01869825
1298.08736206,0.01875177
1300.01616943,0.01870876
1301.94497681,0.01887849
1303.87378418,0.01911017
1305.80259155,0.01913541
1307.73139893,0.01925959
1309.66020630,0.01981297
1311.58901367,0.01999675
1313.51782104,0.02022709
1315.44662842,0.02085176
1317.37543579,0.02138130
1319.30424316,0.02198275
1321.23305054,0.02264036
1323.16185791,0.02317516
1325.09066528,0.02375134
1327.01947266,0.02481229
1328.94828003,0.02524631
1330.87708740,0.02556352
1332.80589478,0.02644660
1334.73470215,0.02661416
1336.66350952,0.02711058
1338.59231689,0.02708314
1340.52112427,0.02717545
1342.44993164,0.02863662
1344.37873901,0.02846717
1346.30754639,0.02813132
1348.23635376,0.02857812
1350.16516113,0.02825758
1352.09396851,0.02813817
1354.02277588,0.02782272
1355.95158325,0.02745141
1357.88039062,0.02748551
1359.80919800,0.02701109
1361.73800537,0.02565116
1363.66681274,0.02550299
1365.59562012,0.02670392
1367.52442749,0.02604569
1369.45323486,0.02588622
1371.38204224,0.02624602
1373.31084961,0.02488956
1375.23965698,0.02507754
1377.16846436,0.02579544
1379.09727173,0.02570466
1381.02607910,0.02555165
1382.95488647,0.02546036
1384.88369385,0.02542249
1386.81250122,0.02438206
1388.74130859,0.02494708
1390.67011597,0.02688383
1392.59892334,0.02612200
1394.52773071,0.02456060
1396.45653809,0.02559681
1398.38534546,0.02549278
1400.31415283,0.02547124
1402.24296021,0.02743479
1404.17176758,0.02595333
1406.10057495,0.02618467
1408.02938232,0.02720589
1409.95818970,0.02607643
1411.88699707,0.02653193
1413.81580444,0.02575087
1415.74461182,0.02623177
1417.67341919,0.02355627
1419.60222656,0.02115670
1421.53103394,0.02448079
1423.45984131,0.02357368
1425.38864868,0.02296513
1427.31745605,0.02339713
1429.24626343,0.02146044
1431.17507080,0.02097004
1433.10387817,0.02136341
1435.03268555,0.01937701
1436.96149292,0.01655519
1438.89030029,0.01892617
1440.81910767,0.01929199
1442.74791504,0.01790648
1444.67672241,0.01873618
1446.60552979,0.01716280
1448.53433716,0.01751547
1450.46314453,0.01798027
1452.39195190,0.01839457
1454.32075928,0.01897708
1456.24956665,0.01552288
1458.17837402,0.01640465
1460.10718140,0.02164582
1462.03598877,0.02288352
1463.96479614,0.02264611
1465.89360352,0.02376439
1467.82241089,0.02712229
1469.75121826,0.02866447
1471.68002563,0.02563449
1473.60883301,0.02728150
1475.53764038,0.03087704
1477.46644775,0.03320473
1479.39525513,0.03637352
1481.32406250,0.03668747
1483.25286987,0.03918149
1485.18167725,0.04038824
1487.11048462,0.03942435
1489.03929199,0.03916699
1490.96809937,0.03976737
1492.89690674,0.04640081
1494.82571411,0.04473233
1496.75452148,0.04043544
1498.68332886,0.04604422
1500.61213623,0.04707931
1502.54094360,0.05053533
1504.46975098,0.04741157
1506.39855835,0.03468513
1508.32736572,0.04265094
1510.25617310,0.04955124
1512.18498047,0.04820857
1514.11378784,0.05209261
1516.04259521,0.04695033
1517.97140259,0.04914096
1519.90020996,0.04722017
1521.82901733,0.04126062
1523.75782471,0.05027471
1525.68663208,0.04908722
1527.61543945,0.04918111
1529.54424683,0.05442540
1531.47305420,0.05208518
1533.40186157,0.04776511
1535.33066895,0.05093153
1537.25947632,0.05392149
1539.18828369,0.03873459
1541.11709106,0.04088503
1543.04589844,0.04837605
1544.97470581,0.04691395
1546.90351318,0.05532935
1548.83232056,0.05129656
1550.76112793,0.05324754
1552.68993530,0.05270832
1554.61874268,0.04816107
1556.54755005,0.05120983
1558.47635742,0.03599519
1560.40516479,0.03954363
1562.33397217,0.05576815
1564.26277954,0.05267778
1566.19158691,0.05414773
1568.12039429,0.05327491
1570.04920166,0.04740283
1571.97800903,0.05478104
1573.90681641,0.05494531
1575.83562378,0.04356976
1577.76443115,0.04983155
1579.69323853,0.05614394
1581.62204590,0.05353392
1583.55085327,0.05484112
1585.47966064,0.05403663
1587.40846802,0.05457205
1589.33727539,0.05413409
1591.26608276,0.05412136
1593.19489014,0.05416059
1595.12369751,0.05346877
1597.05250488,0.05422612
1598.98131226,0.05393891
1600.91011963,0.05409488
1602.83892700,0.05304905
1604.76773437,0.05395899
1606.69654175,0.05322640
1608.62534912,0.05319652
1610.55415649,0.05293091
1612.48296387,0.05346133
1614.41177124,0.05411161
1616.34057861,0.04421110
1618.26938599,0.04837158
1620.19819336,0.05584276
1622.12700073,0.04935987
1624.05580811,0.04976099
1625.98461548,0.05227662
1627.91342285,0.05201013
1629.84223022,0.05161747
1631.77103760,0.05513003
1633.69984497,0.05042409
1635.62865234,0.04184462
1637.55745972,0.04921004
1639.48626709,0.05371568
1641.41507446,0.05235316
1643.34388184,0.05375499
1645.27268921,0.04822251
1647.20149658,0.04260515
1649.13030396,0.05294418
1651.05911133,0.04949700
1652.98791870,0.03213094
1654.91672607,0.04429274
1656.84553345,0.05479432
1658.77434082,0.05242816
1660.70314819,0.05396162
1662.63195557,0.04886094
1664.56076294,0.05185048
1666.48957031,0.05549235
1668.41837769,0.04825340
1670.34718506,0.04723815
1672.27599243,0.05359197
1674.20479980,0.04926033
1676.13360718,0.04735194
1678.06241455,0.05441868
1679.99122192,0.05238909
1681.92002930,0.05162316
1683.84883667,0.04173980
1685.77764404,0.04203971
1687.70645142,0.05699509
1689.63525879,0.04925661
1691.56406616,0.05465540
1693.49287354,0.05488338
1695.42168091,0.04061501
1697.35048828,0.05017193
1699.27929565,0.04347423
1701.20810303,0.03983581
1703.13691040,0.05380274
1705.06571777,0.04926459
1706.99452515,0.05012107
1708.92333252,0.05403839
1710.85213989,0.05174705
1712.78094727,0.05275960
1714.70975464,0.04884291
1716.63856201,0.04378925
1718.56736938,0.04343718
1720.49617676,0.05145095
1722.42498413,0.05312853
1724.35379150,0.04947656
1726.28259888,0.05373028
1728.21140625,0.04948529
1730.14021362,0.05007008
1732.06902100,0.04841960
1733.99782837,0.03691775
1735.92663574,0.04633582
1737.85544312,0.05082769
1739.78425049,0.04544662
1741.71305786,0.04950996
1743.64186523,0.04989294
1745.57067261,0.04996061
1747.49947998,0.05026013
1749.42828735,0.04818262
1751.35709473,0.04604043
1753.28590210,0.05129374
1755.21470947,0.05350002
1757.14351685,0.04879592
1759.07232422,0.05373792
1761.00113159,0.04998728
1762.92993896,0.04894625
1764.85874634,0.05569776
1766.78755371,0.04969454
1768.71636108,0.05057930
1770.64516846,0.04988027
1772.57397583,0.04509883
1774.50278320,0.05048668
1776.43159058,0.05323116
1778.36039795,0.05250061
1780.28920532,0.05177332
1782.21801270,0.05222222
1784.14682007,0.05185868
1786.07562744,0.05102805
1788.00443481,0.05369018
1789.93324219,0.05200172
1791.86204956,0.04733454
1793.79085693,0.04959257
1795.71966431,0.05297680
1797.64847168,0.05226121
1799.57727905,0.05135654
1801.50608643,0.05046868
1803.43489380,0.05231373
1805.36370117,0.05318408
1807.29250854,0.05244345
1809.22131592,0.05267377
1811.15012329,0.05135320
1813.07893066,0.05297027
1815.00773804,0.05298457
1816.93654541,0.05248408
1818.86535278,0.05293352
1820.79416016,0.05289920
1822.72296753,0.05335319
1824.65177490,0.04979754
1826.58058228,0.05196407
1828.50938965,0.05167275
1830.43819702,0.04876378
1832.36700439,0.05304576
1834.29581177,0.05240905
1836.22461914,0.05251742
1838.15342651,0.05228062
1840.08223389,0.05268233
1842.01104126,0.05253203
1843.93984863,0.04661516
1845.86865601,0.04990355
1847.79746338,0.05251259
1849.72627075,0.05123187
1851.65507812,0.05281898
1853.58388550,0.05193123
1855.51269287,0.05237902
1857.44150024,0.05195328
1859.37030762,0.05154168
1861.29911499,0.05201443
1863.22792236,0.05140066
1865.15672974,0.05178551
1867.08553711,0.05015220
1869.01434448,0.04813022
1870.94315186,0.04999465
1872.87195923,0.05178098
1874.80076660,0.05102311
1876.72957397,0.05126983
1878.65838135,0.05101268
1880.58718872,0.05091130
1882.51599609,0.05129493
1884.44480347,0.05042558
1886.37361084,0.05118459
1888.30241821,0.04975048
1890.23122559,0.04869670
1892.16003296,0.05077963
1894.08884033,0.05007381
1896.01764771,0.04982854
1897.94645508,0.05045956
1899.87526245,0.05014798
1901.80406982,0.05020432
1903.73287720,0.04988955
1905.66168457,0.05005689
1907.59049194,0.04942200
1909.51929932,0.04915041
1911.44810669,0.04950742
1913.37691406,0.04953815
1915.30572144,0.04991278
1917.23452881,0.04772282
1919.16333618,0.04797021
1921.09214355,0.04960771
1923.02095093,0.04792439
1924.94975830,0.04906934
1926.87856567,0.04947603
1928.80737305,0.04880369
1930.73618042,0.04945068
1932.66498779,0.04885625
1934.59379517,0.04931112
1936.52260254,0.04886695
1938.45140991,0.04892724
1940.38021729,0.04894367
1942.30902466,0.04741756
1944.23783203,0.04822862
1946.16663940,0.04888203
1948.09544678,0.04867658
1950.02425415,0.04868262
1951.95306152,0.04858900
1953.88186890,0.04847142
1955.81067627,0.04835480
1957.73948364,0.04864422
1959.66829102,0.04853840
1961.59709839,0.04839791
1963.52590576,0.04840020
1965.45471313,0.04824894
1967.38352051,0.04779002
1969.31232788,0.04809780
1971.24113525,0.04844604
1973.16994263,0.04805443
1975.09875000,0.04830034
1977.02755737,0.04810252
1978.95636475,0.04802651
1980.88517212,0.04783431
1982.81397949,0.04768852
1984.74278687,0.04792895
1986.67159424,0.04740800
1988.60040161,0.04751394
1990.52920898,0.04696526
1992.45801636,0.04664492
1994.38682373,0.04748309
1996.31563110,0.04733967
1998.24443848,0.04716164
2000.17324585,0.04707291
2002.10205322,0.04695164
2004.03086060,0.04695626
2005.95966797,0.04678467
2007.88847534,0.04660889
2009.81728271,0.04634601
2011.74609009,0.04634865
2013.67489746,0.04654751
2015.60370483,0.04612883
2017.53251221,0.04570279
2019.46131958,0.04599012
2021.39012695,0.04594096
2023.31893433,0.04577184
2025.24774170,0.04565127
2027.17654907,0.04549461
2029.10535645,0.04552684
2031.03416382,0.04536755
2032.96297119,0.04537256
2034.89177856,0.04520074
2036.82058594,0.04513425
2038.74939331,0.04501473
2040.67820068,0.04459304
2042.60700806,0.04474276
2044.53581543,0.04466927
2046.46462280,0.04447731
2048.39343018,0.04454980
2050.32223755,0.04437570
2052.25104492,0.04424164
2054.17985229,0.04415217
2056.10865967,0.04406413
2058.03746704,0.04410984
2059.96627441,0.04388175
2061.89508179,0.04362649
2063.82388916,0.04364464
2065.75269653,0.04342633
2067.68150391,0.04337102
2069.61031128,0.04339673
2071.53911865,0.04332507
2073.46792603,0.04330643
2075.39673340,0.04306317
2077.32554077,0.04304744
2079.25434814,0.04301936
2081.18315552,0.04284329
2083.11196289,0.04280394
2085.04077026,0.04279099
2086.96957764,0.04269663
2088.89838501,0.04249270
2090.82719238,0.04246617
2092.75599976,0.04243327
2094.68480713,0.04232588
2096.61361450,0.04224279
2098.54242187,0.04213431
2100.47122925,0.04199667
2102.40003662,0.04195739
2104.32884399,0.04199798
2106.25765137,0.04193600
2108.18645874,0.04184406
2110.11526611,0.04175098
2112.04407349,0.04176932
2113.97288086,0.04153124
2115.90168823,0.04141111
2117.83049561,0.04153013
2119.75930298,0.04127893
2121.68811035,0.04122550
2123.61691772,0.04125240
2125.54572510,0.04124634
2127.47453247,0.04122002
2129.40333984,0.04106126
2131.33214722,0.04095171
2133.26095459,0.04085511
2135.18976196,0.04085610
2137.11856934,0.04063240
2139.04737671,0.04057100
2140.97618408,0.04067020
2142.90499146,0.04053773
2144.83379883,0.04054834
2146.76260620,0.04054845
2148.69141357,0.04046346
2150.62022095,0.04047127
2152.54902832,0.04044728
2154.47783569,0.04028335
2156.40664307,0.04027479
2158.33545044,0.04018223
2160.26425781,0.04007978
2162.19306519,0.04014599
2164.12187256,0.03995135
2166.05067993,0.03994645
2167.97948730,0.03989998
2169.90829468,0.03969084
2171.83710205,0.03977335
2173.76590942,0.03979384
2175.69471680,0.03966297
2177.62352417,0.03964730
2179.55233154,0.03961400
2181.48113892,0.03947160
2183.40994629,0.03959578
2185.33875366,0.03955861
2187.26756104,0.03938470
2189.19636841,0.03942374
2191.12517578,0.03932975
2193.05398315,0.03917652
2194.98279053,0.03909303
2196.91159790,0.03910588
2198.84040527,0.03896429
2200.76921265,0.03898137
2202.69802002,0.03900354
2204.62682739,0.03883275
2206.55563477,0.03882614
2208.48444214,0.03871984
2210.41324951,0.03886347
2212.34205688,0.03879768
2214.27086426,0.03863736
2216.19967163,0.03871104
2218.12847900,0.03844811
2220.05728638,0.03846601
2221.98609375,0.03849930
2223.91490112,0.03833518
2225.84370850,0.03829085
2227.77251587,0.03830817
2229.70132324,0.03830390
2231.63013062,0.03810487
2233.55893799,0.03812777
2235.48774536,0.03814808
2237.41655273,0.03786299
2239.34536011,0.03777260
2241.27416748,0.03779478
2243.20297485,0.03760964
2245.13178223,0.03759148
2247.06058960,0.03765569
2248.98939697,0.03764833
2250.91820435,0.03760048
2252.84701172,0.03735773
2254.77581909,0.03733899
2256.70462646,0.03723760
2258.63343384,0.03712649
2260.56224121,0.03722886
2262.49104858,0.03720292
2264.41985596,0.03715179
2266.34866333,0.03689586
2268.27747070,0.03686242
2270.20627808,0.03689207
2272.13508545,0.03680009
2274.06389282,0.03686605
2275.99270020,0.03676975
2277.92150757,0.03674639
2279.85031494,0.03666084
2281.77912231,0.03652298
2283.70792969,0.03653888
2285.63673706,0.03654511
2287.56554443,0.03644738
2289.49435181,0.03627693
2291.42315918,0.03621206
2293.35196655,0.03615092
2295.28077393,0.03614090
2297.20958130,0.03597117
2299.13838867,0.03576069
2301.06719604,0.03567559
2302.99600342,0.03533376
2304.92481079,0.03515023
2306.85361816,0.03512716
2308.78242554,0.03478032
2310.71123291,0.03445564
2312.64004028,0.03414758
2314.56884766,0.03374191
2316.49765503,0.03342825
2318.42646240,0.03285611
2320.35526978,0.03240720
2322.28407715,0.03206855
2324.21288452,0.03156473
2326.14169189,0.03135828
2328.07049927,0.03084888
2329.99930664,0.03040871
2331.92811401,0.03035948
2333.85692139,0.03010054
2335.78572876,0.02998722
2337.71453613,0.03006123
2339.64334351,0.02999018
2341.57215088,0.02999609
2343.50095825,0.03045840
2345.42976562,0.03095347
2347.35857300,0.03225238
2349.28738037,0.03340119
2351.21618774,0.03218437
2353.14499512,0.03051568
2355.07380249,0.02934258
2357.00260986,0.02845219
2358.93141724,0.02797894
2360.86022461,0.02762096
2362.78903198,0.02772206
2364.71783936,0.02781447
2366.64664673,0.02815020
2368.57545410,0.02871048
2370.50426147,0.02932135
2372.43306885,0.03024883
2374.36187622,0.03109564
2376.29068359,0.03194234
2378.21949097,0.03274981
2380.14829834,0.03336595
2382.07710571,0.03355637
2384.00591309,0.03367572
2385.93472046,0.03386104
2387.86352783,0.03380977
2389.79233521,0.03382199
2391.72114258,0.03377890
2393.64994995,0.03374092
2395.57875732,0.03369166
2397.50756470,0.03366847
2399.43637207,0.03358474
2401.36517944,0.03347825
2403.29398682,0.03357057
2405.22279419,0.03345262
2407.15160156,0.03341327
2409.08040894,0.03332851
2411.00921631,0.03324518
2412.93802368,0.03333569
2414.86683105,0.03318142
2416.79563843,0.03311348
2418.72444580,0.03297437
2420.65325317,0.03293344
2422.58206055,0.03299494
2424.51086792,0.03290791
2426.43967529,0.03307393
2428.36848267,0.03290365
2430.29729004,0.03267305
2432.22609741,0.03281528
2434.15490479,0.03264035
2436.08371216,0.03251891
2438.01251953,0.03256852
2439.94132690,0.03253258
2441.87013428,0.03253002
2443.79894165,0.03238279
2445.72774902,0.03236131
2447.65655640,0.03238817
2449.58536377,0.03230105
2451.51417114,0.03230021
2453.44297852,0.03219555
2455.37178589,0.03217541
2457.30059326,0.03212792
2459.22940063,0.03206446
2461.15820801,0.03214553
2463.08701538,0.03196912
2465.01582275,0.03187083
2466.94463013,0.03188056
2468.87343750,0.03181731
2470.80224487,0.03179997
2472.73105225,0.03171437
2474.65985962,0.03174745
2476.58866699,0.03161916
2478.51747437,0.03145265
2480.44628174,0.03152955
2482.37508911,0.03150960
2484.30389648,0.03159981
2486.23270386,0.03150617
2488.16151123,0.03129299
2490.09031860,0.03140110
2492.01912598,0.03138566
2493.94793335,0.03129509
2495.87674072,0.03123540
2497.80554810,0.03123020
2499.73435547,0.03116140
2501.66316284,0.03110833
2503.59197021,0.03118373
2505.52077759,0.03091494
2507.44958496,0.03094061
2509.37839233,0.03106613
2511.30719971,0.03082918
2513.23600708,0.03088439
2515.16481445,0.03082427
2517.09362183,0.03067860
2519.02242920,0.03071523
2520.95123657,0.03067377
2522.88004395,0.03058086
2524.80885132,0.03054227
2526.73765869,0.03046264
2528.66646606,0.03041602
2530.59527344,0.03052542
2532.52408081,0.03036378
2534.45288818,0.03032610
2536.38169556,0.03032906
2538.31050293,0.03020681
2540.23931030,0.03029315
2542.16811768,0.03013057
2544.09692505,0.03020315
2546.02573242,0.03015833
2547.95453979,0.02991629
2549.88334717,0.03012190
2551.81215454,0.02996113
2553.74096191,0.02980035
2555.66976929,0.02985305
2557.59857666,0.02975575
2559.52738403,0.02975996
2561.45619141,0.02973094
2563.38499878,0.02975704
2565.31380615,0.02971196
2567.24261353,0.02955859
2569.17142090,0.02952620
2571.10022827,0.02939849
2573.02903564,0.02937061
2574.95784302,0.02949487
2576.88665039,0.02942202
2578.81545776,0.02936982
2580.74426514,0.02925991
2582.67307251,0.02916306
2584.60187988,0.02922939
2586.53068726,0.02916621
2588.45949463,0.02913645
2590.38830200,0.02901123
2592.31710937,0.02898388
2594.24591675,0.02902283
2596.17472412,0.02885381
2598.10353149,0.02895484
2600.03233887,0.02892496
2601.96114624,0.02881513
2603.88995361,0.02891929
2605.81876099,0.02876469
2607.74756836,0.02869018
2609.67637573,0.02873161
2611.60518311,0.02853396
2613.53399048,0.02852729
2615.46279785,0.02855579
2617.39160522,0.02839503
2619.32041260,0.02845097
2621.24921997,0.02833330
2623.17802734,0.02818979
2625.10683472,0.02826088
2627.03564209,0.02823072
2628.96444946,0.02819599
2630.89325684,0.02809810
2632.82206421,0.02807896
2634.75087158,0.02794695
2636.67967895,0.02799078
2638.60848633,0.02809753
2640.53729370,0.02788386
2642.46610107,0.02794719
2644.39490845,0.02782868
2646.32371582,0.02783620
2648.25252319,0.02795039
2650.18133057,0.02771535
2652.11013794,0.02769447
2654.03894531,0.02762950
2655.96775269,0.02762784
2657.89656006,0.02757128
2659.82536743,0.02754366
2661.75417480,0.02755758
2663.68298218,0.02736784
2665.61178955,0.02748477
2667.54059692,0.02745303
2669.46940430,0.02729617
2671.39821167,0.02723082
2673.32701904,0.02718836
2675.25582642,0.02727004
2677.18463379,0.02709480
2679.11344116,0.02705860
2681.04224854,0.02717046
2682.97105591,0.02708190
2684.89986328,0.02707037
2686.82867065,0.02693972
2688.75747803,0.02683000
2690.68628540,0.02693528
2692.61509277,0.02680104
2694.54390015,0.02678780
2696.47270752,0.02688107
2698.40151489,0.02669958
2700.33032227,0.02669267
2702.25912964,0.02660138
2704.18793701,0.02648097
2706.11674438,0.02651917
2708.04555176,0.02643242
2709.97435913,0.02643164
2711.90316650,0.02637393
2713.83197388,0.02630752
2715.76078125,0.02638308
2717.68958862,0.02634428
2719.61839600,0.02621026
2721.54720337,0.02622527
2723.47601074,0.02622655
2725.40481812,0.02605638
2727.33362549,0.02601500
2729.26243286,0.02602356
2731.19124023,0.02594223
2733.12004761,0.02590226
2735.04885498,0.02587688
2736.97766235,0.02573497
2738.90646973,0.02577290
2740.83527710,0.02577770
2742.76408447,0.02556732
2744.69289185,0.02573293
2746.62169922,0.02566783
2748.55050659,0.02547394
2750.47931396,0.02550342
2752.40812134,0.02537968
2754.33692871,0.02554940
2756.26573608,0.02550680
2758.19454346,0.02524728
2760.12335083,0.02532847
2762.05215820,0.02535241
2763.98096558,0.02529337
2765.90977295,0.02521243
2767.83858032,0.02509225
2769.76738770,0.02502530
2771.69619507,0.02497658
2773.62500244,0.02496963
2775.55380981,0.02507832
2777.48261719,0.02497783
2779.41142456,0.02477774
2781.34023193,0.02478261
2783.26903931,0.02478899
2785.19784668,0.02474245
2787.12665405,0.02463817
2789.05546143,0.02469090
2790.98426880,0.02468499
2792.91307617,0.02452871
2794.84188354,0.02449774
2796.77069092,0.02442751
2798.69949829,0.02435701
2800.62830566,0.02430875
2802.55711304,0.02427638
2804.48592041,0.02422769
2806.41472778,0.02421195
2808.34353516,0.02410685
2810.27234253,0.02404277
2812.20114990,0.02411185
2814.12995728,0.02399222
2816.05876465,0.02403406
2817.98757202,0.02395913
2819.91637939,0.02378030
2821.84518677,0.02374058
2823.77399414,0.02365807
2825.70280151,0.02367022
2827.63160889,0.02357772
2829.56041626,0.02366843
2831.48922363,0.02360446
2833.41803101,0.02344628
2835.34683838,0.02358683
2837.27564575,0.02343014
2839.20445312,0.02326834
2841.13326050,0.02321660
2843.06206787,0.02317135
2844.99087524,0.02308015
2846.91968262,0.02288499
2848.84848999,0.02273274
2850.77729736,0.02272033
2852.70610474,0.02275967
2854.63491211,0.02261598
2856.56371948,0.02268497
2858.49252686,0.02265902
2860.42133423,0.02256261
2862.35014160,0.02264664
2864.27894897,0.02252408
2866.20775635,0.02248791
2868.13656372,0.02241618
2870.06537109,0.02235182
2871.99417847,0.02232896
2873.92298584,0.02224819
2875.85179321,0.02220385
2877.78060059,0.02216848
2879.70940796,0.02229800
2881.63821533,0.02219363
2883.56702270,0.02204871
2885.49583008,0.02207874
2887.42463745,0.02198795
2889.35344482,0.02194509
2891.28225220,0.02189949
2893.21105957,0.02179708
2895.13986694,0.02171467
2897.06867432,0.02177793
2898.99748169,0.02176333
2900.92628906,0.02154738
2902.85509644,0.02155481
2904.78390381,0.02159326
2906.71271118,0.02143425
2908.64151855,0.02138494
2910.57032593,0.02133638
2912.49913330,0.02118780
2914.42794067,0.02111745
2916.35674805,0.02100324
2918.28555542,0.02083417
2920.21436279,0.02082853
2922.14317017,0.02095657
2924.07197754,0.02079502
2926.00078491,0.02066230
2927.92959229,0.02078489
2929.85839966,0.02071073
2931.78720703,0.02084704
2933.71601440,0.02084055
2935.64482178,0.02061713
2937.57362915,0.02071367
2939.50243652,0.02069013
2941.43124390,0.02071518
2943.36005127,0.02074740
2945.28885864,0.02068911
2947.21766602,0.02063801
2949.14647339,0.02056655
2951.07528076,0.02058552
2953.00408813,0.02045411
2954.93289551,0.02042205
2956.86170288,0.02048212
2958.79051025,0.02036350
2960.71931763,0.02024772
2962.64812500,0.02022701
2964.57693237,0.02018844
2966.50573975,0.02012558
2968.43454712,0.02013492
2970.36335449,0.02008502
2972.29216187,0.02013059
2974.22096924,0.02023946
2976.14977661,0.02020844
2978.07858398,0.02014443
2980.00739136,0.02013794
2981.93619873,0.02010706
2983.86500610,0.02007802
2985.79381348,0.02015353
2987.72262085,0.02010070
2989.65142822,0.02009752
2991.58023560,0.02000411
2993.50904297,0.01984483
2995.43785034,0.01993632
2997.36665771,0.01984222
2999.29546509,0.01980043
3001.22427246,0.01989512
3003.15307983,0.01986310
3005.08188721,0.01973795
3007.01069458,0.01970561
3008.93950195,0.01981892
3010.86830933,0.01971778
3012.79711670,0.01960603
3014.72592407,0.01955263
3016.65473145,0.01952081
3018.58353882,0.01953324
3020.51234619,0.01948820
3022.44115356,0.01942176
3024.36996094,0.01940630
3026.29876831,0.01942008
3028.22757568,0.01926896
3030.15638306,0.01935133
3032.08519043,0.01931468
3034.01399780,0.01902503
3035.94280518,0.01913493
3037.87161255,0.01911474
3039.80041992,0.01899197
3041.72922729,0.01906699
3043.65803467,0.01903151
3045.58684204,0.01891051
3047.51564941,0.01890662
3049.44445679,0.01890676
3051.37326416,0.01882719
3053.30207153,0.01876390
3055.23087891,0.01862130
3057.15968628,0.01868415
3059.08849365,0.01870662
3061.01730103,0.01854540
3062.94610840,0.01859240
3064.87491577,0.01852639
3066.80372314,0.01842914
3068.73253052,0.01850709
3070.66133789,0.01846859
3072.59014526,0.01830276
3074.51895264,0.01830391
3076.44776001,0.01832306
3078.37656738,0.01821554
3080.30537476,0.01819047
3082.23418213,0.01819770
3084.16298950,0.01822424
3086.09179687,0.01815020
3088.02060425,0.01806256
3089.94941162,0.01803418
3091.87821899,0.01797302
3093.80702637,0.01798658
3095.73583374,0.01794766
3097.66464111,0.01784393
3099.59344849,0.01775199
3101.52225586,0.01778119
3103.45106323,0.01784400
3105.37987061,0.01775629
3107.30867798,0.01762665
3109.23748535,0.01759057
3111.16629272,0.01759541
3113.09510010,0.01756473
3115.02390747,0.01760933
3116.95271484,0.01748396
3118.88152222,0.01735789
3120.81032959,0.01736759
3122.73913696,0.01729922
3124.66794434,0.01732866
3126.59675171,0.01723571
3128.52555908,0.01719760
3130.45436645,0.01714494
3132.38317383,0.01695905
3134.31198120,0.01703617
3136.24078857,0.01698301
3138.16959595,0.01689960
3140.09840332,0.01692990
3142.02721069,0.01683795
3143.95601807,0.01680259
3145.88482544,0.01677403
3147.81363281,0.01670859
3149.74244019,0.01660613
3151.67124756,0.01657439
3153.60005493,0.01663011
3155.52886230,0.01650964
3157.45766968,0.01646120
3159.38647705,0.01653391
3161.31528442,0.01640063
3163.24409180,0.01637668
3165.17289917,0.01637465
3167.10170654,0.01619884
3169.03051392,0.01623327
3170.95932129,0.01625571
3172.88812866,0.01612413
3174.81693604,0.01600295
3176.74574341,0.01597599
3178.67455078,0.01602174
3180.60335815,0.01588779
3182.53216553,0.01588211
3184.46097290,0.01595585
3186.38978027,0.01575917
3188.31858765,0.01576037
3190.24739502,0.01576335
3192.17620239,0.01553517
3194.10500977,0.01564175
3196.03381714,0.01568466
3197.96262451,0.01556282
3199.89143188,0.01562518
3201.82023926,0.01545765
3203.74904663,0.01540519
3205.67785400,0.01549120
3207.60666138,0.01531136
3209.53546875,0.01530416
3211.46427612,0.01538156
3213.39308350,0.01529269
3215.32189087,0.01516575
3217.25069824,0.01510863
3219.17950562,0.01518670
3221.10831299,0.01516115
3223.03712036,0.01510642
3224.96592773,0.01516096
3226.89473511,0.01504615
3228.82354248,0.01498665
3230.75234985,0.01499626
3232.68115723,0.01492152
3234.60996460,0.01499182
3236.53877197,0.01493232
3238.46757935,0.01490273
3240.39638672,0.01491187
3242.32519409,0.01478497
3244.25400146,0.01481903
3246.18280884,0.01470082
3248.11161621,0.01463493
3250.04042358,0.01474865
3251.96923096,0.01469448
3253.89803833,0.01456488
3255.82684570,0.01456521
3257.75565308,0.01468581
3259.68446045,0.01457865
3261.61326782,0.01457874
3263.54207520,0.01464907
3265.47088257,0.01461147
3267.39968994,0.01462669
3269.32849731,0.01444739
3271.25730469,0.01447381
3273.18611206,0.01452162
3275.11491943,0.01439053
3277.04372681,0.01438306
3278.97253418,0.01438734
3280.90134155,0.01445303
3282.83014893,0.01437143
3284.75895630,0.01432463
3286.68776367,0.01439100
3288.61657104,0.01435613
3290.54537842,0.01430412
3292.47418579,0.01418262
3294.40299316,0.01422032
3296.33180054,0.01434944
3298.26060791,0.01425956
3300.18941528,0.01406842
3302.11822266,0.01411669
3304.04703003,0.01420974
3305.97583740,0.01411756
3307.90464478,0.01413002
3309.83345215,0.01404312
3311.76225952,0.01397663
3313.69106689,0.01403865
3315.61987427,0.01401107
3317.54868164,0.01401931
3319.47748901,0.01394456
3321.40629639,0.01393286
3323.33510376,0.01393503
3325.26391113,0.01385722
3327.19271851,0.01385373
3329.12152588,0.01383454
3331.05033325,0.01385012
3332.97914062,0.01382682
3334.90794800,0.01378926
3336.83675537,0.01369884
3338.76556274,0.01364376
3340.69437012,0.01371868
3342.62317749,0.01376499
3344.55198486,0.01376067
3346.48079224,0.01360938
3348.40959961,0.01361664
3350.33840698,0.01360139
3352.26721436,0.01350030
3354.19602173,0.01352401
3356.12482910,0.01343761
3358.05363647,0.01350393
3359.98244385,0.01347353
3361.91125122,0.01347376
3363.84005859,0.01348836
3365.76886597,0.01334866
3367.69767334,0.01345284
3369.62648071,0.01328190
3371.55528809,0.01325184
3373.48409546,0.01336834
3375.41290283,0.01321787
3377.34171020,0.01326570
3379.27051758,0.01323657
3381.19932495,0.01323659
3383.12813232,0.01324647
3385.05693970,0.01310617
3386.98574707,0.01306278
3388.91455444,0.01312901
3390.84336182,0.01308647
3392.77216919,0.01299522
3394.70097656,0.01304696
3396.62978394,0.01288137
3398.55859131,0.01279410
3400.48739868,0.01286349
3402.41620605,0.01285260
3404.34501343,0.01286476
3406.27382080,0.01277851
3408.20262817,0.01280675
3410.13143555,0.01286179
3412.06024292,0.01282638
3413.98905029,0.01272118
3415.91785767,0.01263736
3417.84666504,0.01268593
3419.77547241,0.01268275
3421.70427979,0.01262591
3423.63308716,0.01252055
3425.56189453,0.01244206
3427.49070190,0.01247991
3429.41950928,0.01255579
3431.34831665,0.01249043
3433.27712402,0.01250643
3435.20593140,0.01248249
3437.13473877,0.01238262
3439.06354614,0.01251037
3440.99235352,0.01235521
3442.92116089,0.01232742
3444.84996826,0.01233532
3446.77877563,0.01214026
3448.70758301,0.01235111
3450.63639038,0.01232563
3452.56519775,0.01220331
3454.49400513,0.01229597
3456.42281250,0.01221650
3458.35161987,0.01214979
3460.28042725,0.01219129
3462.20923462,0.01217173
3464.13804199,0.01210997
3466.06684937,0.01211735
3467.99565674,0.01208513
3469.92446411,0.01207528
3471.85327148,0.01206849
3473.78207886,0.01203511
3475.71088623,0.01194541
3477.63969360,0.01202898
3479.56850098,0.01207548
3481.49730835,0.01185590
3483.42611572,0.01198342
3485.35492310,0.01193996
3487.28373047,0.01181947
3489.21253784,0.01193309
3491.14134521,0.01198195
3493.07015259,0.01206373
3494.99895996,0.01188111
3496.92776733,0.01185004
3498.85657471,0.01193148
3500.78538208,0.01186732
3502.71418945,0.01168331
3504.64299683,0.01172158
3506.57180420,0.01203221
3508.50061157,0.01179843
3510.42941895,0.01171871
3512.35822632,0.01178103
3514.28703369,0.01173388
3516.21584106,0.01185323
3518.14464844,0.01182114
3520.07345581,0.01188877
3522.00226318,0.01173925
3523.93107056,0.01158453
3525.85987793,0.01168425
3527.78868530,0.01163086
3529.71749268,0.01161858
3531.64630005,0.01174939
3533.57510742,0.01180437
3535.50391479,0.01165637
3537.43272217,0.01163180
3539.36152954,0.01177882
3541.29033691,0.01174772
3543.21914429,0.01160174
3545.14795166,0.01146716
3547.07675903,0.01130947
3549.00556641,0.01156335
3550.93437378,0.01166632
3552.86318115,0.01135122
3554.79198853,0.01155707
3556.72079590,0.01158041
3558.64960327,0.01147932
3560.57841064,0.01152996
3562.50721802,0.01148908
3564.43602539,0.01145864
3566.36483276,0.01068640
3568.29364014,0.01043501
3570.22244751,0.01134345
3572.15125488,0.01164002
3574.08006226,0.01138929
3576.00886963,0.01148995
3577.93767700,0.01149861
3579.86648437,0.01140357
3581.79529175,0.01151054
3583.72409912,0.01155636
3585.65290649,0.01114289
3587.58171387,0.01029817
3589.51052124,0.01068554
3591.43932861,0.01147086
3593.36813599,0.01113124
3595.29694336,0.01104073
3597.22575073,0.01123916
3599.15455811,0.01125010
3601.08336548,0.01111443
3603.01217285,0.01124612
3604.94098022,0.01152438
3606.86978760,0.01110642
3608.79859497,0.01046810
3610.72740234,0.01083580
3612.65620972,0.01093521
3614.58501709,0.01055399
3616.51382446,0.01137250
3618.44263184,0.01050284
3620.37143921,0.01025468
3622.30024658,0.01144498
3624.22905395,0.01102021
3626.15786133,0.01157401
3628.08666870,0.00987609
3630.01547607,0.00908594
3631.94428345,0.01131059
3633.87309082,0.01088444
3635.80189819,0.01110091
3637.73070557,0.01145643
3639.65951294,0.01121543
3641.58832031,0.01131328
3643.51712769,0.01118395
3645.44593506,0.01117884
3647.37474243,0.01011591
3649.30354980,0.00931633
3651.23235718,0.00945690
3653.16116455,0.01125321
3655.08997192,0.01106326
3657.01877930,0.00993760
3658.94758667,0.01131740
3660.87639404,0.01105277
3662.80520142,0.01122428
3664.73400879,0.01114788
3666.66281616,0.01113511
3668.59162354,0.01075582
3670.52043091,0.00882410
3672.44923828,0.01073453
3674.37804565,0.01010023
3676.30685303,0.00850088
3678.23566040,0.01063258
3680.16446777,0.01077087
3682.09327515,0.01080298
3684.02208252,0.01100973
3685.95088989,0.01083295
3687.87969727,0.00974813
3689.80850464,0.00911139
3691.73731201,0.01037452
3693.66611938,0.01049490
3695.59492676,0.01089343
3697.52373413,0.01083990
3699.45254150,0.01072815
3701.38134888,0.01049794
3703.31015625,0.01005132
3705.23896362,0.01107170
3707.16777100,0.01052056
3709.09657837,0.01029959
3711.02538574,0.00963662
3712.95419312,0.00910504
3714.88300049,0.01068893
3716.81180786,0.01052701
3718.74061523,0.01063590
3720.66942261,0.01030595
3722.59822998,0.01003271
3724.52703735,0.01032294
3726.45584473,0.00959481
3728.38465210,0.01045743
3730.31345947,0.01017705
3732.24226685,0.00949171
3734.17107422,0.00934737
3736.09988159,0.00876252
3738.02868896,0.00922372
3739.95749634,0.00999281
3741.88630371,0.01039262
3743.81511108,0.00801475
3745.74391846,0.00763546
3747.67272583,0.00996242
3749.60153320,0.00858187
3751.53034058,0.00789171
3753.45914795,0.00907372
3755.38795532,0.00972333
3757.31676270,0.01007318
3759.24557007,0.00932151
3761.17437744,0.00967875
3763.10318481,0.01030555
3765.03199219,0.00963428
3766.96079956,0.00982358
3768.88960693,0.00966083
3770.81841431,0.00932701
3772.74722168,0.01004792
3774.67602905,0.01007022
3776.60483643,0.01011029
3778.53364380,0.00969234
3780.46245117,0.00939984
3782.39125854,0.00999369
3784.32006592,0.00974660
3786.24887329,0.00972614
3788.17768066,0.00990206
3790.10648804,0.00988625
3792.03529541,0.00980083
3793.96410278,0.00991870
3795.89291016,0.00931276
3797.82171753,0.00929400
3799.75052490,0.00968312
3801.67933228,0.00780545
3803.60813965,0.00913923
3805.53694702,0.00963360
3807.46575439,0.00810279
3809.39456177,0.00971814
3811.32336914,0.00946144
3813.25217651,0.00975943
3815.18098389,0.00873235
3817.10979126,0.00792925
3819.03859863,0.00974370
3820.96740601,0.00787749
3822.89621338,0.00843384
3824.82502075,0.00968730
3826.75382812,0.00873522
3828.68263550,0.00941314
3830.61144287,0.00914537
3832.54025024,0.00878888
3834.46905762,0.00897685
3836.39786499,0.00850069
3838.32667236,0.00769643
3840.25547974,0.00840409
3842.18428711,0.00896783
3844.11309448,0.00864659
3846.04190186,0.00931337
3847.97070923,0.00910921
3849.89951660,0.00916212
3851.82832397,0.00822429
3853.75713135,0.00625018
3855.68593872,0.00748107
3857.61474609,0.00914630
3859.54355347,0.00881291
3861.47236084,0.00881279
3863.40116821,0.00850369
3865.32997559,0.00800160
3867.25878296,0.00889756
3869.18759033,0.00804175
3871.11639770,0.00765371
3873.04520508,0.00887551
3874.97401245,0.00818972
3876.90281982,0.00899328
3878.83162720,0.00901622
3880.76043457,0.00778018
3882.68924194,0.00896994
3884.61804932,0.00833859
3886.54685669,0.00766207
3888.47566406,0.00893399
3890.40447144,0.00841170
3892.33327881,0.00797187
3894.26208618,0.00871858
3896.19089355,0.00882049
3898.11970093,0.00847274
3900.04850830,0.00796737
3901.97731567,0.00780208
3903.90612305,0.00769767
3905.83493042,0.00789142
3907.76373779,0.00867367
3909.69254517,0.00865221
3911.62135254,0.00856904
3913.55015991,0.00867440
3915.47896728,0.00839128
3917.40777466,0.00811346
3919.33658203,0.00808436
3921.26538940,0.00841925
3923.19419678,0.00830370
3925.12300415,0.00823599
3927.05181152,0.00843887
3928.98061890,0.00838301
3930.90942627,0.00821016
3932.83823364,0.00804097
3934.76704102,0.00826407
3936.69584839,0.00833969
3938.62465576,0.00836422
3940.55346313,0.00831799
3942.48227051,0.00799766
3944.41107788,0.00814672
3946.33988525,0.00825851
3948.26869263,0.00805408
3950.19750000,0.00802806
3952.12630737,0.00814365
3954.05511475,0.00819198
3955.98392212,0.00814806
3957.91272949,0.00816279
3959.84153687,0.00816874
3961.77034424,0.00802628
3963.69915161,0.00808744
3965.62795898,0.00819692
3967.55676636,0.00808814
3969.48557373,0.00807857
3971.41438110,0.00795159
3973.34318848,0.00790136
3975.27199585,0.00792615
3977.20080322,0.00791441
3979.12961060,0.00796211
3981.05841797,0.00784237
3982.98722534,0.00789475
3984.91603271,0.00792674
3986.84484009,0.00787180
3988.77364746,0.00781856
3990.70245483,0.00776185
3992.63126221,0.00782136
3994.56006958,0.00779308
3996.48887695,0.00776531
3998.41768433,0.00773860
4000.34649170,0.00781193
4002.27529907,0.00775165
4004.20410645,0.00770028
4006.13291382,0.00774306
4008.06172119,0.00767957
4009.99052856,0.00774866
4011.91933594,0.00761149
4013.84814331,0.00759013
4015.77695068,0.00763540
4017.70575806,0.00755533
4019.63456543,0.00759328
4021.56337280,0.00758082
4023.49218018,0.00757591
4025.42098755,0.00746664
4027.34979492,0.00750005
4029.27860229,0.00752472
4031.20740967,0.00749432
4033.13621704,0.00750561
4035.06502441,0.00741141
4036.99383179,0.00741245
4038.92263916,0.00737185
4040.85144653,0.00740674
4042.78025391,0.00739999
4044.70906128,0.00736628
4046.63786865,0.00734711
4048.56667603,0.00734459
4050.49548340,0.00735853
4052.42429077,0.00720120
4054.35309814,0.00724074
4056.28190552,0.00725497
4058.21071289,0.00723931
4060.13952026,0.00722592
4062.06832764,0.00721801
4063.99713501,0.00725587
4065.92594238,0.00713739
4067.85474976,0.00717373
4069.78355713,0.00714066
4071.71236450,0.00717609
4073.64117187,0.00714653
4075.56997925,0.00702294
4077.49878662,0.00712300
4079.42759399,0.00706160
4081.35640137,0.00703482
4083.28520874,0.00699671
4085.21401611,0.00698041
4087.14282349,0.00700765
4089.07163086,0.00699899
4091.00043823,0.00700391
4092.92924561,0.00696198
4094.85805298,0.00695522
4096.78686035,0.00686274
4098.71566772,0.00688826
4100.64447510,0.00685997
4102.57328247,0.00685323
4104.50208984,0.00687046
4106.43089722,0.00675833
4108.35970459,0.00685642
4110.28851196,0.00689137
4112.21731934,0.00682650
4114.14612671,0.00669488
4116.07493408,0.00673819
4118.00374145,0.00678702
4119.93254883,0.00668775
4121.86135620,0.00675017
4123.79016357,0.00659367
4125.71897095,0.00658408
4127.64777832,0.00671377
4129.57658569,0.00669636
4131.50539307,0.00666075
4133.43420044,0.00656467
4135.36300781,0.00660057
4137.29181519,0.00657623
4139.22062256,0.00654507
4141.14942993,0.00659442
4143.07823730,0.00652520
4145.00704468,0.00648534
4146.93585205,0.00656477
4148.86465942,0.00646508
4150.79346680,0.00641854
4152.72227417,0.00647466
4154.65108154,0.00630170
4156.57988892,0.00637911
4158.50869629,0.00641321
4160.43750366,0.00633366
4162.36631103,0.00637946
4164.29511841,0.00631546
4166.22392578,0.00640189
4168.15273315,0.00635458
4170.08154053,0.00628450
4172.01034790,0.00637052
4173.93915527,0.00632413
4175.86796265,0.00629596
4177.79677002,0.00627755
4179.72557739,0.00616940
4181.65438477,0.00612207
4183.58319214,0.00619172
4185.51199951,0.00615674
4187.44080688,0.00618367
4189.36961426,0.00621480
4191.29842163,0.00611704
4193.22722900,0.00611795
4195.15603638,0.00614747
4197.08484375,0.00617942
4199.01365112,0.00610661
4200.94245850,0.00600867
4202.87126587,0.00601680
4204.80007324,0.00604905
4206.72888062,0.00603245
4208.65768799,0.00596126
4210.58649536,0.00598695
4212.51530273,0.00601547
4214.44411011,0.00598634
4216.37291748,0.00597623
4218.30172485,0.00592847
4220.23053223,0.00586537
4222.15933960,0.00593866
4224.08814697,0.00592798
4226.01695435,0.00582973
4227.94576172,0.00592872
4229.87456909,0.00592899
4231.80337646,0.00583126
4233.73218384,0.00584840
4235.66099121,0.00587057
4237.58979858,0.00581131
4239.51860596,0.00579485
4241.44741333,0.00577553
4243.37622070,0.00570012
4245.30502808,0.00576368
4247.23383545,0.00577205
4249.16264282,0.00571603
4251.09145020,0.00568241
4253.02025757,0.00568369
4254.94906494,0.00566893
4256.87787231,0.00565648
4258.80667969,0.00569428
4260.73548706,0.00558976
4262.66429443,0.00562273
4264.59310181,0.00564997
4266.52190918,0.00559950
4268.45071655,0.00554946
4270.37952393,0.00552354
4272.30833130,0.00566991
4274.23713867,0.00561587
4276.16594604,0.00561357
4278.09475342,0.00558952
4280.02356079,0.00551583
4281.95236816,0.00551525
4283.88117554,0.00542971
4285.80998291,0.00547255
4287.73879028,0.00543231
4289.66759766,0.00544965
4291.59640503,0.00538586
4293.52521240,0.00543839
4295.45401978,0.00556792
4297.38282715,0.00534572
4299.31163452,0.00538281
4301.24044189,0.00538229
4303.16924927,0.00532899
4305.09805664,0.00532830
4307.02686401,0.00526042
4308.95567139,0.00529515
4310.88447876,0.00524849
4312.81328613,0.00532854
4314.74209351,0.00533071
4316.67090088,0.00526511
4318.59970825,0.00523954
4320.52851562,0.00518396
4322.45732300,0.00524738
4324.38613037,0.00526526
4326.31493774,0.00518402
4328.24374512,0.00513371
4330.17255249,0.00519676
4332.10135986,0.00514612
4334.03016724,0.00512994
4335.95897461,0.00513041
4337.88778198,0.00507401
4339.81658936,0.00515244
4341.74539673,0.00512510
4343.67420410,0.00507938
4345.60301147,0.00503499
4347.53181885,0.00506660
4349.46062622,0.00509003
4351.38943359,0.00506063
4353.31824097,0.00513239
4355.24704834,0.00503548
4357.17585571,0.00494779
4359.10466309,0.00496549
4361.03347046,0.00495107
4362.96227783,0.00488920
4364.89108520,0.00490099
4366.81989258,0.00489972
4368.74869995,0.00484539
4370.67750732,0.00489964
4372.60631470,0.00487375
4374.53512207,0.00488771
4376.46392944,0.00484394
4378.39273682,0.00481722
4380.32154419,0.00487140
4382.25035156,0.00483597
4384.17915894,0.00483408
4386.10796631,0.00476408
4388.03677368,0.00482459
4389.96558105,0.00482056
4391.89438843,0.00478141
4393.82319580,0.00484950
4395.75200317,0.00474868
4397.68081055,0.00468996
4399.60961792,0.00467030
4401.53842529,0.00471116
4403.46723267,0.00468099
4405.39604004,0.00467196
4407.32484741,0.00473301
4409.25365478,0.00464823
4411.18246216,0.00469321
4413.11126953,0.00468849
4415.04007690,0.00467149
4416.96888428,0.00475867
4418.89769165,0.00466441
4420.82649902,0.00453341
4422.75530640,0.00456125
4424.68411377,0.00460109
4426.61292114,0.00455766
4428.54172852,0.00449752
4430.47053589,0.00445510
4432.39934326,0.00450631
4434.32815063,0.00450200
4436.25695801,0.00449168
4438.18576538,0.00453391
4440.11457275,0.00451406
4442.04338013,0.00451561
4443.97218750,0.00449262
4445.90099487,0.00449016
4447.82980225,0.00446237
4449.75860962,0.00440088
4451.68741699,0.00436724
4453.61622437,0.00441013
4455.54503174,0.00447680
4457.47383911,0.00443423
4459.40264648,0.00438194
4461.33145386,0.00432597
4463.26026123,0.00439367
4465.18906860,0.00438087
4467.11787598,0.00430817
4469.04668335,0.00434497
4470.97549072,0.00425525
4472.90429810,0.00430350
4474.83310547,0.00432715
4476.76191284,0.00424068
4478.69072021,0.00424618
4480.61952759,0.00422560
4482.54833496,0.00424411
4484.47714233,0.00419875
4486.40594971,0.00419764
4488.33475708,0.00427982
4490.26356445,0.00419525
4492.19237183,0.00412783
4494.12117920,0.00420141
4496.04998657,0.00414726
4497.97879395,0.00406865
4499.90760132,0.00409244
4501.83640869,0.00407280
4503.76521606,0.00408501
4505.69402344,0.00412656
4507.62283081,0.00413064
4509.55163818,0.00405473
4511.48044556,0.00408884
4513.40925293,0.00410260
4515.33806030,0.00399110
4517.26686768,0.00404767
4519.19567505,0.00400831
4521.12448242,0.00397790
4523.05328979,0.00402760
4524.98209717,0.00401115
4526.91090454,0.00396762
4528.83971191,0.00390211
4530.76851929,0.00398229
4532.69732666,0.00395802
4534.62613403,0.00391132
4536.55494141,0.00393816
4538.48374878,0.00395801
4540.41255615,0.00395188
4542.34136353,0.00386432
4544.27017090,0.00392005
4546.19897827,0.00390592
4548.12778564,0.00392185
4550.05659302,0.00389717
4551.98540039,0.00375188
4553.91420776,0.00385900
4555.84301514,0.00386431
4557.77182251,0.00380099
4559.70062988,0.00382287
4561.62943726,0.00379404
4563.55824463,0.00378176
4565.48705200,0.00375691
4567.41585937,0.00377878
4569.34466675,0.00383831
4571.27347412,0.00379245
4573.20228149,0.00373231
4575.13108887,0.00377839
4577.05989624,0.00375545
4578.98870361,0.00377113
4580.91751099,0.00373830
4582.84631836,0.00362116
4584.77512573,0.00370253
4586.70393311,0.00370573
4588.63274048,0.00366005
4590.56154785,0.00364571
4592.49035522,0.00363819
4594.41916260,0.00365474
4596.34796997,0.00355558
4598.27677734,0.00354277
4600.20558472,0.00361696
4602.13439209,0.00364103
4604.06319946,0.00359262
4605.99200684,0.00362650
4607.92081421,0.00363442
4609.84962158,0.00349306
4611.77842895,0.00352287
4613.70723633,0.00355711
4615.63604370,0.00353874
4617.56485107,0.00352884
4619.49365845,0.00349127
4621.42246582,0.00345824
4623.35127319,0.00341070
4625.28008057,0.00348426
4627.20888794,0.00348017
4629.13769531,0.00346849
4631.06650269,0.00353031
4632.99531006,0.00354331
4634.92411743,0.00350211
4636.85292480,0.00338436
4638.78173218,0.00344600
4640.71053955,0.00341276
4642.63934692,0.00340235
4644.56815430,0.00350976
4646.49696167,0.00335451
4648.42576904,0.00338507
4650.35457642,0.00341452
4652.28338379,0.00331639
4654.21219116,0.00332682
4656.14099853,0.00335436
4658.06980591,0.00338026
4659.99861328,0.00326397
4661.92742065,0.00336737
4663.85622803,0.00339356
4665.78503540,0.00323684
4667.71384277,0.00332908
4669.64265015,0.00328194
4671.57145752,0.00326486
4673.50026489,0.00330545
4675.42907227,0.00326063
4677.35787964,0.00329751
4679.28668701,0.00328293
4681.21549438,0.00323737
4683.14430176,0.00324629
4685.07310913,0.00323255
4687.00191650,0.00313783
4688.93072388,0.00321562
4690.85953125,0.00324002
4692.78833862,0.00315447
4694.71714600,0.00321375
4696.64595337,0.00314922
4698.57476074,0.00315360
4700.50356812,0.00322488
4702.43237549,0.00320313
4704.36118286,0.00317609
4706.28999023,0.00316310
4708.21879761,0.00317444
4710.14760498,0.00314068
4712.07641235,0.00312692
4714.00521973,0.00305102
4715.93402710,0.00306790
4717.86283447,0.00309889
4719.79164185,0.00302204
4721.72044922,0.00305974
4723.64925659,0.00306784
4725.57806396,0.00304446
4727.50687134,0.00300878
4729.43567871,0.00301510
4731.36448608,0.00299310
4733.29329346,0.00297015
4735.22210083,0.00300948
4737.15090820,0.00298169
4739.07971558,0.00303600
4741.00852295,0.00299130
4742.93733032,0.00297152
4744.86613770,0.00299832
4746.79494507,0.00294706
4748.72375244,0.00299504
4750.65255981,0.00296457
4752.58136719,0.00295615
4754.51017456,0.00289965
4756.43898193,0.00288509
4758.36778931,0.00297239
4760.29659668,0.00285507
4762.22540405,0.00284902
4764.15421143,0.00297527
4766.08301880,0.00290499
4768.01182617,0.00283931
4769.94063354,0.00293025
4771.86944092,0.00287952
4773.79824829,0.00284648
4775.72705566,0.00289408
4777.65586304,0.00280900
4779.58467041,0.00278165
4781.51347778,0.00280147
4783.44228516,0.00285342
4785.37109253,0.00280206
4787.29989990,0.00278313
4789.22870728,0.00279467
4791.15751465,0.00270787
4793.08632202,0.00282449
4795.01512939,0.00278213
4796.94393677,0.00272040
4798.87274414,0.00277594
4800.80155151,0.00270382
4802.73035889,0.00274863
4804.65916626,0.00274309
4806.58797363,0.00272779
4808.51678101,0.00274679
4810.44558838,0.00273835
4812.37439575,0.00274032
4814.30320312,0.00269981
4816.23201050,0.00269263
4818.16081787,0.00265595
4820.08962524,0.00266285
4822.01843262,0.00267284
4823.94723999,0.00270633
4825.87604736,0.00272326
4827.80485474,0.00261935
4829.73366211,0.00268392
4831.66246948,0.00268151
4833.59127686,0.00257768
4835.52008423,0.00264086
4837.44889160,0.00263288
4839.37769897,0.00260642
4841.30650635,0.00262134
4843.23531372,0.00261140
4845.16412109,0.00259966
4847.09292847,0.00254815
4849.02173584,0.00255458
4850.95054321,0.00259823
4852.87935059,0.00263870
4854.80815796,0.00257667
4856.73696533,0.00249238
4858.66577270,0.00255852
4860.59458008,0.00251036
4862.52338745,0.00252941
4864.45219482,0.00258098
4866.38100220,0.00245639
4868.30980957,0.00251028
4870.23861694,0.00250553
4872.16742432,0.00244067
4874.09623169,0.00250890
4876.02503906,0.00250215
4877.95384644,0.00250067
4879.88265381,0.00244494
4881.81146118,0.00241491
4883.74026855,0.00246537
4885.66907593,0.00244264
4887.59788330,0.00248189
4889.52669067,0.00246956
4891.45549805,0.00239668
4893.38430542,0.00240423
4895.31311279,0.00233193
4897.24192017,0.00234812
4899.17072754,0.00240087
4901.09953491,0.00234907
4903.02834228,0.00240378
4904.95714966,0.00239924
4906.88595703,0.00236211
4908.81476440,0.00232732
4910.74357178,0.00231042
4912.67237915,0.00234939
4914.60118652,0.00228623
4916.52999390,0.00234612
4918.45880127,0.00234474
4920.38760864,0.00232615
4922.31641602,0.00240195
4924.24522339,0.00228726
4926.17403076,0.00228027
4928.10283813,0.00231816
4930.03164551,0.00233169
4931.96045288,0.00231272
4933.88926025,0.00224178
4935.81806763,0.00232583
4937.74687500,0.00227658
4939.67568237,0.00219631
4941.60448975,0.00223277
4943.53329712,0.00221406
4945.46210449,0.00220761
4947.39091187,0.00218777
4949.31971924,0.00216768
4951.24852661,0.00223919
4953.17733398,0.00226012
4955.10614136,0.00218399
4957.03494873,0.00222185
4958.96375610,0.00220329
4960.89256348,0.00217081
4962.82137085,0.00222124
4964.75017822,0.00214318
4966.67898560,0.00216971
4968.60779297,0.00218637
4970.53660034,0.00213337
4972.46540771,0.00216521
4974.39421509,0.00211035
4976.32302246,0.00211195
4978.25182983,0.00213902
4980.18063721,0.00213444
4982.10944458,0.00213140
4984.03825195,0.00208454
4985.96705933,0.00214010
4987.89586670,0.00213043
4989.82467407,0.00205378
4991.75348145,0.00210650
4993.68228882,0.00213072
4995.61109619,0.00208961
4997.53990356,0.00208573
4999.46871094,0.00210590
5001.39751831,0.00207500
5003.32632568,0.00204658
5005.25513306,0.00203314
5007.18394043,0.00203479
5009.11274780,0.00203361
5011.04155518,0.00197909
5012.97036255,0.00206651
5014.89916992,0.00206091
5016.82797729,0.00197861
5018.75678467,0.00202664
5020.68559204,0.00193884
5022.61439941,0.00197621
5024.54320679,0.00201908
5026.47201416,0.00197196
5028.40082153,0.00200133
5030.32962891,0.00198356
5032.25843628,0.00210211
5034.18724365,0.00204765
5036.11605103,0.00189584
5038.04485840,0.00191082
5039.97366577,0.00195195
5041.90247314,0.00198540
5043.83128052,0.00187588
5045.76008789,0.00190297
5047.68889526,0.00192152
5049.61770264,0.00187955
5051.54651001,0.00194353
5053.47531738,0.00192875
5055.40412476,0.00192294
5057.33293213,0.00184790
5059.26173950,0.00189151
5061.19054687,0.00195032
5063.11935425,0.00192544
5065.04816162,0.00198759
5066.97696899,0.00189226
5068.90577637,0.00188710
5070.83458374,0.00192936
5072.76339111,0.00184454
5074.69219849,0.00180886
5076.62100586,0.00185142
5078.54981323,0.00194379
5080.47862061,0.00188622
5082.40742798,0.00186406
5084.33623535,0.00192924
5086.26504272,0.00185879
5088.19385010,0.00181623
5090.12265747,0.00182682
5092.05146484,0.00181174
5093.98027222,0.00183427
5095.90907959,0.00179179
5097.83788696,0.00173095
5099.76669434,0.00179728
5101.69550171,0.00175033
5103.62430908,0.00170888
5105.55311645,0.00182244
5107.48192383,0.00181932
5109.41073120,0.00174587
5111.33953857,0.00169520
5113.26834595,0.00169784
5115.19715332,0.00170577
5117.12596069,0.00172799
5119.05476807,0.00178258
5120.98357544,0.00172532
5122.91238281,0.00173293
5124.84119019,0.00174937
5126.76999756,0.00168234
5128.69880493,0.00169075
5130.62761230,0.00165608
5132.55641968,0.00169229
5134.48522705,0.00173253
5136.41403442,0.00167316
5138.34284180,0.00178536
5140.27164917,0.00175992
5142.20045654,0.00163701
5144.12926392,0.00170893
5146.05807129,0.00166333
5147.98687866,0.00165884
5149.91568603,0.00169554
5151.84449341,0.00165064
5153.77330078,0.00170325
5155.70210815,0.00163732
5157.63091553,0.00161822
5159.55972290,0.00172479
5161.48853027,0.00164697
5163.41733765,0.00156918
5165.34614502,0.00165033
5167.27495239,0.00167784
5169.20375977,0.00156730
5171.13256714,0.00163279
5173.06137451,0.00172666
5174.99018188,0.00163265
5176.91898926,0.00169714
5178.84779663,0.00166415
5180.77660400,0.00155926
5182.70541138,0.00163661
5184.63421875,0.00152501
5186.56302612,0.00153493
5188.49183350,0.00168678
5190.42064087,0.00157132
5192.34944824,0.00154163
5194.27825562,0.00165341
5196.20706299,0.00163504
5198.13587036,0.00156171
5200.06467773,0.00155440
5201.99348511,0.00154689
5203.92229248,0.00157968
5205.85109985,0.00154780
5207.77990723,0.00143780
5209.70871460,0.00153363
5211.63752197,0.00154874
5213.56632935,0.00155106
5215.49513672,0.00159912
5217.42394409,0.00147646
5219.35275146,0.00149709
5221.28155884,0.00151980
5223.21036621,0.00157189
5225.13917358,0.00155402
5227.06798096,0.00144152
5228.99678833,0.00155825
5230.92559570,0.00151182
5232.85440308,0.00146317
5234.78321045,0.00150521
5236.71201782,0.00149554
5238.64082520,0.00148371
5240.56963257,0.00144300
5242.49843994,0.00150157
5244.42724731,0.00136196
5246.35605469,0.00136109
5248.28486206,0.00144720
5250.21366943,0.00136437
5252.14247681,0.00150264
5254.07128418,0.00144634
5256.00009155,0.00136596
5257.92889893,0.00137015
5259.85770630,0.00136803
5261.78651367,0.00145987
5263.71532104,0.00136801
5265.64412842,0.00137911
5267.57293579,0.00129838
5269.50174316,0.00128881
5271.43055054,0.00148435
5273.35935791,0.00139680
5275.28816528,0.00138352
5277.21697266,0.00136814
5279.14578003,0.00131949
5281.07458740,0.00136495
5283.00339478,0.00133597
5284.93220215,0.00136175
5286.86100952,0.00135527
5288.78981689,0.00133947
5290.71862427,0.00138347
5292.64743164,0.00133566
5294.57623901,0.00124599
5296.50504639,0.00134140
5298.43385376,0.00140796
5300.36266113,0.00136627
5302.29146851,0.00133414
5304.22027588,0.00125900
5306.14908325,0.00136824
5308.07789062,0.00134007
5310.00669800,0.00125900
5311.93550537,0.00133096
5313.86431274,0.00128287
5315.79312012,0.00134354
5317.72192749,0.00133180
5319.65073486,0.00131984
5321.57954224,0.00130350
5323.50834961,0.00126615
5325.43715698,0.00135505
5327.36596436,0.00125670
5329.29477173,0.00130595
5331.22357910,0.00132291
5333.15238647,0.00124818
5335.08119385,0.00132600
5337.01000122,0.00123884
5338.93880859,0.00121067
5340.86761597,0.00123036
5342.79642334,0.00122208
5344.72523071,0.00123068
5346.65403809,0.00121869
5348.58284546,0.00122979
5350.51165283,0.00128211
5352.44046020,0.00128528
5354.36926758,0.00116240
5356.29807495,0.00124032
5358.22688232,0.00125392
5360.15568970,0.00116933
5362.08449707,0.00122980
5364.01330444,0.00116814
5365.94211182,0.00119224
5367.87091919,0.00124796
5369.79972656,0.00119919
5371.72853394,0.00120487
5373.65734131,0.00122603
5375.58614868,0.00117056
5377.51495605,0.00112671
5379.44376343,0.00119205
5381.37257080,0.00118862
5383.30137817,0.00118708
5385.23018555,0.00117865
5387.15899292,0.00111649
5389.08780029,0.00112062
5391.01660767,0.00120113
5392.94541504,0.00123367
5394.87422241,0.00110416
5396.80302978,0.00111456
5398.73183716,0.00117809
5400.66064453,0.00113723
5402.58945190,0.00115274
5404.51825928,0.00116396
5406.44706665,0.00117709
5408.37587402,0.00111004
5410.30468140,0.00106256
5412.23348877,0.00107849
5414.16229614,0.00102604
5416.09110352,0.00107621
5418.01991089,0.00115196
5419.94871826,0.00113821
5421.87752563,0.00116955
5423.80633301,0.00114733
5425.73514038,0.00110711
5427.66394775,0.00115858
5429.59275513,0.00109876
5431.52156250,0.00107982
5433.45036987,0.00109797
5435.37917725,0.00101712
5437.30798462,0.00111728
5439.23679199,0.00113637
5441.16559936,0.00104490
5443.09440674,0.00109756
5445.02321411,0.00101097
5446.95202148,0.00099262
5448.88082886,0.00112134
5450.80963623,0.00103287
5452.73844360,0.00098715
5454.66725098,0.00101645
5456.59605835,0.00096801
5458.52486572,0.00104246
5460.45367310,0.00107879
5462.38248047,0.00105087
5464.31128784,0.00106636
5466.24009521,0.00109387
5468.16890259,0.00108702
5470.09770996,0.00100997
5472.02651733,0.00107756
5473.95532471,0.00107065
5475.88413208,0.00095135
5477.81293945,0.00100230
5479.74174683,0.00102646
5481.67055420,0.00100078
5483.59936157,0.00101784
5485.52816895,0.00106311
5487.45697632,0.00098320
5489.38578369,0.00089689
5491.31459106,0.00103631
5493.24339844,0.00104760
5495.17220581,0.00096959
5497.10101318,0.00102926
5499.02982056,0.00098256
5500.95862793,0.00094149
5502.88743530,0.00102693
5504.81624268,0.00101994
5506.74505005,0.00100223
5508.67385742,0.00096272
5510.60266479,0.00091762
5512.53147217,0.00098048
5514.46027954,0.00095930
5516.38908691,0.00095275
5518.31789429,0.00097091
5520.24670166,0.00095223
5522.17550903,0.00093456
5524.10431641,0.00092734
5526.03312378,0.00100426
5527.96193115,0.00087783
5529.89073853,0.00081023
5531.81954590,0.00100073
5533.74835327,0.00096576
5535.67716064,0.00089996
5537.60596802,0.00097661
5539.53477539,0.00094457
5541.46358276,0.00092369
5543.39239014,0.00095772
5545.32119751,0.00088730
5547.25000488,0.00088178
5549.17881226,0.00090722
5551.10761963,0.00089241
5553.03642700,0.00095664
5554.96523437,0.00092564
5556.89404175,0.00087093
5558.82284912,0.00091671
5560.75165649,0.00097449
5562.68046387,0.00090903
5564.60927124,0.00084920
5566.53807861,0.00092467
5568.46688599,0.00087418
5570.39569336,0.00085479
5572.32450073,0.00087404
5574.25330811,0.00085235
5576.18211548,0.00088200
5578.11092285,0.00083556
5580.03973022,0.00083415
5581.96853760,0.00087125
5583.89734497,0.00091239
5585.82615234,0.00091135
5587.75495972,0.00087510
5589.68376709,0.00087848
5591.61257446,0.00086123
5593.54138184,0.00087886
5595.47018921,0.00083821
5597.39899658,0.00084885
5599.32780395,0.00085021
5601.25661133,0.00082693
5603.18541870,0.00087590
5605.11422607,0.00077715
5607.04303345,0.00083900
5608.97184082,0.00087439
5610.90064819,0.00075957
5612.82945557,0.00082551
5614.75826294,0.00077259
5616.68707031,0.00073929
5618.61587769,0.00080887
5620.54468506,0.00084210
5622.47349243,0.00086239
5624.40229980,0.00080375
5626.33110718,0.00081646
5628.25991455,0.00085271
5630.18872192,0.00082385
5632.11752930,0.00077330
5634.04633667,0.00079288
5635.97514404,0.00083396
5637.90395142,0.00080775
5639.83275879,0.00079699
5641.76156616,0.00074209
5643.69037353,0.00073883
5645.61918091,0.00076533
5647.54798828,0.00077783
5649.47679565,0.00077298
5651.40560303,0.00072802
5653.33441040,0.00080016
5655.26321777,0.00075807
5657.19202515,0.00073840
5659.12083252,0.00082227
5661.04963989,0.00075336
5662.97844727,0.00076476
5664.90725464,0.00078712
5666.83606201,0.00078427
5668.76486938,0.00076758
5670.69367676,0.00073052
5672.62248413,0.00076079
5674.55129150,0.00073349
5676.48009888,0.00077917
5678.40890625,0.00075147
5680.33771362,0.00066906
5682.26652100,0.00071123
5684.19532837,0.00069474
5686.12413574,0.00077667
5688.05294311,0.00078336
5689.98175049,0.00070392
5691.91055786,0.00080765
5693.83936523,0.00076443
5695.76817261,0.00071545
5697.69697998,0.00076148
5699.62578735,0.00070543
5701.55459473,0.00076316
5703.48340210,0.00078722
5705.41220947,0.00073713
5707.34101685,0.00071847
5709.26982422,0.00067247
5711.19863159,0.00070885
5713.12743896,0.00071584
5715.05624634,0.00071369
5716.98505371,0.00068950
5718.91386108,0.00065205
5720.84266846,0.00070056
5722.77147583,0.00069144
5724.70028320,0.00068558
5726.62909058,0.00069107
5728.55789795,0.00074119
5730.48670532,0.00070356
5732.41551270,0.00063963
5734.34432007,0.00073067
5736.27312744,0.00069008
5738.20193481,0.00070040
5740.13074219,0.00071156
5742.05954956,0.00067620
5743.98835693,0.00070607
5745.91716431,0.00062965
5747.84597168,0.00067620
5749.77477905,0.00070295
5751.70358643,0.00066177
5753.63239380,0.00069869
5755.56120117,0.00069367
5757.49000854,0.00065007
5759.41881592,0.00062990
5761.34762329,0.00071029
5763.27643066,0.00070100
5765.20523804,0.00067100
5767.13404541,0.00068827
5769.06285278,0.00061098
5770.99166016,0.00059087
5772.92046753,0.00065729
5774.84927490,0.00065082
5776.77808228,0.00057623
5778.70688965,0.00062942
5780.63569702,0.00070222
5782.56450439,0.00068069
5784.49331177,0.00063513
5786.42211914,0.00062996
5788.35092651,0.00064824
5790.27973389,0.00061749
5792.20854126,0.00064151
5794.13734863,0.00061289
5796.06615601,0.00059025
5797.99496338,0.00059841
5799.92377075,0.00060763
5801.85257812,0.00068061
5803.78138550,0.00061738
5805.71019287,0.00060049
5807.63900024,0.00064317
5809.56780762,0.00063873
5811.49661499,0.00061707
5813.42542236,0.00058374
5815.35422974,0.00061297
5817.28303711,0.00060751
5819.21184448,0.00066355
5821.14065186,0.00062921
5823.06945923,0.00054645
5824.99826660,0.00060314
5826.92707397,0.00059550
5828.85588135,0.00061395
5830.78468872,0.00064290
5832.71349609,0.00060620
5834.64230347,0.00059801
5836.57111084,0.00063303
5838.49991821,0.00060398
5840.42872559,0.00059539
5842.35753296,0.00064116
5844.28634033,0.00058887
5846.21514770,0.00056977
5848.14395508,0.00053885
5850.07276245,0.00053974
5852.00156982,0.00056033
5853.93037720,0.00054947
5855.85918457,0.00061210
5857.78799194,0.00056154
5859.71679932,0.00053216
5861.64560669,0.00059261
5863.57441406,0.00060878
5865.50322144,0.00057822
5867.43202881,0.00052547
5869.36083618,0.00050775
5871.28964355,0.00053879
5873.21845093,0.00061720
5875.14725830,0.00057357
5877.07606567,0.00054178
5879.00487305,0.00059496
5880.93368042,0.00058442
5882.86248779,0.00054160
5884.79129517,0.00051630
5886.72010254,0.00055275
5888.64890991,0.00052482
5890.57771728,0.00052647
5892.50652466,0.00051485
5894.43533203,0.00051087
5896.36413940,0.00058581
5898.29294678,0.00049866
5900.22175415,0.00049537
5902.15056152,0.00052769
5904.07936890,0.00052376
5906.00817627,0.00055758
5907.93698364,0.00047524
5909.86579102,0.00045307
5911.79459839,0.00047134
5913.72340576,0.00051472
5915.65221313,0.00050671
5917.58102051,0.00045905
5919.50982788,0.00053034
5921.43863525,0.00052946
5923.36744263,0.00047334
5925.29625000,0.00046514
5927.22505737,0.00052091
5929.15386475,0.00052175
5931.08267212,0.00049487
5933.01147949,0.00052667
5934.94028686,0.00046500
5936.86909424,0.00045070
5938.79790161,0.00049042
5940.72670898,0.00052722
5942.65551636,0.00054462
5944.58432373,0.00047533
5946.51313110,0.00048388
5948.44193848,0.00049354
5950.37074585,0.00045848
5952.29955322,0.00050087
5954.22836060,0.00051547
5956.15716797,0.00046353
5958.08597534,0.00047817
5960.01478271,0.00046518
5961.94359009,0.00041212
5963.87239746,0.00046820
5965.80120483,0.00049446
5967.73001221,0.00050805
5969.65881958,0.00047108
5971.58762695,0.00042176
5973.51643433,0.00051109
5975.44524170,0.00048124
5977.37404907,0.00047297
5979.30285645,0.00052281
5981.23166382,0.00042255
5983.16047119,0.00042081
5985.08927856,0.00049505
5987.01808594,0.00047586
5988.94689331,0.00044888
5990.87570068,0.00046998
5992.80450806,0.00046322
5994.73331543,0.00043151
5996.66212280,0.00039654
5998.59093018,0.00035238
6000.51973755,0.00041273
