399.26312622,0.00270770
401.19193359,0.00261791
403.12074097,0.00318281
405.04954834,0.00372357
406.97835571,0.00384614
408.90716309,0.00384786
410.83597046,0.00367804
412.76477783,0.00435561
414.69358521,0.00449816
416.62239258,0.00441073
418.55119995,0.00406423
420.48000732,0.00366620
422.40881470,0.00491097
424.33762207,0.00507457
426.26642944,0.00438215
428.19523682,0.00466979
430.12404419,0.00427081
432.05285156,0.00419388
433.98165894,0.00453766
435.91046631,0.00462482
437.83927368,0.00492746
439.76808105,0.00444372
441.69688843,0.00430930
443.62569580,0.00426059
445.55450317,0.00399487
447.48331055,0.00425943
449.41211792,0.00364887
451.34092529,0.00359958
453.26973267,0.00344511
455.19854004,0.00282492
457.12734741,0.00281832
459.05615479,0.00274276
460.98496216,0.00331808
462.91376953,0.00249448
464.84257690,0.00235202
466.77138428,0.00307972
468.70019165,0.00197107
470.62899902,0.00220155
472.55780640,0.00214758
474.48661377,0.00163674
476.41542114,0.00187632
478.34422852,0.00151338
480.27303589,0.00133928
482.20184326,0.00114746
484.13065063,0.00111485
486.05945801,0.00086814
487.98826538,0.00082618
489.91707275,0.00116517
491.84588013,0.00073620
493.77468750,-0.00000510
495.70349487,0.00059636
497.63230225,0.00087076
499.56110962,0.00053012
501.48991699,0.00085609
503.41872437,0.00074956
505.34753174,0.00098662
507.27633911,0.00105823
509.20514648,0.00068153
511.13395386,0.00051445
513.06276123,0.00103459
514.99156860,0.00112793
516.92037598,0.00061524
518.84918335,0.00057771
520.77799072,0.00080990
522.70679810,0.00072626
524.63560547,0.00080103
526.56441284,0.00106188
528.49322021,0.00090409
530.42202759,0.00089132
532.35083496,0.00055275
534.27964233,0.00034493
536.20844971,0.00118308
538.13725708,0.00105185
540.06606445,0.00075276
541.99487183,0.00083000
543.92367920,0.00051531
545.85248657,0.00086917
547.78129395,0.00078885
549.71010132,0.00059260
551.63890869,0.00081636
553.56771606,0.00072816
555.49652344,0.00079158
557.42533081,0.00076457
559.35413818,0.00069877
561.28294556,0.00035443
563.21175293,0.00044439
565.14056030,0.00092663
567.06936768,0.00074270
568.99817505,0.00082459
570.92698242,0.00094815
572.85578979,0.00086937
574.78459717,0.00054137
576.71340454,0.00031482
578.64221191,0.00060955
580.57101929,0.00062837
582.49982666,0.00076424
584.42863403,0.00088380
586.35744141,0.00068780
588.28624878,0.00054609
590.21505615,0.00072873
592.14386353,0.00079485
594.07267090,0.00030116
596.00147827,0.00048034
597.93028564,0.00081828
599.85909302,0.00072287
601.78790039,0.00090930
603.71670776,0.00073570
605.64551514,0.00046313
607.57432251,0.00053103
609.50312988,0.00051961
611.43193726,0.00055809
613.36074463,0.00046399
615.28955200,0.00056302
617.21835938,0.00018741
619.14716675,0.00026808
621.07597412,0.00043762
623.00478149,0.00011348
624.93358887,0.00035129
626.86239624,0.00019747
628.79120361,-0.00006872
630.72001099,0.00069563
632.64881836,0.00203951
634.57762573,0.00268833
636.50643311,0.00347420
638.43524048,0.00364373
640.36404785,0.00315283
642.29285522,0.00379342
644.22166260,0.00434922
646.15046997,0.00505666
648.07927734,0.00536629
650.00808472,0.00538933
651.93689209,0.00560563
653.86569946,0.00554965
655.79450684,0.00629061
657.72331421,0.00650440
659.65212158,0.00674695
661.58092896,0.00687251
663.50973633,0.00700971
665.43854370,0.00758827
667.36735107,0.00666033
669.29615845,0.00735928
671.22496582,0.00836850
673.15377319,0.00826338
675.08258057,0.00915208
677.01138794,0.00911378
678.94019531,0.00946299
680.86900269,0.00960790
682.79781006,0.00910609
684.72661743,0.00926179
686.65542480,0.00910849
688.58423218,0.00952549
690.51303955,0.00975820
692.44184692,0.01002392
694.37065430,0.01086985
696.29946167,0.01177108
698.22826904,0.01349753
700.15707642,0.01486072
702.08588379,0.01457626
704.01469116,0.01334420
705.94349854,0.01197124
707.87230591,0.01006594
709.80111328,0.00815848
711.72992065,0.00606255
713.65872803,0.00334861
715.58753540,0.00183065
717.51634277,0.00135969
719.44515015,0.00097152
721.37395752,0.00079143
723.30276489,0.00061440
725.23157227,0.00036310
727.16037964,0.00042880
729.08918701,0.00042292
731.01799438,0.00033574
732.94680176,0.00037786
734.87560913,0.00020766
736.80441650,0.00033590
738.73322388,0.00008154
740.66203125,0.00002456
742.59083862,0.00042489
744.51964600,0.00032816
746.44845337,0.00059083
748.37726074,0.00053512
750.30606812,0.00031946
752.23487549,0.00056125
754.16368286,0.00033519
756.09249023,0.00054549
758.02129761,0.00078583
759.95010498,0.00064339
761.87891235,0.00065959
763.80771973,0.00047047
765.73652710,0.00063592
767.66533447,0.00049235
769.59414185,0.00041781
771.52294922,0.00068229
773.45175659,0.00080157
775.38056396,0.00043239
777.30937134,0.00073081
779.23817871,0.00062640
781.16698608,0.00064319
783.09579346,0.00083018
785.02460083,0.00071152
786.95340820,0.00115001
788.88221558,0.00054024
790.81102295,0.00067731
792.73983032,0.00128643
794.66863770,0.00106591
796.59744507,0.00128710
798.52625244,0.00164274
800.45505981,0.00214680
802.38386719,0.00184184
804.31267456,0.00136278
806.24148193,0.00111805
808.17028931,0.00093728
810.09909668,0.00107177
812.02790405,0.00098392
813.95671143,0.00089293
815.88551880,0.00063228
817.81432617,0.00071769
819.74313354,0.00069296
821.67194092,0.00079438
823.60074829,0.00099705
825.52955566,0.00092367
827.45836304,0.00142242
829.38717041,0.00171330
831.31597778,0.00231855
833.24478516,0.00276457
835.17359253,0.00283899
837.10239990,0.00312421
839.03120728,0.00303201
840.96001465,0.00293875
842.88882202,0.00279678
844.81762939,0.00262680
846.74643677,0.00228333
848.67524414,0.00216774
850.60405151,0.00189966
852.53285889,0.00181015
854.46166626,0.00190030
856.39047363,0.00129376
858.31928101,0.00135636
860.24808838,0.00114117
862.17689575,0.00084547
864.10570313,0.00078444
866.03451050,0.00055704
867.96331787,0.00081543
869.89212524,0.00060165
871.82093262,0.00069252
873.74973999,0.00072626
875.67854736,0.00057389
877.60735474,0.00072246
879.53616211,0.00066421
881.46496948,0.00082911
883.39377686,0.00066196
885.32258423,0.00038288
887.25139160,0.00045200
889.18019897,0.00063777
891.10900635,0.00042296
893.03781372,0.00044726
894.96662109,0.00086111
896.89542847,0.00067108
898.82423584,0.00081968
900.75304321,0.00095663
902.68185059,0.00076623
904.61065796,0.00071099
906.53946533,0.00100799
908.46827271,0.00121305
910.39708008,0.00104720
912.32588745,0.00125971
914.25469482,0.00126948
916.18350220,0.00149611
918.11230957,0.00172999
920.04111694,0.00174709
921.96992432,0.00222108
923.89873169,0.00249715
925.82753906,0.00267689
927.75634644,0.00267270
929.68515381,0.00291098
931.61396118,0.00346820
933.54276855,0.00359045
935.47157593,0.00370421
937.40038330,0.00404482
939.32919067,0.00450080
941.25799805,0.00452840
943.18680542,0.00433715
945.11561279,0.00462502
947.04442017,0.00458175
948.97322754,0.00426928
950.90203491,0.00449298
952.83084229,0.00431330
954.75964966,0.00408141
956.68845703,0.00449355
958.61726440,0.00432573
960.54607178,0.00418666
962.47487915,0.00453054
964.40368652,0.00445821
966.33249390,0.00446559
968.26130127,0.00464371
970.19010864,0.00474784
972.11891602,0.00514266
974.04772339,0.00556457
975.97653076,0.00608527
977.90533813,0.00660635
979.83414551,0.00706347
981.76295288,0.00794861
983.69176025,0.00839821
985.62056763,0.00939143
987.54937500,0.01101376
989.47818237,0.01180867
991.40698975,0.01310266
993.33579712,0.01424970
995.26460449,0.01534180
997.19341187,0.01682564
999.12221924,0.01808324
1001.05102661,0.01988295
1002.97983398,0.02089000
1004.90864136,0.02212721
1006.83744873,0.02415784
1008.76625610,0.02525641
1010.69506348,0.02662098
1012.62387085,0.02822569
1014.55267822,0.02968650
1016.48148560,0.03126898
1018.41029297,0.03260052
1020.33910034,0.03396177
1022.26790771,0.03560589
1024.19671509,0.03716539
1026.12552246,0.03829123
1028.05432983,0.03947299
1029.98313721,0.04075997
1031.91194458,0.04199250
1033.84075195,0.04291843
1035.76955933,0.04323207
1037.69836670,0.04361463
1039.62717407,0.04403637
1041.55598145,0.04400578
1043.48478882,0.04367206
1045.41359619,0.04314340
1047.34240356,0.04267093
1049.27121094,0.04219160
1051.20001831,0.04118963
1053.12882568,0.04036171
1055.05763306,0.03983953
1056.98644043,0.03870526
1058.91524780,0.03767028
1060.84405518,0.03666908
1062.77286255,0.03555652
1064.70166992,0.03460181
1066.63047729,0.03301216
1068.55928467,0.03161363
1070.48809204,0.03025978
1072.41689941,0.02861655
1074.34570679,0.02748604
1076.27451416,0.02625978
1078.20332153,0.02510222
1080.13212891,0.02396458
1082.06093628,0.02274010
1083.98974365,0.02166736
1085.91855103,0.02066119
1087.84735840,0.01981291
1089.77616577,0.01875179
1091.70497314,0.01785380
1093.63378052,0.01714843
1095.56258789,0.01663734
1097.49139526,0.01602724
1099.42020264,0.01550517
1101.34901001,0.01557726
1103.27781738,0.01498411
1105.20662476,0.01449551
1107.13543213,0.01422108
1109.06423950,0.01384875
1110.99304687,0.01393508
1112.92185425,0.01355766
1114.85066162,0.01330093
1116.77946899,0.01336723
1118.70827637,0.01346340
1120.63708374,0.01343423
1122.56589111,0.01345955
1124.49469849,0.01381044
1126.42350586,0.01399405
1128.35231323,0.01437124
1130.28112061,0.01463598
1132.20992798,0.01502559
1134.13873535,0.01542419
1136.06754272,0.01585839
1137.99635010,0.01701657
1139.92515747,0.01810509
1141.85396484,0.01910895
1143.78277222,0.02025955
1145.71157959,0.02172698
1147.64038696,0.02298792
1149.56919434,0.02408776
1151.49800171,0.02544054
1153.42680908,0.02654782
1155.35561646,0.02789855
1157.28442383,0.02912561
1159.21323120,0.03013790
1161.14203857,0.03138606
1163.07084595,0.03274622
1164.99965332,0.03381144
1166.92846069,0.03481729
1168.85726807,0.03638736
1170.78607544,0.03782789
1172.71488281,0.03911152
1174.64369019,0.04041706
1176.57249756,0.04205077
1178.50130493,0.04372731
1180.43011230,0.04530454
1182.35891968,0.04733508
1184.28772705,0.04925202
1186.21653442,0.05150266
1188.14534180,0.05389722
1190.07414917,0.05624408
1192.00295654,0.05894618
1193.93176392,0.06172967
1195.86057129,0.06464908
1197.78937866,0.06756504
1199.71818604,0.07053357
1201.64699341,0.07347849
1203.57580078,0.07665103
1205.50460815,0.07978362
1207.43341553,0.08265949
1209.36222290,0.08546312
1211.29103027,0.08799274
1213.21983765,0.09044659
1215.14864502,0.09266659
1217.07745239,0.09458385
1219.00625977,0.09613704
1220.93506714,0.09789868
1222.86387451,0.09915060
1224.79268188,0.09970565
1226.72148926,0.10071371
1228.65029663,0.10116541
1230.57910400,0.10165137
1232.50791138,0.10205773
1234.43671875,0.10183720
1236.36552612,0.10177320
1238.29433350,0.10156285
1240.22314087,0.10145602
1242.15194824,0.10103923
1244.08075562,0.10042465
1246.00956299,0.10005381
1247.93837036,0.09955259
1249.86717773,0.09868058
1251.79598511,0.09782235
1253.72479248,0.09710403
1255.65359985,0.09581531
1257.58240723,0.09448861
1259.51121460,0.09289542
1261.44002197,0.09152940
1263.36882935,0.09060250
1265.29763672,0.08899492
1267.22644409,0.08801945
1269.15525146,0.08707836
1271.08405884,0.08535629
1273.01286621,0.08405590
1274.94167358,0.08269390
1276.87048096,0.08102068
1278.79928833,0.07922941
1280.72809570,0.07750821
1282.65690308,0.07619661
1284.58571045,0.07484047
1286.51451782,0.07336597
1288.44332520,0.07204190
1290.37213257,0.07114265
1292.30093994,0.07052308
1294.22974731,0.06980771
1296.15855469,0.06934939
1298.08736206,0.06908702
1300.01616943,0.06932881
1301.94497681,0.06974613
1303.87378418,0.07005022
1305.80259155,0.07099164
1307.73139893,0.07188714
1309.66020630,0.07301500
1311.58901367,0.07410623
1313.51782104,0.07537083
1315.44662842,0.07753573
1317.37543579,0.07890292
1319.30424316,0.08080982
1321.23305054,0.08383024
1323.16185791,0.08637643
1325.09066528,0.08886823
1327.01947266,0.09143083
1328.94828003,0.09387672
1330.87708740,0.09627056
1332.80589478,0.09854619
1334.73470215,0.10026985
1336.66350952,0.10115595
1338.59231689,0.10005936
1340.52112427,0.10110863
1342.44993164,0.10571150
1344.37873901,0.10639560
1346.30754639,0.10607933
1348.23635376,0.10633595
1350.16516113,0.10525258
1352.09396851,0.10532592
1354.02277588,0.10377769
1355.95158325,0.10276905
1357.88039062,0.10253154
1359.80919800,0.10080680
1361.73800537,0.09621777
1363.66681274,0.09445338
1365.59562012,0.09963660
1367.52442749,0.09738101
1369.45323486,0.09608945
1371.38204224,0.09788631
1373.31084961,0.09220792
1375.23965698,0.09299874
1377.16846436,0.09546581
1379.09727173,0.09509555
1381.02607910,0.09509126
1382.95488647,0.09476671
1384.88369385,0.09500648
1386.81250122,0.09020306
1388.74130859,0.09162532
1390.67011597,0.09964655
1392.59892334,0.09676628
1394.52773071,0.09031771
1396.45653809,0.09495563
1398.38534546,0.09473829
1400.31415283,0.09409907
1402.24296021,0.10225425
1404.17176758,0.09639873
1406.10057495,0.09688212
1408.02938232,0.10111398
1409.95818970,0.09719668
1411.88699707,0.09925312
1413.81580444,0.09562986
1415.74461182,0.09745166
1417.67341919,0.08750062
1419.60222656,0.07779603
1421.53103394,0.09054939
1423.45984131,0.08758378
1425.38864868,0.08478099
1427.31745605,0.08614180
1429.24626343,0.07946321
1431.17507080,0.07718690
1433.10387817,0.07832359
1435.03268555,0.07123838
1436.96149292,0.05985774
1438.89030029,0.06857280
1440.81910767,0.07034068
1442.74791504,0.06494233
1444.67672241,0.06840323
1446.60552979,0.06239257
1448.53433716,0.06360933
1450.46314453,0.06552562
1452.39195190,0.06658240
1454.32075928,0.06942516
1456.24956665,0.05641334
1458.17837402,0.05901984
1460.10718140,0.07965875
1462.03598877,0.08477424
1463.96479614,0.08401728
1465.89360352,0.08744185
1467.82241089,0.10015951
1469.75121826,0.10793854
1471.68002563,0.09547886
1473.60883301,0.10052592
1475.53764038,0.11513466
1477.46644775,0.12417309
1479.39525513,0.13670196
1481.32406250,0.13840693
1483.25286987,0.14736860
1485.18167725,0.15228739
1487.11048462,0.14956896
1489.03929199,0.14849404
1490.96809937,0.14956659
1492.89690674,0.17519669
1494.82571411,0.17068166
1496.75452148,0.15303597
1498.68332886,0.17396721
1500.61213623,0.17952108
1502.54094360,0.19308072
1504.46975098,0.18177816
1506.39855835,0.13080780
1508.32736572,0.16121215
1510.25617310,0.19004995
1512.18498047,0.18404442
1514.11378784,0.20000243
1516.04259521,0.17945695
1517.97140259,0.18742514
1519.90020996,0.18077174
1521.82901733,0.15564589
1523.75782471,0.19209978
1525.68663208,0.18845105
1527.61543945,0.18787873
1529.54424683,0.20882064
1531.47305420,0.20008588
1533.40186157,0.18272442
1535.33066895,0.19460535
1537.25947632,0.20858401
1539.18828369,0.14727609
1541.11709106,0.15440536
1543.04589844,0.18622896
1544.97470581,0.17836487
1546.90351318,0.21250688
1548.83232056,0.19763255
1550.76112793,0.20392457
1552.68993530,0.20276432
1554.61874268,0.18368110
1556.54755005,0.19661117
1558.47635742,0.13651782
1560.40516479,0.14852273
1562.33397217,0.21367595
1564.26277954,0.20161241
1566.19158691,0.20788738
1568.12039429,0.20516473
1570.04920166,0.18090722
1571.97800903,0.21027279
1573.90681641,0.21258281
1575.83562378,0.16714504
1577.76443115,0.19013232
1579.69323853,0.21525316
1581.62204590,0.20576581
1583.55085327,0.21132424
1585.47966064,0.20799646
1587.40846802,0.20963249
1589.33727539,0.20759606
1591.26608276,0.20772195
1593.19489014,0.20807612
1595.12369751,0.20546155
1597.05250488,0.20828938
1598.98131226,0.20672527
1600.91011963,0.20807278
1602.83892700,0.20396611
1604.76773437,0.20760709
1606.69654175,0.20467469
1608.62534912,0.20401864
1610.55415649,0.20377138
1612.48296387,0.20533860
1614.41177124,0.20796344
1616.34057861,0.16844752
1618.26938599,0.18380393
1620.19819336,0.21487644
1622.12700073,0.18938337
1624.05580811,0.19044450
1625.98461548,0.20025799
1627.91342285,0.19933215
1629.84223022,0.19816974
1631.77103760,0.21209842
1633.69984497,0.19457814
1635.62865234,0.15924814
1637.55745972,0.18706018
1639.48626709,0.20629188
1641.41507446,0.20104623
1643.34388184,0.20683400
1645.27268921,0.18530388
1647.20149658,0.16181925
1649.13030396,0.20329086
1651.05911133,0.19183415
1652.98791870,0.12082998
1654.91672607,0.16721399
1656.84553345,0.21129225
1658.77434082,0.20176291
1660.70314819,0.20743291
1662.63195557,0.18762076
1664.56076294,0.19876638
1666.48957031,0.21397245
1668.41837769,0.18535572
1670.34718506,0.18006650
1672.27599243,0.20527622
1674.20479980,0.18865836
1676.13360718,0.18079770
1678.06241455,0.20932835
1679.99122192,0.20113602
1681.92002930,0.19857925
1683.84883667,0.16004837
1685.77764404,0.15893263
1687.70645142,0.21996541
1689.63525879,0.18954021
1691.56406616,0.20959800
1693.49287354,0.21316394
1695.42168091,0.15368384
1697.35048828,0.19148466
1699.27929565,0.16713813
1701.20810303,0.15020186
1703.13691040,0.20691115
1705.06571777,0.18885550
1706.99452515,0.19083107
1708.92333252,0.20792064
1710.85213989,0.19941565
1712.78094727,0.20310917
1714.70975464,0.18761721
1716.63856201,0.16751781
1718.56736938,0.16477752
1720.49617676,0.19662601
1722.42498413,0.20444497
1724.35379150,0.18940723
1726.28259888,0.20639256
1728.21140625,0.18981420
1730.14021362,0.19168282
1732.06902100,0.18644938
1733.99782837,0.14039558
1735.92663574,0.17660037
1737.85544312,0.19558859
1739.78425049,0.17313045
1741.71305786,0.18926793
1743.64186523,0.19195354
1745.57067261,0.19213082
1747.49947998,0.19369289
1749.42828735,0.18494317
1751.35709473,0.17648958
1753.28590210,0.19677408
1755.21470947,0.20592064
1757.14351685,0.18699352
1759.07232422,0.20669617
1761.00113159,0.19328037
1762.92993896,0.18653369
1764.85874634,0.21454245
1766.78755371,0.19208455
1768.71636108,0.19408983
1770.64516846,0.19221219
1772.57397583,0.17199257
1774.50278320,0.19322342
1776.43159058,0.20440550
1778.36039795,0.20139028
1780.28920532,0.19872832
1782.21801270,0.20041423
1784.14682007,0.20000416
1786.07562744,0.19583537
1788.00443481,0.20656985
1789.93324219,0.20099458
1791.86204956,0.18094170
1793.79085693,0.18923609
1795.71966431,0.20369780
1797.64847168,0.20076200
1799.57727905,0.19742820
1801.50608643,0.19379728
1803.43489380,0.20036626
1805.36370117,0.20512699
1807.29250854,0.20216131
1809.22131592,0.20270753
1811.15012329,0.19725817
1813.07893066,0.20366937
1815.00773804,0.20452705
1816.93654541,0.20192769
1818.86535278,0.20362052
1820.79416016,0.20284881
1822.72296753,0.20571339
1824.65177490,0.19162098
1826.58058228,0.19899382
1828.50938965,0.19911948
1830.43819702,0.18622762
1832.36700439,0.20367354
1834.29581177,0.20216644
1836.22461914,0.20188919
1838.15342651,0.20116681
1840.08223389,0.20236212
1842.01104126,0.20251173
1843.93984863,0.17875232
1845.86865601,0.19131044
1847.79746338,0.20203689
1849.72627075,0.19753060
1851.65507812,0.20375796
1853.58388550,0.19922549
1855.51269287,0.20133367
1857.44150024,0.19998969
1859.37030762,0.19894886
1861.29911499,0.20028955
1863.22792236,0.19770359
1865.15672974,0.20005497
1867.08553711,0.19284824
1869.01434448,0.18464717
1870.94315186,0.19228527
1872.87195923,0.19972235
1874.80076660,0.19629395
1876.72957397,0.19757071
1878.65838135,0.19695443
1880.58718872,0.19556172
1882.51599609,0.19727468
1884.44480347,0.19369698
1886.37361084,0.19695911
1888.30241821,0.19217683
1890.23122559,0.18827650
1892.16003296,0.19602369
1894.08884033,0.19256237
1896.01764771,0.19194654
1897.94645508,0.19419742
1899.87526245,0.19303879
1901.80406982,0.19364312
1903.73287720,0.19203988
1905.66168457,0.19300191
1907.59049194,0.19114554
1909.51929932,0.18984306
1911.44810669,0.19078185
1913.37691406,0.19107750
1915.30572144,0.19284125
1917.23452881,0.18382537
1919.16333618,0.18416764
1921.09214355,0.19142163
1923.02095093,0.18495795
1924.94975830,0.18890251
1926.87856567,0.19101103
1928.80737305,0.18857446
1930.73618042,0.19107461
1932.66498779,0.18808950
1934.59379517,0.18986526
1936.52260254,0.18861365
1938.45140991,0.18916520
1940.38021729,0.18921347
1942.30902466,0.18268110
1944.23783203,0.18617958
1946.16663940,0.18810029
1948.09544678,0.18765122
1950.02425415,0.18842384
1951.95306152,0.18759304
1953.88186890,0.18783030
1955.81067627,0.18707047
1957.73948364,0.18779832
1959.66829102,0.18714443
1961.59709839,0.18671447
1963.52590576,0.18742952
1965.45471313,0.18603244
1967.38352051,0.18405075
1969.31232788,0.18561602
1971.24113525,0.18704027
1973.16994263,0.18547429
1975.09875000,0.18633953
1977.02755737,0.18550149
1978.95636475,0.18540686
1980.88517212,0.18545544
1982.81397949,0.18454510
1984.74278687,0.18528792
1986.67159424,0.18345854
1988.60040161,0.18398310
1990.52920898,0.18233311
1992.45801636,0.17992260
1994.38682373,0.18290871
1996.31563110,0.18318722
1998.24443848,0.18208855
2000.17324585,0.18213010
2002.10205322,0.18168037
2004.03086060,0.18133686
2005.95966797,0.18099374
2007.88847534,0.18042688
2009.81728271,0.18017174
2011.74609009,0.17977753
2013.67489746,0.17970817
2015.60370483,0.17855573
2017.53251221,0.17677099
2019.46131958,0.17805113
2021.39012695,0.17798585
2023.31893433,0.17717922
2025.24774170,0.17717618
2027.17654907,0.17650047
2029.10535645,0.17651835
2031.03416382,0.17566922
2032.96297119,0.17540230
2034.89177856,0.17506981
2036.82058594,0.17471732
2038.74939331,0.17446205
2040.67820068,0.17321435
2042.60700806,0.17309549
2044.53581543,0.17315859
2046.46462280,0.17282967
2048.39343018,0.17231038
2050.32223755,0.17201704
2052.25104492,0.17161903
2054.17985229,0.17117830
2056.10865967,0.17102547
2058.03746704,0.17047580
2059.96627441,0.17018223
2061.89508179,0.16989973
2063.82388916,0.16912226
2065.75269653,0.16825445
2067.68150391,0.16870065
2069.61031128,0.16867651
2071.53911865,0.16803753
2073.46792603,0.16803664
2075.39673340,0.16743915
2077.32554077,0.16714990
2079.25434814,0.16664138
2081.18315552,0.16644327
2083.11196289,0.16628292
2085.04077026,0.16576119
2086.96957764,0.16552027
2088.89838501,0.16489205
2090.82719238,0.16470364
2092.75599976,0.16456130
2094.68480713,0.16445830
2096.61361450,0.16400468
2098.54242187,0.16362678
2100.47122925,0.16338649
2102.40003662,0.16296428
2104.32884399,0.16289079
2106.25765137,0.16240098
2108.18645874,0.16223435
2110.11526611,0.16186336
2112.04407349,0.16168645
2113.97288086,0.16135997
2115.90168823,0.16083875
2117.83049561,0.16089717
2119.75930298,0.16054823
2121.68811035,0.16049094
2123.61691772,0.15993008
2125.54572510,0.15974933
2127.47453247,0.15959620
2129.40333984,0.15918204
2131.33214722,0.15927204
2133.26095459,0.15874732
2135.18976196,0.15860057
2137.11856934,0.15819114
2139.04737671,0.15809007
2140.97618408,0.15801488
2142.90499146,0.15766278
2144.83379883,0.15751442
2146.76260620,0.15699857
2148.69141357,0.15713948
2150.62022095,0.15687723
2152.54902832,0.15669206
2154.47783569,0.15647863
2156.40664307,0.15609087
2158.33545044,0.15611637
2160.26425781,0.15577659
2162.19306519,0.15552616
2164.12187256,0.15534773
2166.05067993,0.15536557
2167.97948730,0.15492927
2169.90829468,0.15480971
2171.83710205,0.15466766
2173.76590942,0.15416536
2175.69471680,0.15419447
2177.62352417,0.15384877
2179.55233154,0.15383600
2181.48113892,0.15368763
2183.40994629,0.15347639
2185.33875366,0.15319753
2187.26756104,0.15289789
2189.19636841,0.15283671
2191.12517578,0.15245679
2193.05398315,0.15244907
2194.98279053,0.15204979
2196.91159790,0.15195078
2198.84040527,0.15192014
2200.76921265,0.15165320
2202.69802002,0.15146261
2204.62682739,0.15099934
2206.55563477,0.15104292
2208.48444214,0.15078506
2210.41324951,0.15066111
2212.34205688,0.15042998
2214.27086426,0.15005645
2216.19967163,0.15006010
2218.12847900,0.14986324
2220.05728638,0.14958981
2221.98609375,0.14926556
2223.91490112,0.14918801
2225.84370850,0.14890414
2227.77251587,0.14886993
2229.70132324,0.14865169
2231.63013062,0.14829618
2233.55893799,0.14810081
2235.48774536,0.14766422
2237.41655273,0.14754105
2239.34536011,0.14709285
2241.27416748,0.14698926
2243.20297485,0.14661597
2245.13178223,0.14636739
2247.06058960,0.14636371
2248.98939697,0.14588258
2250.91820435,0.14588779
2252.84701172,0.14534770
2254.77581909,0.14528370
2256.70462646,0.14506224
2258.63343384,0.14469182
2260.56224121,0.14476913
2262.49104858,0.14424670
2264.41985596,0.14428523
2266.34866333,0.14396873
2268.27747070,0.14363009
2270.20627808,0.14346543
2272.13508545,0.14329457
2274.06389282,0.14324373
2275.99270020,0.14291115
2277.92150757,0.14288995
2279.85031494,0.14251989
2281.77912231,0.14247462
2283.70792969,0.14245319
2285.63673706,0.14196494
2287.56554443,0.14163597
2289.49435181,0.14135823
2291.42315918,0.14091656
2293.35196655,0.14041495
2295.28077393,0.14023584
2297.20958130,0.13962559
2299.13838867,0.13902174
2301.06719604,0.13850635
2302.99600342,0.13790166
2304.92481079,0.13716231
2306.85361816,0.13619961
2308.78242554,0.13522342
2310.71123291,0.13385120
2312.64004028,0.13267887
2314.56884766,0.13122027
2316.49765503,0.12958083
2318.42646240,0.12778273
2320.35526978,0.12588561
2322.28407715,0.12419473
2324.21288452,0.12241562
2326.14169189,0.12110509
2328.07049927,0.11944096
2329.99930664,0.11785532
2331.92811401,0.11687674
2333.85692139,0.11650203
2335.78572876,0.11591857
2337.71453613,0.11544909
2339.64334351,0.11566340
2341.57215088,0.11594555
2343.50095825,0.11787470
2345.42976562,0.12008338
2347.35857300,0.12533320
2349.28738037,0.12976235
2351.21618774,0.12487399
2353.14499512,0.11818886
2355.07380249,0.11363081
2357.00260986,0.11002779
2358.93141724,0.10786223
2360.86022461,0.10644577
2362.78903198,0.10633651
2364.71783936,0.10691372
2366.64664673,0.10852752
2368.57545410,0.11080208
2370.50426147,0.11369319
2372.43306885,0.11696191
2374.36187622,0.12042528
2376.29068359,0.12379690
2378.21949097,0.12648475
2380.14829834,0.12887228
2382.07710571,0.13029826
2384.00591309,0.13135961
2385.93472046,0.13170856
2387.86352783,0.13181034
2389.79233521,0.13186711
2391.72114258,0.13151439
2393.64994995,0.13147758
2395.57875732,0.13114414
2397.50756470,0.13119499
2399.43637207,0.13095208
2401.36517944,0.13065311
2403.29398682,0.13054678
2405.22279419,0.13019398
2407.15160156,0.13014311
2409.08040894,0.12979782
2411.00921631,0.12980312
2412.93802368,0.12952615
2414.86683105,0.12932071
2416.79563843,0.12931761
2418.72444580,0.12890258
2420.65325317,0.12877803
2422.58206055,0.12847158
2424.51086792,0.12837896
2426.43967529,0.12818727
2428.36848267,0.12800780
2430.29729004,0.12792964
2432.22609741,0.12766351
2434.15490479,0.12745905
2436.08371216,0.12726426
2438.01251953,0.12730309
2439.94132690,0.12696975
2441.87013428,0.12678099
2443.79894165,0.12670656
2445.72774902,0.12642792
2447.65655640,0.12617573
2449.58536377,0.12594490
2451.51417114,0.12593107
2453.44297852,0.12568334
2455.37178589,0.12552634
2457.30059326,0.12530230
2459.22940063,0.12513958
2461.15820801,0.12508470
2463.08701538,0.12482503
2465.01582275,0.12465039
2466.94463013,0.12445721
2468.87343750,0.12431411
2470.80224487,0.12401687
2472.73105225,0.12385618
2474.65985962,0.12374009
2476.58866699,0.12357114
2478.51747437,0.12335727
2480.44628174,0.12322837
2482.37508911,0.12319501
2484.30389648,0.12282762
2486.23270386,0.12280281
2488.16151123,0.12249888
2490.09031860,0.12218274
2492.01912598,0.12222943
2493.94793335,0.12199040
2495.87674072,0.12176975
2497.80554810,0.12154581
2499.73435547,0.12155761
2501.66316284,0.12133881
2503.59197021,0.12112364
2505.52077759,0.12086675
2507.44958496,0.12057278
2509.37839233,0.12060902
2511.30719971,0.12033379
2513.23600708,0.12022479
2515.16481445,0.12000243
2517.09362183,0.11976811
2519.02242920,0.11965403
2520.95123657,0.11953855
2522.88004395,0.11948521
2524.80885132,0.11911853
2526.73765869,0.11903977
2528.66646606,0.11892516
2530.59527344,0.11869992
2532.52408081,0.11854377
2534.45288818,0.11838832
2536.38169556,0.11822495
2538.31050293,0.11795683
2540.23931030,0.11781512
2542.16811768,0.11767474
2544.09692505,0.11760841
2546.02573242,0.11741519
2547.95453979,0.11727771
2549.88334717,0.11707780
2551.81215454,0.11690050
2553.74096191,0.11674307
2555.66976929,0.11641707
2557.59857666,0.11645814
2559.52738403,0.11624092
2561.45619141,0.11606091
2563.38499878,0.11584137
2565.31380615,0.11558191
2567.24261353,0.11556740
2569.17142090,0.11524217
2571.10022827,0.11516329
2573.02903564,0.11501829
2574.95784302,0.11485796
2576.88665039,0.11470738
2578.81545776,0.11450179
2580.74426514,0.11441600
2582.67307251,0.11421908
2584.60187988,0.11406353
2586.53068726,0.11380921
2588.45949463,0.11380811
2590.38830200,0.11356540
2592.31710937,0.11328875
2594.24591675,0.11319852
2596.17472412,0.11283638
2598.10353149,0.11281829
2600.03233887,0.11275166
2601.96114624,0.11246602
2603.88995361,0.11226915
2605.81876099,0.11223580
2607.74756836,0.11201597
2609.67637573,0.11182602
2611.60518311,0.11172449
2613.53399048,0.11144547
2615.46279785,0.11142761
2617.39160522,0.11116087
2619.32041260,0.11100684
2621.24921997,0.11081032
2623.17802734,0.11047411
2625.10683472,0.11046804
2627.03564209,0.11033189
2628.96444946,0.11019816
2630.89325684,0.10991416
2632.82206421,0.10975693
2634.75087158,0.10956260
2636.67967895,0.10942967
2638.60848633,0.10936694
2640.53729370,0.10907379
2642.46610107,0.10908440
2644.39490845,0.10886987
2646.32371582,0.10861294
2648.25252319,0.10845236
2650.18133057,0.10828009
2652.11013794,0.10809642
2654.03894531,0.10790291
2655.96775269,0.10784384
2657.89656006,0.10752689
2659.82536743,0.10740928
2661.75417480,0.10730206
2663.68298218,0.10704588
2665.61178955,0.10683537
2667.54059692,0.10674319
2669.46940430,0.10668646
2671.39821167,0.10641171
2673.32701904,0.10624506
2675.25582642,0.10606302
2677.18463379,0.10602818
2679.11344116,0.10577500
2681.04224854,0.10553296
2682.97105591,0.10545114
2684.89986328,0.10519129
2686.82867065,0.10519265
2688.75747803,0.10490316
2690.68628540,0.10472464
2692.61509277,0.10455799
2694.54390015,0.10429543
2696.47270752,0.10434114
2698.40151489,0.10417014
2700.33032227,0.10397764
2702.25912964,0.10364112
2704.18793701,0.10354437
2706.11674438,0.10360822
2708.04555176,0.10331792
2709.97435913,0.10308252
2711.90316650,0.10305363
2713.83197388,0.10293980
2715.76078125,0.10267125
2717.68958862,0.10255828
2719.61839600,0.10226475
2721.54720337,0.10200074
2723.47601074,0.10192794
2725.40481812,0.10189025
2727.33362549,0.10173410
2729.26243286,0.10133298
2731.19124023,0.10118289
2733.12004761,0.10104012
2735.04885498,0.10088962
2736.97766235,0.10082521
2738.90646973,0.10069364
2740.83527710,0.10037629
2742.76408447,0.10014260
2744.69289185,0.10013482
2746.62169922,0.09992036
2748.55050659,0.09978364
2750.47931396,0.09960027
2752.40812134,0.09948254
2754.33692871,0.09932415
2756.26573608,0.09903900
2758.19454346,0.09888984
2760.12335083,0.09865573
2762.05215820,0.09860434
2763.98096558,0.09844285
2765.90977295,0.09828734
2767.83858032,0.09811275
2769.76738770,0.09776552
2771.69619507,0.09756677
2773.62500244,0.09749803
2775.55380981,0.09740345
2777.48261719,0.09710295
2779.41142456,0.09704246
2781.34023193,0.09679134
2783.26903931,0.09655584
2785.19784668,0.09644359
2787.12665405,0.09610213
2789.05546143,0.09602140
2790.98426880,0.09585942
2792.91307617,0.09574306
2794.84188354,0.09544632
2796.77069092,0.09527481
2798.69949829,0.09517884
2800.62830566,0.09482329
2802.55711304,0.09481940
2804.48592041,0.09465830
2806.41472778,0.09451158
2808.34353516,0.09423105
2810.27234253,0.09403121
2812.20114990,0.09396893
2814.12995728,0.09364854
2816.05876465,0.09358059
2817.98757202,0.09330156
2819.91637939,0.09302711
2821.84518677,0.09294880
2823.77399414,0.09285640
2825.70280151,0.09259191
2827.63160889,0.09235090
2829.56041626,0.09218337
2831.48922363,0.09189188
2833.41803101,0.09186830
2835.34683838,0.09155776
2837.27564575,0.09137006
2839.20445312,0.09115088
2841.13326050,0.09070280
2843.06206787,0.09051308
2844.99087524,0.09002130
2846.91968262,0.08953011
2848.84848999,0.08895127
2850.77729736,0.08867212
2852.70610474,0.08870424
2854.63491211,0.08861023
2856.56371948,0.08850953
2858.49252686,0.08827074
2860.42133423,0.08820074
2862.35014160,0.08797903
2864.27894897,0.08787585
2866.20775635,0.08779518
2868.13656372,0.08760361
2870.06537109,0.08756959
2871.99417847,0.08728531
2873.92298584,0.08711416
2875.85179321,0.08701499
2877.78060059,0.08685966
2879.70940796,0.08672819
2881.63821533,0.08661945
2883.56702270,0.08643459
2885.49583008,0.08634408
2887.42463745,0.08626843
2889.35344482,0.08592103
2891.28225220,0.08588130
2893.21105957,0.08566459
2895.13986694,0.08536652
2897.06867432,0.08525602
2898.99748169,0.08493677
2900.92628906,0.08474856
2902.85509644,0.08453923
2904.78390381,0.08421981
2906.71271118,0.08395286
2908.64151855,0.08382466
2910.57032593,0.08344704
2912.49913330,0.08294143
2914.42794067,0.08247523
2916.35674805,0.08201721
2918.28555542,0.08194792
2920.21436279,0.08181384
2922.14317017,0.08167027
2924.07197754,0.08148405
2926.00078491,0.08137836
2927.92959229,0.08133160
2929.85839966,0.08106162
2931.78720703,0.08113508
2933.71601440,0.08111686
2935.64482178,0.08107913
2937.57362915,0.08113658
2939.50243652,0.08101600
2941.43124390,0.08098656
2943.36005127,0.08089994
2945.28885864,0.08072581
2947.21766602,0.08059329
2949.14647339,0.08063352
2951.07528076,0.08046067
2953.00408813,0.08015439
2954.93289551,0.07998581
2956.86170288,0.07967871
2958.79051025,0.07944264
2960.71931763,0.07925209
2962.64812500,0.07905541
2964.57693237,0.07900301
2966.50573975,0.07886368
2968.43454712,0.07875855
2970.36335449,0.07899879
2972.29216187,0.07904308
2974.22096924,0.07895237
2976.14977661,0.07899863
2978.07858398,0.07887132
2980.00739136,0.07886657
2981.93619873,0.07893418
2983.86500610,0.07887745
2985.79381348,0.07869475
2987.72262085,0.07859904
2989.65142822,0.07854741
2991.58023560,0.07844634
2993.50904297,0.07838829
2995.43785034,0.07813108
2997.36665771,0.07802992
2999.29546509,0.07798392
3001.22427246,0.07796434
3003.15307983,0.07774475
3005.08188721,0.07741828
3007.01069458,0.07743225
3008.93950195,0.07712471
3010.86830933,0.07692037
3012.79711670,0.07664968
3014.72592407,0.07642819
3016.65473145,0.07648712
3018.58353882,0.07618355
3020.51234619,0.07612547
3022.44115356,0.07607494
3024.36996094,0.07582538
3026.29876831,0.07557063
3028.22757568,0.07551743
3030.15638306,0.07532354
3032.08519043,0.07488012
3034.01399780,0.07490698
3035.94280518,0.07477857
3037.87161255,0.07467881
3039.80041992,0.07459134
3041.72922729,0.07428855
3043.65803467,0.07418802
3045.58684204,0.07411709
3047.51564941,0.07394055
3049.44445679,0.07364301
3051.37326416,0.07362361
3053.30207153,0.07340537
3055.23087891,0.07313959
3057.15968628,0.07313465
3059.08849365,0.07295182
3061.01730103,0.07282981
3062.94610840,0.07266852
3064.87491577,0.07245202
3066.80372314,0.07217573
3068.73253052,0.07219274
3070.66133789,0.07211521
3072.59014526,0.07187362
3074.51895264,0.07199002
3076.44776001,0.07173883
3078.37656738,0.07140365
3080.30537476,0.07120623
3082.23418213,0.07112138
3084.16298950,0.07101159
3086.09179687,0.07085742
3088.02060425,0.07086572
3089.94941162,0.07059971
3091.87821899,0.07049660
3093.80702637,0.07031070
3095.73583374,0.07006472
3097.66464111,0.07003307
3099.59344849,0.06978182
3101.52225586,0.06960711
3103.45106323,0.06946167
3105.37987061,0.06939488
3107.30867798,0.06924680
3109.23748535,0.06892928
3111.16629272,0.06886888
3113.09510010,0.06875382
3115.02390747,0.06838663
3116.95271484,0.06817784
3118.88152222,0.06806883
3120.81032959,0.06786267
3122.73913696,0.06774659
3124.66794434,0.06763371
3126.59675171,0.06753701
3128.52555908,0.06740759
3130.45436645,0.06722951
3132.38317383,0.06697331
3134.31198120,0.06673644
3136.24078857,0.06666661
3138.16959595,0.06642012
3140.09840332,0.06624568
3142.02721069,0.06609361
3143.95601807,0.06590067
3145.88482544,0.06574584
3147.81363281,0.06553714
3149.74244019,0.06538136
3151.67124756,0.06504728
3153.60005493,0.06484312
3155.52886230,0.06473619
3157.45766968,0.06461369
3159.38647705,0.06446931
3161.31528442,0.06423596
3163.24409180,0.06412669
3165.17289917,0.06394701
3167.10170654,0.06369175
3169.03051392,0.06340638
3170.95932129,0.06339107
3172.88812866,0.06331179
3174.81693604,0.06302111
3176.74574341,0.06277522
3178.67455078,0.06249506
3180.60335815,0.06253469
3182.53216553,0.06235164
3184.46097290,0.06206653
3186.38978027,0.06195935
3188.31858765,0.06186001
3190.24739502,0.06169821
3192.17620239,0.06137958
3194.10500977,0.06140192
3196.03381714,0.06116920
3197.96262451,0.06089829
3199.89143188,0.06097201
3201.82023926,0.06082156
3203.74904663,0.06062679
3205.67785400,0.06053077
3207.60666138,0.06037288
3209.53546875,0.06009530
3211.46427612,0.06002386
3213.39308350,0.05981624
3215.32189087,0.05973932
3217.25069824,0.05977845
3219.17950562,0.05943551
3221.10831299,0.05935567
3223.03712036,0.05932387
3224.96592773,0.05919258
3226.89473511,0.05902668
3228.82354248,0.05896663
3230.75234985,0.05887422
3232.68115723,0.05865373
3234.60996460,0.05863280
3236.53877197,0.05851201
3238.46757935,0.05841888
3240.39638672,0.05828352
3242.32519409,0.05825337
3244.25400146,0.05808557
3246.18280884,0.05790275
3248.11161621,0.05797797
3250.04042358,0.05781624
3251.96923096,0.05786386
3253.89803833,0.05766902
3255.82684570,0.05750005
3257.75565308,0.05757929
3259.68446045,0.05744675
3261.61326782,0.05739253
3263.54207520,0.05726767
3265.47088257,0.05728088
3267.39968994,0.05712807
3269.32849731,0.05696891
3271.25730469,0.05692567
3273.18611206,0.05677761
3275.11491943,0.05661030
3277.04372681,0.05654970
3278.97253418,0.05674583
3280.90134155,0.05658891
3282.83014893,0.05648933
3284.75895630,0.05639480
3286.68776367,0.05627768
3288.61657104,0.05625329
3290.54537842,0.05596336
3292.47418579,0.05591544
3294.40299316,0.05588199
3296.33180054,0.05589143
3298.26060791,0.05580395
3300.18941528,0.05576286
3302.11822266,0.05574088
3304.04703003,0.05545706
3305.97583740,0.05540761
3307.90464478,0.05525462
3309.83345215,0.05516974
3311.76225952,0.05519808
3313.69106689,0.05517824
3315.61987427,0.05506320
3317.54868164,0.05502477
3319.47748901,0.05498467
3321.40629639,0.05475780
3323.33510376,0.05475509
3325.26391113,0.05452933
3327.19271851,0.05451404
3329.12152588,0.05454556
3331.05033325,0.05439974
3332.97914062,0.05433075
3334.90794800,0.05411849
3336.83675537,0.05406619
3338.76556274,0.05388340
3340.69437012,0.05388274
3342.62317749,0.05377551
3344.55198486,0.05372291
3346.48079224,0.05371145
3348.40959961,0.05340510
3350.33840698,0.05340454
3352.26721436,0.05329064
3354.19602173,0.05328821
3356.12482910,0.05306396
3358.05363647,0.05288397
3359.98244385,0.05281046
3361.91125122,0.05272000
3363.84005859,0.05278436
3365.76886597,0.05240338
3367.69767334,0.05240878
3369.62648071,0.05226273
3371.55528809,0.05224405
3373.48409546,0.05226808
3375.41290283,0.05205215
3377.34171020,0.05208509
3379.27051758,0.05175631
3381.19932495,0.05187820
3383.12813232,0.05164864
3385.05693970,0.05144762
3386.98574707,0.05147178
3388.91455444,0.05132873
3390.84336182,0.05129801
3392.77216919,0.05079868
3394.70097656,0.05094671
3396.62978394,0.05081216
3398.55859131,0.05065819
3400.48739868,0.05070759
3402.41620605,0.05047962
3404.34501343,0.05054596
3406.27382080,0.05031907
3408.20262817,0.05035748
3410.13143555,0.05014697
3412.06024292,0.05015954
3413.98905029,0.05011073
3415.91785767,0.04995942
3417.84666504,0.05004910
3419.77547241,0.04944099
3421.70427979,0.04942631
3423.63308716,0.04944762
3425.56189453,0.04945061
3427.49070190,0.04935579
3429.41950928,0.04912005
3431.34831665,0.04908025
3433.27712402,0.04893353
3435.20593140,0.04906704
3437.13473877,0.04865436
3439.06354614,0.04877884
3440.99235352,0.04853476
3442.92116089,0.04823501
3444.84996826,0.04854403
3446.77877563,0.04772341
3448.70758301,0.04789133
3450.63639038,0.04832055
3452.56519775,0.04814985
3454.49400513,0.04814923
3456.42281250,0.04794826
3458.35161987,0.04796651
3460.28042725,0.04786869
3462.20923462,0.04761870
3464.13804199,0.04756088
3466.06684937,0.04762895
3467.99565674,0.04740759
3469.92446411,0.04745331
3471.85327148,0.04744735
3473.78207886,0.04728819
3475.71088623,0.04726259
3477.63969360,0.04722270
3479.56850098,0.04722798
3481.49730835,0.04662444
3483.42611572,0.04673868
3485.35492310,0.04700778
3487.28373047,0.04677217
3489.21253784,0.04676165
3491.14134521,0.04683847
3493.07015259,0.04702897
3494.99895996,0.04667362
3496.92776733,0.04658628
3498.85657471,0.04664370
3500.78538208,0.04661270
3502.71418945,0.04582655
3504.64299683,0.04570781
3506.57180420,0.04685158
3508.50061157,0.04615430
3510.42941895,0.04600599
3512.35822632,0.04641709
3514.28703369,0.04643422
3516.21584106,0.04656572
3518.14464844,0.04616543
3520.07345581,0.04649965
3522.00226318,0.04597452
3523.93107056,0.04526901
3525.85987793,0.04546424
3527.78868530,0.04544010
3529.71749268,0.04550744
3531.64630005,0.04593507
3533.57510742,0.04630731
3535.50391479,0.04578571
3537.43272217,0.04559102
3539.36152954,0.04602895
3541.29033691,0.04605604
3543.21914429,0.04569378
3545.14795166,0.04463423
3547.07675903,0.04395806
3549.00556641,0.04549760
3550.93437378,0.04567911
3552.86318115,0.04454240
3554.79198853,0.04564463
3556.72079590,0.04572680
3558.64960327,0.04549016
3560.57841064,0.04518747
3562.50721802,0.04494302
3564.43602539,0.04526385
3566.36483276,0.04217928
3568.29364014,0.04116262
3570.22244751,0.04447602
3572.15125488,0.04572345
3574.08006226,0.04507443
3576.00886963,0.04523949
3577.93767700,0.04513010
3579.86648437,0.04495368
3581.79529175,0.04511204
3583.72409912,0.04519027
3585.65290649,0.04417790
3587.58171387,0.04045483
3589.51052124,0.04164474
3591.43932861,0.04534837
3593.36813599,0.04398853
3595.29694336,0.04333575
3597.22575073,0.04409217
3599.15455811,0.04443223
3601.08336548,0.04406088
3603.01217285,0.04441286
3604.94098022,0.04520114
3606.86978760,0.04358082
3608.79859497,0.04092067
3610.72740234,0.04186847
3612.65620972,0.04286139
3614.58501709,0.04153364
3616.51382446,0.04458975
3618.44263184,0.04116783
3620.37143921,0.03978769
3622.30024658,0.04498537
3624.22905395,0.04357041
3626.15786133,0.04559998
3628.08666870,0.03855056
3630.01547607,0.03502547
3631.94428345,0.04431238
3633.87309082,0.04310325
3635.80189819,0.04376050
3637.73070557,0.04474638
3639.65951294,0.04412749
3641.58832031,0.04448795
3643.51712769,0.04393549
3645.44593506,0.04432604
3647.37474243,0.03958780
3649.30354980,0.03636216
3651.23235718,0.03680908
3653.16116455,0.04374508
3655.08997192,0.04324232
3657.01877930,0.03859399
3658.94758667,0.04448692
3660.87639404,0.04359850
3662.80520142,0.04422932
3664.73400879,0.04401476
3666.66281616,0.04359391
3668.59162354,0.04228837
3670.52043091,0.03435469
3672.44923828,0.04177302
3674.37804565,0.03968403
3676.30685303,0.03277868
3678.23566040,0.04137643
3680.16446777,0.04231448
3682.09327515,0.04244996
3684.02208252,0.04365851
3685.95088989,0.04289640
3687.87969727,0.03855206
3689.80850464,0.03533881
3691.73731201,0.04040383
3693.66611938,0.04157550
3695.59492676,0.04266259
3697.52373413,0.04265262
3699.45254150,0.04213098
3701.38134888,0.04097778
3703.31015625,0.03939612
3705.23896362,0.04341640
3707.16777100,0.04125649
3709.09657837,0.04022555
3711.02538574,0.03781045
3712.95419312,0.03537052
3714.88300049,0.04163980
3716.81180786,0.04102000
3718.74061523,0.04131667
3720.66942261,0.04046071
3722.59822998,0.03894516
3724.52703735,0.04039040
3726.45584473,0.03740750
3728.38465210,0.04063122
3730.31345947,0.04028561
3732.24226685,0.03691016
3734.17107422,0.03600726
3736.09988159,0.03412216
3738.02868896,0.03612372
3739.95749634,0.03923858
3741.88630371,0.04114805
3743.81511108,0.03186136
3745.74391846,0.02986119
3747.67272583,0.03906032
3749.60153320,0.03350011
3751.53034058,0.03070411
3753.45914795,0.03555577
3755.38795532,0.03818373
3757.31676270,0.03974860
3759.24557007,0.03674918
3761.17437744,0.03805714
3763.10318481,0.04054262
3765.03199219,0.03773498
3766.96079956,0.03862537
3768.88960693,0.03808114
3770.81841431,0.03626377
3772.74722168,0.03942635
3774.67602905,0.03938538
3776.60483643,0.03930484
3778.53364380,0.03824656
3780.46245117,0.03679867
3782.39125854,0.03922431
3784.32006592,0.03822923
3786.24887329,0.03809578
3788.17768066,0.03898170
3790.10648804,0.03872353
3792.03529541,0.03846329
3793.96410278,0.03908741
3795.89291016,0.03669360
3797.82171753,0.03617966
3799.75052490,0.03818849
3801.67933228,0.03016701
3803.60813965,0.03536777
3805.53694702,0.03847771
3807.46575439,0.03126060
3809.39456177,0.03800555
3811.32336914,0.03721308
3813.25217651,0.03844110
3815.18098389,0.03466778
3817.10979126,0.03030095
3819.03859863,0.03847056
3820.96740601,0.03096303
3822.89621338,0.03257955
3824.82502075,0.03812191
3826.75382812,0.03436865
3828.68263550,0.03715734
3830.61144287,0.03568076
3832.54025024,0.03441713
3834.46905762,0.03515024
3836.39786499,0.03343684
3838.32667236,0.03019219
3840.25547974,0.03272872
3842.18428711,0.03527480
3844.11309448,0.03356060
3846.04190186,0.03649656
3847.97070923,0.03593504
3849.89951660,0.03598512
3851.82832397,0.03225935
3853.75713135,0.02398539
3855.68593872,0.02867822
3857.61474609,0.03596824
3859.54355347,0.03495330
3861.47236084,0.03456025
3863.40116821,0.03380426
3865.32997559,0.03139803
3867.25878296,0.03519198
3869.18759033,0.03207263
3871.11639770,0.02948211
3873.04520508,0.03517194
3874.97401245,0.03222709
3876.90281982,0.03484137
3878.83162720,0.03553186
3880.76043457,0.03028692
3882.68924194,0.03507254
3884.61804932,0.03274091
3886.54685669,0.02986886
3888.47566406,0.03506657
3890.40447144,0.03319650
3892.33327881,0.03105155
3894.26208618,0.03406413
3896.19089355,0.03468575
3898.11970093,0.03302595
3900.04850830,0.03121359
3901.97731567,0.03078777
3903.90612305,0.03052282
3905.83493042,0.03096702
3907.76373779,0.03396662
3909.69254517,0.03396987
3911.62135254,0.03353279
3913.55015991,0.03422892
3915.47896728,0.03297847
3917.40777466,0.03202758
3919.33658203,0.03187435
3921.26538940,0.03303687
3923.19419678,0.03290058
3925.12300415,0.03218626
3927.05181152,0.03271636
3928.98061890,0.03303074
3930.90942627,0.03238462
3932.83823364,0.03135339
3934.76704102,0.03252696
3936.69584839,0.03288075
3938.62465576,0.03276739
3940.55346313,0.03290110
3942.48227051,0.03165198
3944.41107788,0.03197967
3946.33988525,0.03245228
3948.26869263,0.03175467
3950.19750000,0.03168705
3952.12630737,0.03221730
3954.05511475,0.03223670
3955.98392212,0.03210665
3957.91272949,0.03197735
3959.84153687,0.03188089
3961.77034424,0.03177312
3963.69915161,0.03153585
3965.62795898,0.03195907
3967.55676636,0.03170920
3969.48557373,0.03152007
3971.41438110,0.03157546
3973.34318848,0.03138829
3975.27199585,0.03133813
3977.20080322,0.03116560
3979.12961060,0.03147144
3981.05841797,0.03121756
3982.98722534,0.03112404
3984.91603271,0.03103079
3986.84484009,0.03095939
3988.77364746,0.03102810
3990.70245483,0.03068379
3992.63126221,0.03092966
3994.56006958,0.03059466
3996.48887695,0.03064327
3998.41768433,0.03071031
4000.34649170,0.03045463
4002.27529907,0.03057814
4004.20410645,0.03035724
4006.13291382,0.03045658
4008.06172119,0.03018277
4009.99052856,0.03010391
4011.91933594,0.03012770
4013.84814331,0.03004726
4015.77695068,0.03004647
4017.70575806,0.02993335
4019.63456543,0.02992721
4021.56337280,0.02970900
4023.49218018,0.02987693
4025.42098755,0.02960658
4027.34979492,0.02959081
4029.27860229,0.02963169
4031.20740967,0.02939059
4033.13621704,0.02960623
4035.06502441,0.02940871
4036.99383179,0.02945346
4038.92263916,0.02918983
4040.85144653,0.02912609
4042.78025391,0.02920386
4044.70906128,0.02896364
4046.63786865,0.02902725
4048.56667603,0.02884060
4050.49548340,0.02884643
4052.42429077,0.02875827
4054.35309814,0.02878451
4056.28190552,0.02863757
4058.21071289,0.02852990
4060.13952026,0.02860488
4062.06832764,0.02838106
4063.99713501,0.02841919
4065.92594238,0.02820226
4067.85474976,0.02822786
4069.78355713,0.02819722
4071.71236450,0.02811019
4073.64117187,0.02810427
4075.56997925,0.02798494
4077.49878662,0.02804074
4079.42759399,0.02780868
4081.35640137,0.02784365
4083.28520874,0.02773749
4085.21401611,0.02773619
4087.14282349,0.02769901
4089.07163086,0.02746136
4091.00043823,0.02756051
4092.92924561,0.02742096
4094.85805298,0.02735288
4096.78686035,0.02722940
4098.71566772,0.02725043
4100.64447510,0.02715221
4102.57328247,0.02707421
4104.50208984,0.02709565
4106.43089722,0.02692136
4108.35970459,0.02696703
4110.28851196,0.02678696
4112.21731934,0.02679571
4114.14612671,0.02667131
4116.07493408,0.02663694
4118.00374145,0.02665130
4119.93254883,0.02648959
4121.86135620,0.02658488
4123.79016357,0.02642146
4125.71897095,0.02645785
4127.64777832,0.02626277
4129.57658569,0.02624514
4131.50539307,0.02630880
4133.43420044,0.02611772
4135.36300781,0.02613200
4137.29181519,0.02595087
4139.22062256,0.02601472
4141.14942993,0.02580966
4143.07823730,0.02580462
4145.00704468,0.02586996
4146.93585205,0.02567917
4148.86465942,0.02572579
4150.79346680,0.02560122
4152.72227417,0.02558455
4154.65108154,0.02537743
4156.57988892,0.02537794
4158.50869629,0.02536172
4160.43750366,0.02526468
4162.36631103,0.02528460
4164.29511841,0.02512174
4166.22392578,0.02521335
4168.15273315,0.02510028
4170.08154053,0.02499823
4172.01034790,0.02491737
4173.93915527,0.02490433
4175.86796265,0.02482988
4177.79677002,0.02468021
4179.72557739,0.02467069
4181.65438477,0.02454009
4183.58319214,0.02465706
4185.51199951,0.02449630
4187.44080688,0.02450148
4189.36961426,0.02451147
4191.29842163,0.02432454
4193.22722900,0.02432603
4195.15603638,0.02419221
4197.08484375,0.02429222
4199.01365112,0.02413558
4200.94245850,0.02405631
4202.87126587,0.02398772
4204.80007324,0.02395541
4206.72888062,0.02399645
4208.65768799,0.02373387
4210.58649536,0.02381591
4212.51530273,0.02372523
4214.44411011,0.02370526
4216.37291748,0.02367438
4218.30172485,0.02353885
4220.23053223,0.02348821
4222.15933960,0.02336707
4224.08814697,0.02342193
4226.01695435,0.02327681
4227.94576172,0.02324141
4229.87456909,0.02318223
4231.80337646,0.02317920
4233.73218384,0.02315285
4235.66099121,0.02303161
4237.58979858,0.02301122
4239.51860596,0.02284147
4241.44741333,0.02288346
4243.37622070,0.02281757
4245.30502808,0.02278263
4247.23383545,0.02270869
4249.16264282,0.02271876
4251.09145020,0.02271768
4253.02025757,0.02250284
4254.94906494,0.02252301
4256.87787231,0.02234042
4258.80667969,0.02240090
4260.73548706,0.02236338
4262.66429443,0.02234077
4264.59310181,0.02240455
4266.52190918,0.02216168
4268.45071655,0.02215448
4270.37952393,0.02208161
4272.30833130,0.02219576
4274.23713867,0.02205227
4276.16594604,0.02193738
4278.09475342,0.02200263
4280.02356079,0.02189317
4281.95236816,0.02191108
4283.88117554,0.02164972
4285.80998291,0.02169823
4287.73879028,0.02169371
4289.66759766,0.02157695
4291.59640503,0.02154991
4293.52521240,0.02146329
4295.45401978,0.02151571
4297.38282715,0.02135716
4299.31163452,0.02136047
4301.24044189,0.02131173
4303.16924927,0.02125245
4305.09805664,0.02123471
4307.02686401,0.02118174
4308.95567139,0.02109393
4310.88447876,0.02097714
4312.81328613,0.02105176
4314.74209351,0.02096054
4316.67090088,0.02098335
4318.59970825,0.02083899
4320.52851562,0.02073496
4322.45732300,0.02075351
4324.38613037,0.02070188
4326.31493774,0.02075507
4328.24374512,0.02057241
4330.17255249,0.02056282
4332.10135986,0.02044451
4334.03016724,0.02046436
4335.95897461,0.02046505
4337.88778198,0.02030640
4339.81658936,0.02031737
4341.74539673,0.02014240
4343.67420410,0.02021534
4345.60301147,0.02012307
4347.53181885,0.02015677
4349.46062622,0.02014543
4351.38943359,0.01997765
4353.31824097,0.02004343
4355.24704834,0.01980359
4357.17585571,0.01983776
4359.10466309,0.01986956
4361.03347046,0.01978273
4362.96227783,0.01966425
4364.89108520,0.01962484
4366.81989258,0.01970229
4368.74869995,0.01958587
4370.67750732,0.01958719
4372.60631470,0.01941215
4374.53512207,0.01939576
4376.46392944,0.01936350
4378.39273682,0.01934146
4380.32154419,0.01936141
4382.25035156,0.01914052
4384.17915894,0.01916391
4386.10796631,0.01909899
4388.03677368,0.01912588
4389.96558105,0.01909877
4391.89438843,0.01901499
4393.82319580,0.01899077
4395.75200317,0.01887763
4397.68081055,0.01887449
4399.60961792,0.01883523
4401.53842529,0.01886916
4403.46723267,0.01872865
4405.39604004,0.01877007
4407.32484741,0.01875580
4409.25365478,0.01855218
4411.18246216,0.01865877
4413.11126953,0.01857174
4415.04007690,0.01843841
4416.96888428,0.01838113
4418.89769165,0.01837552
4420.82649902,0.01830705
4422.75530640,0.01827611
4424.68411377,0.01824497
4426.61292114,0.01816450
4428.54172852,0.01820293
4430.47053589,0.01807035
4432.39934326,0.01811625
4434.32815063,0.01807563
4436.25695801,0.01797281
4438.18576538,0.01793684
4440.11457275,0.01784658
4442.04338013,0.01790864
4443.97218750,0.01778554
4445.90099487,0.01773366
4447.82980225,0.01769362
4449.75860962,0.01762048
4451.68741699,0.01756432
4453.61622437,0.01752033
4455.54503174,0.01752459
4457.47383911,0.01743691
4459.40264648,0.01744845
4461.33145386,0.01735327
4463.26026123,0.01727039
4465.18906860,0.01724183
4467.11787598,0.01726881
4469.04668335,0.01721954
4470.97549072,0.01714366
4472.90429810,0.01720631
4474.83310547,0.01709437
4476.76191284,0.01705546
4478.69072021,0.01695468
4480.61952759,0.01694560
4482.54833496,0.01690229
4484.47714233,0.01685453
4486.40594971,0.01691849
4488.33475708,0.01676288
4490.26356445,0.01683699
4492.19237183,0.01667080
4494.12117920,0.01659201
4496.04998657,0.01668243
4497.97879395,0.01652894
4499.90760132,0.01652072
4501.83640869,0.01645556
4503.76521606,0.01652104
4505.69402344,0.01645395
4507.62283081,0.01639143
4509.55163818,0.01637081
4511.48044556,0.01626403
4513.40925293,0.01633316
4515.33806030,0.01621781
4517.26686768,0.01614011
4519.19567505,0.01612775
4521.12448242,0.01606375
4523.05328979,0.01600172
4524.98209717,0.01597592
4526.91090454,0.01593817
4528.83971191,0.01600790
4530.76851929,0.01596706
4532.69732666,0.01566502
4534.62613403,0.01576719
4536.55494141,0.01578550
4538.48374878,0.01574340
4540.41255615,0.01571891
4542.34136353,0.01557962
4544.27017090,0.01567159
4546.19897827,0.01556555
4548.12778564,0.01551004
4550.05659302,0.01545898
4551.98540039,0.01537168
4553.91420776,0.01542545
4555.84301514,0.01542542
4557.77182251,0.01534064
4559.70062988,0.01522263
4561.62943726,0.01520769
4563.55824463,0.01511271
4565.48705200,0.01514901
4567.41585937,0.01517606
4569.34466675,0.01511955
4571.27347412,0.01504546
4573.20228149,0.01493013
4575.13108887,0.01498209
4577.05989624,0.01494046
4578.98870361,0.01488673
4580.91751099,0.01475333
4582.84631836,0.01472769
4584.77512573,0.01476649
4586.70393311,0.01468132
4588.63274048,0.01469111
4590.56154785,0.01463491
4592.49035522,0.01464048
4594.41916260,0.01457599
4596.34796997,0.01452576
4598.27677734,0.01445863
4600.20558472,0.01442246
4602.13439209,0.01444606
4604.06319946,0.01429668
4605.99200684,0.01432390
4607.92081421,0.01433264
4609.84962158,0.01436606
4611.77842895,0.01434958
4613.70723633,0.01422557
4615.63604370,0.01412694
4617.56485107,0.01409216
4619.49365845,0.01417852
4621.42246582,0.01399560
4623.35127319,0.01397209
4625.28008057,0.01399694
4627.20888794,0.01394699
4629.13769531,0.01397394
4631.06650269,0.01386753
4632.99531006,0.01388866
4634.92411743,0.01383188
4636.85292480,0.01375880
4638.78173218,0.01373221
4640.71053955,0.01367591
4642.63934692,0.01357409
4644.56815430,0.01356279
4646.49696167,0.01359865
4648.42576904,0.01348309
4650.35457642,0.01357436
4652.28338379,0.01356578
4654.21219116,0.01348928
4656.14099853,0.01339914
4658.06980591,0.01329351
4659.99861328,0.01336423
4661.92742065,0.01329786
4663.85622803,0.01329218
4665.78503540,0.01327160
4667.71384277,0.01318815
4669.64265015,0.01316921
4671.57145752,0.01318029
4673.50026489,0.01310308
4675.42907227,0.01303266
4677.35787964,0.01309967
4679.28668701,0.01297673
4681.21549438,0.01291369
4683.14430176,0.01292981
4685.07310913,0.01292858
4687.00191650,0.01288752
4688.93072388,0.01281765
4690.85953125,0.01284177
4692.78833862,0.01277325
4694.71714600,0.01273876
4696.64595337,0.01269310
4698.57476074,0.01270355
4700.50356812,0.01266862
4702.43237549,0.01257707
4704.36118286,0.01256179
4706.28999023,0.01251460
4708.21879761,0.01255773
4710.14760498,0.01247908
4712.07641235,0.01242350
4714.00521973,0.01245328
4715.93402710,0.01243818
4717.86283447,0.01234706
4719.79164185,0.01227330
4721.72044922,0.01229458
4723.64925659,0.01219488
4725.57806396,0.01220242
4727.50687134,0.01214328
4729.43567871,0.01212233
4731.36448608,0.01215848
4733.29329346,0.01209562
4735.22210083,0.01214749
4737.15090820,0.01201872
4739.07971558,0.01195437
4741.00852295,0.01196310
4742.93733032,0.01194614
4744.86613770,0.01196395
4746.79494507,0.01187853
4748.72375244,0.01186840
4750.65255981,0.01187893
4752.58136719,0.01185813
4754.51017456,0.01180176
4756.43898193,0.01179279
4758.36778931,0.01176275
4760.29659668,0.01167912
4762.22540405,0.01165205
4764.15421143,0.01166175
4766.08301880,0.01161314
4768.01182617,0.01154805
4769.94063354,0.01158370
4771.86944092,0.01146583
4773.79824829,0.01145583
4775.72705566,0.01147775
4777.65586304,0.01135810
4779.58467041,0.01139205
4781.51347778,0.01140710
4783.44228516,0.01134155
4785.37109253,0.01126160
4787.29989990,0.01133590
4789.22870728,0.01127231
4791.15751465,0.01118771
4793.08632202,0.01125418
4795.01512939,0.01114508
4796.94393677,0.01116718
4798.87274414,0.01117441
4800.80155151,0.01107895
4802.73035889,0.01098977
4804.65916626,0.01098962
4806.58797363,0.01103952
4808.51678101,0.01097436
4810.44558838,0.01098285
4812.37439575,0.01092266
4814.30320312,0.01083934
4816.23201050,0.01088220
4818.16081787,0.01089774
4820.08962524,0.01078671
4822.01843262,0.01083253
4823.94723999,0.01082008
4825.87604736,0.01065837
4827.80485474,0.01067478
4829.73366211,0.01058330
4831.66246948,0.01059420
4833.59127686,0.01059204
4835.52008423,0.01064171
4837.44889160,0.01066135
4839.37769897,0.01048154
4841.30650635,0.01049381
4843.23531372,0.01038415
4845.16412109,0.01045802
4847.09292847,0.01044751
4849.02173584,0.01037016
4850.95054321,0.01040686
4852.87935059,0.01030363
4854.80815796,0.01038483
4856.73696533,0.01018189
4858.66577270,0.01019440
4860.59458008,0.01030204
4862.52338745,0.01016133
4864.45219482,0.01020294
4866.38100220,0.01018605
4868.30980957,0.01015633
4870.23861694,0.01000341
4872.16742432,0.01009321
4874.09623169,0.01010523
4876.02503906,0.00998925
4877.95384644,0.01002013
4879.88265381,0.00986948
4881.81146118,0.00991979
4883.74026855,0.00989747
4885.66907593,0.00983706
4887.59788330,0.00982053
4889.52669067,0.00981573
4891.45549805,0.00974157
4893.38430542,0.00961607
4895.31311279,0.00978630
4897.24192017,0.00968850
4899.17072754,0.00968302
4901.09953491,0.00974235
4903.02834228,0.00956129
4904.95714966,0.00955905
4906.88595703,0.00955086
4908.81476440,0.00962337
4910.74357178,0.00962333
4912.67237915,0.00949208
4914.60118652,0.00946072
4916.52999390,0.00946853
4918.45880127,0.00940848
4920.38760864,0.00938627
4922.31641602,0.00938975
4924.24522339,0.00931408
4926.17403076,0.00934512
4928.10283813,0.00933252
4930.03164551,0.00927570
4931.96045288,0.00923861
4933.88926025,0.00928584
4935.81806763,0.00929227
4937.74687500,0.00914817
4939.67568237,0.00917634
4941.60448975,0.00911912
4943.53329712,0.00900624
4945.46210449,0.00904526
4947.39091187,0.00906336
4949.31971924,0.00904673
4951.24852661,0.00901682
4953.17733398,0.00895749
4955.10614136,0.00891956
4957.03494873,0.00893379
4958.96375610,0.00888245
4960.89256348,0.00888196
4962.82137085,0.00885402
4964.75017822,0.00877430
4966.67898560,0.00875690
4968.60779297,0.00875759
4970.53660034,0.00877001
4972.46540771,0.00874219
4974.39421509,0.00877401
4976.32302246,0.00869441
4978.25182983,0.00862064
4980.18063721,0.00862691
4982.10944458,0.00862705
4984.03825195,0.00871930
4985.96705933,0.00857057
4987.89586670,0.00846888
4989.82467407,0.00851052
4991.75348145,0.00845642
4993.68228882,0.00847461
4995.61109619,0.00840799
4997.53990356,0.00841069
4999.46871094,0.00845050
5001.39751831,0.00830594
5003.32632568,0.00834251
5005.25513306,0.00837809
5007.18394043,0.00824392
5009.11274780,0.00826197
5011.04155518,0.00826941
5012.97036255,0.00826591
5014.89916992,0.00821312
5016.82797729,0.00813066
5018.75678467,0.00816880
5020.68559204,0.00816639
5022.61439941,0.00813338
5024.54320679,0.00805612
5026.47201416,0.00812186
5028.40082153,0.00806635
5030.32962891,0.00797042
5032.25843628,0.00808111
5034.18724365,0.00800604
5036.11605103,0.00798939
5038.04485840,0.00796086
5039.97366577,0.00799155
5041.90247314,0.00796358
5043.83128052,0.00784952
5045.76008789,0.00790145
5047.68889526,0.00781795
5049.61770264,0.00786057
5051.54651001,0.00782765
5053.47531738,0.00780301
5055.40412476,0.00777978
5057.33293213,0.00768478
5059.26173950,0.00774183
5061.19054687,0.00767926
5063.11935425,0.00770924
5065.04816162,0.00758412
5066.97696899,0.00758199
5068.90577637,0.00765212
5070.83458374,0.00759095
5072.76339111,0.00764036
5074.69219849,0.00752303
5076.62100586,0.00757287
5078.54981323,0.00747664
5080.47862061,0.00746204
5082.40742798,0.00749350
5084.33623535,0.00739800
5086.26504272,0.00748354
5088.19385010,0.00731089
5090.12265747,0.00739059
5092.05146484,0.00741153
5093.98027222,0.00732372
5095.90907959,0.00738300
5097.83788696,0.00730448
5099.76669434,0.00730646
5101.69550171,0.00724409
5103.62430908,0.00726379
5105.55311645,0.00714907
5107.48192383,0.00718244
5109.41073120,0.00726641
5111.33953857,0.00709971
5113.26834595,0.00714124
5115.19715332,0.00714673
5117.12596069,0.00715603
5119.05476807,0.00705183
5120.98357544,0.00708395
5122.91238281,0.00713866
5124.84119019,0.00698858
5126.76999756,0.00703812
5128.69880493,0.00700122
5130.62761230,0.00701197
5132.55641968,0.00699201
5134.48522705,0.00696387
5136.41403442,0.00701784
5138.34284180,0.00692605
5140.27164917,0.00681025
5142.20045654,0.00678648
5144.12926392,0.00689012
5146.05807129,0.00684192
5147.98687866,0.00680917
5149.91568603,0.00680993
5151.84449341,0.00677662
5153.77330078,0.00680021
5155.70210815,0.00670832
5157.63091553,0.00664610
5159.55972290,0.00666558
5161.48853027,0.00671407
5163.41733765,0.00662688
5165.34614502,0.00661129
5167.27495239,0.00672441
5169.20375977,0.00661379
5171.13256714,0.00650318
5173.06137451,0.00654766
5174.99018188,0.00656424
5176.91898926,0.00654391
5178.84779663,0.00654135
5180.77660400,0.00647168
5182.70541138,0.00651198
5184.63421875,0.00648691
5186.56302612,0.00641599
5188.49183350,0.00645991
5190.42064087,0.00633904
5192.34944824,0.00637305
5194.27825562,0.00637325
5196.20706299,0.00626309
5198.13587036,0.00628631
5200.06467773,0.00631553
5201.99348511,0.00637108
5203.92229248,0.00631008
5205.85109985,0.00619252
5207.77990723,0.00610528
5209.70871460,0.00622290
5211.63752197,0.00627267
5213.56632935,0.00622971
5215.49513672,0.00631879
5217.42394409,0.00617958
5219.35275146,0.00610810
5221.28155884,0.00615409
5223.21036621,0.00615648
5225.13917358,0.00603254
5227.06798096,0.00595839
5228.99678833,0.00611566
5230.92559570,0.00605468
5232.85440308,0.00599091
5234.78321045,0.00602301
5236.71201782,0.00599180
5238.64082520,0.00597530
5240.56963257,0.00604577
5242.49843994,0.00598437
5244.42724731,0.00583369
5246.35605469,0.00591009
5248.28486206,0.00576486
5250.21366943,0.00577457
5252.14247681,0.00593945
5254.07128418,0.00575104
5256.00009155,0.00576419
5257.92889893,0.00587196
5259.85770630,0.00586882
5261.78651367,0.00579064
5263.71532104,0.00563050
5265.64412842,0.00563804
5267.57293579,0.00572663
5269.50174316,0.00571297
5271.43055054,0.00569576
5273.35935791,0.00569369
5275.28816528,0.00566318
5277.21697266,0.00570708
5279.14578003,0.00567499
5281.07458740,0.00562203
5283.00339478,0.00560522
5284.93220215,0.00553296
5286.86100952,0.00559263
5288.78981689,0.00559108
5290.71862427,0.00546519
5292.64743164,0.00547600
5294.57623901,0.00557204
5296.50504639,0.00559578
5298.43385376,0.00553394
5300.36266113,0.00547581
5302.29146851,0.00546447
5304.22027588,0.00548394
5306.14908325,0.00544429
5308.07789062,0.00537421
5310.00669800,0.00541030
5311.93550537,0.00547504
5313.86431274,0.00542841
5315.79312012,0.00534187
5317.72192749,0.00534436
5319.65073486,0.00536349
5321.57954224,0.00531739
5323.50834961,0.00531937
5325.43715698,0.00528085
5327.36596436,0.00511750
5329.29477173,0.00509676
5331.22357910,0.00521031
5333.15238647,0.00519303
5335.08119385,0.00516274
5337.01000122,0.00516285
5338.93880859,0.00498233
5340.86761597,0.00507185
5342.79642334,0.00518056
5344.72523071,0.00490519
5346.65403809,0.00501757
5348.58284546,0.00513259
5350.51165283,0.00510985
5352.44046020,0.00510156
5354.36926758,0.00487445
5356.29807495,0.00499357
5358.22688232,0.00503922
5360.15568970,0.00497354
5362.08449707,0.00499414
5364.01330444,0.00490227
5365.94211182,0.00494519
5367.87091919,0.00493980
5369.79972656,0.00498302
5371.72853394,0.00494471
5373.65734131,0.00491302
5375.58614868,0.00492474
5377.51495605,0.00478328
5379.44376343,0.00486913
5381.37257080,0.00493689
5383.30137817,0.00487442
5385.23018555,0.00479704
5387.15899292,0.00477025
5389.08780029,0.00482948
5391.01660767,0.00483824
5392.94541504,0.00476582
5394.87422241,0.00466446
5396.80302978,0.00472055
5398.73183716,0.00471693
5400.66064453,0.00473061
5402.58945190,0.00474189
5404.51825928,0.00467542
5406.44706665,0.00472134
5408.37587402,0.00461311
5410.30468140,0.00457872
5412.23348877,0.00456071
5414.16229614,0.00447544
5416.09110352,0.00458508
5418.01991089,0.00456776
5419.94871826,0.00457196
5421.87752563,0.00461972
5423.80633301,0.00449334
5425.73514038,0.00454804
5427.66394775,0.00454413
5429.59275513,0.00433999
5431.52156250,0.00444561
5433.45036987,0.00451018
5435.37917725,0.00436899
5437.30798462,0.00445678
5439.23679199,0.00447546
5441.16559936,0.00432765
5443.09440674,0.00436431
5445.02321411,0.00435921
5446.95202148,0.00429713
5448.88082886,0.00440117
5450.80963623,0.00434511
5452.73844360,0.00439372
5454.66725098,0.00446709
5456.59605835,0.00432037
5458.52486572,0.00441263
5460.45367310,0.00431778
5462.38248047,0.00424382
5464.31128784,0.00434144
5466.24009521,0.00425046
5468.16890259,0.00429286
5470.09770996,0.00423126
5472.02651733,0.00424772
5473.95532471,0.00430881
5475.88413208,0.00415801
5477.81293945,0.00422013
5479.74174683,0.00427111
5481.67055420,0.00413677
5483.59936157,0.00415293
5485.52816895,0.00426299
5487.45697632,0.00417426
5489.38578369,0.00413842
5491.31459106,0.00418745
5493.24339844,0.00410723
5495.17220581,0.00413075
5497.10101318,0.00417246
5499.02982056,0.00412857
5500.95862793,0.00410482
5502.88743530,0.00405312
5504.81624268,0.00403807
5506.74505005,0.00406641
5508.67385742,0.00403791
5510.60266479,0.00409663
5512.53147217,0.00409758
5514.46027954,0.00401028
5516.38908691,0.00405761
5518.31789429,0.00399952
5520.24670166,0.00395379
5522.17550903,0.00397436
5524.10431641,0.00393935
5526.03312378,0.00392768
5527.96193115,0.00394559
5529.89073853,0.00394751
5531.81954590,0.00385468
5533.74835327,0.00392112
5535.67716064,0.00390485
5537.60596802,0.00376573
5539.53477539,0.00383884
5541.46358276,0.00387339
5543.39239014,0.00384278
5545.32119751,0.00380896
5547.25000488,0.00379945
5549.17881226,0.00379670
5551.10761963,0.00380278
5553.03642700,0.00377950
5554.96523437,0.00378075
5556.89404175,0.00382311
5558.82284912,0.00374103
5560.75165649,0.00377519
5562.68046387,0.00378539
5564.60927124,0.00373058
5566.53807861,0.00375008
5568.46688599,0.00376262
5570.39569336,0.00376595
5572.32450073,0.00367712
5574.25330811,0.00367350
5576.18211548,0.00367114
5578.11092285,0.00365406
5580.03973022,0.00364128
5581.96853760,0.00360491
5583.89734497,0.00364929
5585.82615234,0.00364004
5587.75495972,0.00365600
5589.68376709,0.00366163
5591.61257446,0.00365044
5593.54138184,0.00359151
5595.47018921,0.00355909
5597.39899658,0.00359235
5599.32780395,0.00350363
5601.25661133,0.00354826
5603.18541870,0.00360175
5605.11422607,0.00354430
5607.04303345,0.00353262
5608.97184082,0.00350122
5610.90064819,0.00349759
5612.82945557,0.00350061
5614.75826294,0.00344290
5616.68707031,0.00346277
5618.61587769,0.00352181
5620.54468506,0.00347834
5622.47349243,0.00347807
5624.40229980,0.00338658
5626.33110718,0.00338379
5628.25991455,0.00350722
5630.18872192,0.00344216
5632.11752930,0.00341491
5634.04633667,0.00336976
5635.97514404,0.00335572
5637.90395142,0.00336041
5639.83275879,0.00336870
5641.76156616,0.00334981
5643.69037353,0.00328180
5645.61918091,0.00340343
5647.54798828,0.00334152
5649.47679565,0.00330116
5651.40560303,0.00334109
5653.33441040,0.00326524
5655.26321777,0.00329537
5657.19202515,0.00324251
5659.12083252,0.00325527
5661.04963989,0.00327510
5662.97844727,0.00324407
5664.90725464,0.00327942
5666.83606201,0.00325415
5668.76486938,0.00320928
5670.69367676,0.00315891
5672.62248413,0.00312790
5674.55129150,0.00317912
5676.48009888,0.00323647
5678.40890625,0.00315225
5680.33771362,0.00316590
5682.26652100,0.00321789
5684.19532837,0.00317482
5686.12413574,0.00314764
5688.05294311,0.00308721
5689.98175049,0.00314040
5691.91055786,0.00310419
5693.83936523,0.00304556
5695.76817261,0.00308560
5697.69697998,0.00305790
5699.62578735,0.00304155
5701.55459473,0.00303045
5703.48340210,0.00306987
5705.41220947,0.00304183
5707.34101685,0.00301636
5709.26982422,0.00301250
5711.19863159,0.00298192
5713.12743896,0.00300201
5715.05624634,0.00297531
5716.98505371,0.00301192
5718.91386108,0.00305978
5720.84266846,0.00301759
5722.77147583,0.00298061
5724.70028320,0.00299324
5726.62909058,0.00288757
5728.55789795,0.00287017
5730.48670532,0.00300878
5732.41551270,0.00289871
5734.34432007,0.00284225
5736.27312744,0.00287666
5738.20193481,0.00284933
5740.13074219,0.00284539
5742.05954956,0.00282620
5743.98835693,0.00286075
5745.91716431,0.00290346
5747.84597168,0.00288305
5749.77477905,0.00280411
5751.70358643,0.00279423
5753.63239380,0.00272716
5755.56120117,0.00277769
5757.49000854,0.00286099
5759.41881592,0.00271604
5761.34762329,0.00278810
5763.27643066,0.00280550
5765.20523804,0.00272127
5767.13404541,0.00274995
5769.06285278,0.00275445
5770.99166016,0.00273624
5772.92046753,0.00264686
5774.84927490,0.00267239
5776.77808228,0.00267472
5778.70688965,0.00265066
5780.63569702,0.00273824
5782.56450439,0.00278698
5784.49331177,0.00271130
5786.42211914,0.00264140
5788.35092651,0.00270869
5790.27973389,0.00267097
5792.20854126,0.00258448
5794.13734863,0.00256500
5796.06615601,0.00260972
5797.99496338,0.00264350
5799.92377075,0.00263359
5801.85257812,0.00264634
5803.78138550,0.00261790
5805.71019287,0.00265724
5807.63900024,0.00261934
5809.56780762,0.00257579
5811.49661499,0.00256757
5813.42542236,0.00249945
5815.35422974,0.00254398
5817.28303711,0.00257685
5819.21184448,0.00256265
5821.14065186,0.00251463
5823.06945923,0.00250951
5824.99826660,0.00251333
5826.92707397,0.00251194
5828.85588135,0.00247884
5830.78468872,0.00243425
5832.71349609,0.00256872
5834.64230347,0.00252062
5836.57111084,0.00242693
5838.49991821,0.00241611
5840.42872559,0.00242051
5842.35753296,0.00252435
5844.28634033,0.00242293
5846.21514770,0.00241160
5848.14395508,0.00246915
5850.07276245,0.00240817
5852.00156982,0.00240051
5853.93037720,0.00236701
5855.85918457,0.00241192
5857.78799194,0.00242833
5859.71679932,0.00237517
5861.64560669,0.00237457
5863.57441406,0.00234878
5865.50322144,0.00234014
5867.43202881,0.00237368
5869.36083618,0.00231127
5871.28964355,0.00227253
5873.21845093,0.00235473
5875.14725830,0.00230887
5877.07606567,0.00227450
5879.00487305,0.00232567
5880.93368042,0.00227808
5882.86248779,0.00225592
5884.79129517,0.00229202
5886.72010254,0.00226786
5888.64890991,0.00224629
5890.57771728,0.00232863
5892.50652466,0.00232877
5894.43533203,0.00225232
5896.36413940,0.00223855
5898.29294678,0.00220731
5900.22175415,0.00225524
5902.15056152,0.00226939
5904.07936890,0.00217901
5906.00817627,0.00218974
5907.93698364,0.00214726
5909.86579102,0.00215913
5911.79459839,0.00224496
5913.72340576,0.00213620
5915.65221313,0.00214858
5917.58102051,0.00220752
5919.50982788,0.00216969
5921.43863525,0.00216458
5923.36744263,0.00209000
5925.29625000,0.00212106
5927.22505737,0.00210001
5929.15386475,0.00208116
5931.08267212,0.00215640
5933.01147949,0.00208771
5934.94028686,0.00214477
5936.86909424,0.00212466
5938.79790161,0.00205619
5940.72670898,0.00211346
5942.65551636,0.00203117
5944.58432373,0.00206435
5946.51313110,0.00208286
5948.44193848,0.00205258
5950.37074585,0.00209825
5952.29955322,0.00203476
5954.22836060,0.00206149
5956.15716797,0.00202509
5958.08597534,0.00198083
5960.01478271,0.00207719
5961.94359009,0.00202460
5963.87239746,0.00200475
5965.80120483,0.00205057
5967.73001221,0.00202156
5969.65881958,0.00197207
5971.58762695,0.00196469
5973.51643433,0.00192312
5975.44524170,0.00189679
5977.37404907,0.00202608
5979.30285645,0.00199091
5981.23166382,0.00197911
5983.16047119,0.00203135
5985.08927856,0.00193236
5987.01808594,0.00192591
5988.94689331,0.00193433
5990.87570068,0.00199991
5992.80450806,0.00197659
5994.73331543,0.00194125
5996.66212280,0.00196271
5998.59093018,0.00189194
6000.51973755,0.00196489
