399.26312622,0.00235923
401.19193359,0.00281584
403.12074097,0.00267927
405.04954834,0.00266116
406.97835571,0.00305370
408.90716309,0.00320920
410.83597046,0.00317073
412.76477783,0.00321616
414.69358521,0.00349614
416.62239258,0.00355584
418.55119995,0.00306448
420.48000732,0.00290206
422.40881470,0.00371758
424.33762207,0.00382931
426.26642944,0.00326496
428.19523682,0.00383308
430.12404419,0.00412624
432.05285156,0.00370894
433.98165894,0.00353590
435.91046631,0.00327099
437.83927368,0.00328876
439.76808105,0.00366158
441.69688843,0.00386758
443.62569580,0.00346746
445.55450317,0.00355665
447.48331055,0.00394724
449.41211792,0.00319287
451.34092529,0.00278975
453.26973267,0.00269063
455.19854004,0.00280708
457.12734741,0.00299319
459.05615479,0.00211258
460.98496216,0.00182624
462.91376953,0.00224116
464.84257690,0.00245471
466.77138428,0.00202061
468.70019165,0.00184983
470.62899902,0.00216009
472.55780640,0.00158896
474.48661377,0.00177984
476.41542114,0.00203332
478.34422852,0.00134701
480.27303589,0.00078974
482.20184326,0.00074381
484.13065063,0.00124525
486.05945801,0.00089478
487.98826538,0.00067322
489.91707275,0.00079538
491.84588013,0.00066939
493.77468750,0.00102674
495.70349487,0.00078852
497.63230225,0.00068786
499.56110962,0.00080292
501.48991699,0.00069214
503.41872437,0.00080571
505.34753174,0.00061672
507.27633911,0.00067004
509.20514648,0.00045132
511.13395386,0.00046688
513.06276123,0.00084366
514.99156860,0.00055377
516.92037598,0.00041123
518.84918335,0.00024326
520.77799072,0.00056962
522.70679810,0.00061441
524.63560547,0.00016259
526.56441284,0.00062179
528.49322021,0.00077687
530.42202759,0.00067017
532.35083496,0.00041224
534.27964233,0.00053571
536.20844971,0.00048040
538.13725708,-0.00021634
540.06606445,0.00050210
541.99487183,0.00037705
543.92367920,-0.00003061
545.85248657,0.00043690
547.78129395,0.00014062
549.71010132,0.00001000
551.63890869,0.00011956
553.56771606,0.00050958
555.49652344,0.00043018
557.42533081,0.00001111
559.35413818,-0.00000388
561.28294556,0.00024112
563.21175293,0.00037662
565.14056030,0.00009823
567.06936768,0.00028300
568.99817505,0.00044799
570.92698242,0.00046025
572.85578979,0.00027263
574.78459717,0.00017253
576.71340454,0.00036292
578.64221191,0.00026317
580.57101929,0.00021953
582.49982666,0.00008939
584.42863403,0.00009413
586.35744141,0.00012500
588.28624878,0.00039112
590.21505615,0.00035573
592.14386353,0.00009812
594.07267090,0.00041096
596.00147827,0.00043105
597.93028564,0.00040800
599.85909302,0.00007085
601.78790039,0.00001517
603.71670776,0.00007291
605.64551514,-0.00010544
607.57432251,0.00003351
609.50312988,0.00014675
611.43193726,0.00036361
613.36074463,0.00005942
615.28955200,0.00007147
617.21835938,0.00031946
619.14716675,0.00015294
621.07597412,0.00043809
623.00478149,0.00026804
624.93358887,-0.00001574
626.86239624,0.00018417
628.79120361,0.00035728
630.72001099,0.00108502
632.64881836,0.00196995
634.57762573,0.00252974
636.50643311,0.00245495
638.43524048,0.00268190
640.36404785,0.00289804
642.29285522,0.00296847
644.22166260,0.00391934
646.15046997,0.00405635
648.07927734,0.00412442
650.00808472,0.00446445
651.93689209,0.00444732
653.86569946,0.00469471
655.79450684,0.00491965
657.72331421,0.00508364
659.65212158,0.00493424
661.58092896,0.00530672
663.50973633,0.00576406
665.43854370,0.00567383
667.36735107,0.00554251
669.29615845,0.00592811
671.22496582,0.00666992
673.15377319,0.00699473
675.08258057,0.00740283
677.01138794,0.00687777
678.94019531,0.00697363
680.86900269,0.00782826
682.79781006,0.00743204
684.72661743,0.00746917
686.65542480,0.00727451
688.58423218,0.00714978
690.51303955,0.00760147
692.44184692,0.00798723
694.37065430,0.00868713
696.29946167,0.00945889
698.22826904,0.01101994
700.15707642,0.01180963
702.08588379,0.01100547
704.01469116,0.01034400
705.94349854,0.00946142
707.87230591,0.00773088
709.80111328,0.00611913
711.72992065,0.00467072
713.65872803,0.00300530
715.58753540,0.00192885
717.51634277,0.00109285
719.44515015,0.00062649
721.37395752,0.00070893
723.30276489,0.00031047
725.23157227,0.00000439
727.16037964,0.00023585
729.08918701,0.00022585
731.01799438,0.00008660
732.94680176,0.00017954
734.87560913,0.00031034
736.80441650,0.00020889
738.73322388,-0.00015466
740.66203125,0.00016983
742.59083862,0.00035782
744.51964600,-0.00014441
746.44845337,0.00027760
748.37726074,0.00085662
750.30606812,0.00054718
752.23487549,0.00030356
754.16368286,0.00070601
756.09249023,0.00053779
758.02129761,0.00046730
759.95010498,0.00067325
761.87891235,0.00021258
763.80771973,0.00073888
765.73652710,0.00060248
767.66533447,0.00017430
769.59414185,0.00091294
771.52294922,0.00074142
773.45175659,0.00046175
775.38056396,0.00049946
777.30937134,0.00067747
779.23817871,0.00061442
781.16698608,0.00042126
783.09579346,0.00072620
785.02460083,0.00074107
786.95340820,0.00064367
788.88221558,0.00050732
790.81102295,0.00060496
792.73983032,0.00073214
794.66863770,0.00081444
796.59744507,0.00106644
798.52625244,0.00130027
800.45505981,0.00164257
802.38386719,0.00169707
804.31267456,0.00146195
806.24148193,0.00100817
808.17028931,0.00091813
810.09909668,0.00079982
812.02790405,0.00069332
813.95671143,0.00087266
815.88551880,0.00051825
817.81432617,0.00066435
819.74313354,0.00083452
821.67194092,0.00069284
823.60074829,0.00090562
825.52955566,0.00102183
827.45836304,0.00111806
829.38717041,0.00132100
831.31597778,0.00178369
833.24478516,0.00219575
835.17359253,0.00235865
837.10239990,0.00237516
839.03120728,0.00245542
840.96001465,0.00230565
842.88882202,0.00215515
844.81762939,0.00207387
846.74643677,0.00167816
848.67524414,0.00186600
850.60405151,0.00182740
852.53285889,0.00154609
854.46166626,0.00144503
856.39047363,0.00120281
858.31928101,0.00113220
860.24808838,0.00100208
862.17689575,0.00105095
864.10570313,0.00070609
866.03451050,0.00069068
867.96331787,0.00070198
869.89212524,0.00015898
871.82093262,0.00044803
873.74973999,0.00044920
875.67854736,0.00028231
877.60735474,0.00041110
879.53616211,0.00052218
881.46496948,0.00075698
883.39377686,0.00058667
885.32258423,0.00045433
887.25139160,0.00049878
889.18019897,0.00027335
891.10900635,0.00023185
893.03781372,0.00050062
894.96662109,0.00054264
896.89542847,0.00064047
898.82423584,0.00042096
900.75304321,0.00035359
902.68185059,0.00073931
904.61065796,0.00059201
906.53946533,0.00067786
908.46827271,0.00069787
910.39708008,0.00080223
912.32588745,0.00099504
914.25469482,0.00091462
916.18350220,0.00131115
918.11230957,0.00152240
920.04111694,0.00175089
921.96992432,0.00188159
923.89873169,0.00197189
925.82753906,0.00216918
927.75634644,0.00212776
929.68515381,0.00250323
931.61396118,0.00272219
933.54276855,0.00281697
935.47157593,0.00310460
937.40038330,0.00341100
939.32919067,0.00349606
941.25799805,0.00349392
943.18680542,0.00377056
945.11561279,0.00357872
947.04442017,0.00342646
948.97322754,0.00352155
950.90203491,0.00355171
952.83084229,0.00355420
954.75964966,0.00331810
956.68845703,0.00333440
958.61726440,0.00323312
960.54607178,0.00315533
962.47487915,0.00353908
964.40368652,0.00371918
966.33249390,0.00374834
968.26130127,0.00369102
970.19010864,0.00362380
972.11891602,0.00400990
974.04772339,0.00441364
975.97653076,0.00453526
977.90533813,0.00486996
979.83414551,0.00555858
981.76295288,0.00618603
983.69176025,0.00667477
985.62056763,0.00748118
987.54937500,0.00830974
989.47818237,0.00915258
991.40698975,0.01026060
993.33579712,0.01114080
995.26460449,0.01218210
997.19341187,0.01339768
999.12221924,0.01424624
1001.05102661,0.01536795
1002.97983398,0.01655332
1004.90864136,0.01724112
1006.83744873,0.01849881
1008.76625610,0.01990866
1010.69506348,0.02071561
1012.62387085,0.02187611
1014.55267822,0.02327740
1016.48148560,0.02449553
1018.41029297,0.02549412
1020.33910034,0.02663529
1022.26790771,0.02775610
1024.19671509,0.02878488
1026.12552246,0.03000404
1028.05432983,0.03074572
1029.98313721,0.03174128
1031.91194458,0.03279406
1033.84075195,0.03344503
1035.76955933,0.03401105
1037.69836670,0.03417800
1039.62717407,0.03440623
1041.55598145,0.03437120
1043.48478882,0.03413443
1045.41359619,0.03368723
1047.34240356,0.03314460
1049.27121094,0.03263726
1051.20001831,0.03188922
1053.12882568,0.03158857
1055.05763306,0.03109960
1056.98644043,0.03032809
1058.91524780,0.02942437
1060.84405518,0.02851230
1062.77286255,0.02783008
1064.70166992,0.02684658
1066.63047729,0.02575315
1068.55928467,0.02454291
1070.48809204,0.02362691
1072.41689941,0.02259364
1074.34570679,0.02147704
1076.27451416,0.02068635
1078.20332153,0.01961167
1080.13212891,0.01858511
1082.06093628,0.01762977
1083.98974365,0.01680078
1085.91855103,0.01597439
1087.84735840,0.01544717
1089.77616577,0.01488933
1091.70497314,0.01394576
1093.63378052,0.01342747
1095.56258789,0.01281306
1097.49139526,0.01247255
1099.42020264,0.01227330
1101.34901001,0.01179571
1103.27781738,0.01152656
1105.20662476,0.01118142
1107.13543213,0.01088541
1109.06423950,0.01061487
1110.99304687,0.01055180
1112.92185425,0.01067759
1114.85066162,0.01067181
1116.77946899,0.01070714
1118.70827637,0.01065972
1120.63708374,0.01056584
1122.56589111,0.01087235
1124.49469849,0.01100036
1126.42350586,0.01092515
1128.35231323,0.01133012
1130.28112061,0.01136381
1132.20992798,0.01152186
1134.13873535,0.01210960
1136.06754272,0.01264442
1137.99635010,0.01326545
1139.92515747,0.01385978
1141.85396484,0.01498807
1143.78277222,0.01596289
1145.71157959,0.01680005
1147.64038696,0.01793555
1149.56919434,0.01897499
1151.49800171,0.01996057
1153.42680908,0.02080495
1155.35561646,0.02180661
1157.28442383,0.02262652
1159.21323120,0.02364381
1161.14203857,0.02459932
1163.07084595,0.02517946
1164.99965332,0.02625410
1166.92846069,0.02716411
1168.85726807,0.02796408
1170.78607544,0.02920778
1172.71488281,0.03064706
1174.64369019,0.03170104
1176.57249756,0.03274411
1178.50130493,0.03416054
1180.43011230,0.03535290
1182.35891968,0.03681887
1184.28772705,0.03849909
1186.21653442,0.04000256
1188.14534180,0.04183218
1190.07414917,0.04398717
1192.00295654,0.04594849
1193.93176392,0.04807966
1195.86057129,0.05038442
1197.78937866,0.05247748
1199.71818604,0.05475584
1201.64699341,0.05704996
1203.57580078,0.05944806
1205.50460815,0.06180167
1207.43341553,0.06406654
1209.36222290,0.06602946
1211.29103027,0.06782645
1213.21983765,0.07000902
1215.14864502,0.07171922
1217.07745239,0.07328945
1219.00625977,0.07450104
1220.93506714,0.07554376
1222.86387451,0.07672881
1224.79268188,0.07727636
1226.72148926,0.07779875
1228.65029663,0.07802580
1230.57910400,0.07842843
1232.50791138,0.07878335
1234.43671875,0.07866950
1236.36552612,0.07864907
1238.29433350,0.07839063
1240.22314087,0.07842878
1242.15194824,0.07811622
1244.08075562,0.07769229
1246.00956299,0.07756088
1247.93837036,0.07696121
1249.86717773,0.07647189
1251.79598511,0.07586214
1253.72479248,0.07498681
1255.65359985,0.07417348
1257.58240723,0.07300159
1259.51121460,0.07159743
1261.44002197,0.07093856
1263.36882935,0.07020733
1265.29763672,0.06895027
1267.22644409,0.06820161
1269.15525146,0.06723176
1271.08405884,0.06615327
1273.01286621,0.06509568
1274.94167358,0.06384086
1276.87048096,0.06281523
1278.79928833,0.06151675
1280.72809570,0.06015024
1282.65690308,0.05899599
1284.58571045,0.05795450
1286.51451782,0.05685782
1288.44332520,0.05581431
1290.37213257,0.05515558
1292.30093994,0.05452594
1294.22974731,0.05395240
1296.15855469,0.05364559
1298.08736206,0.05368538
1300.01616943,0.05394367
1301.94497681,0.05418523
1303.87378418,0.05466723
1305.80259155,0.05526572
1307.73139893,0.05582543
1309.66020630,0.05677655
1311.58901367,0.05758853
1313.51782104,0.05840920
1315.44662842,0.06011467
1317.37543579,0.06131363
1319.30424316,0.06251460
1321.23305054,0.06504358
1323.16185791,0.06723173
1325.09066528,0.06903865
1327.01947266,0.07106182
1328.94828003,0.07286172
1330.87708740,0.07461675
1332.80589478,0.07618088
1334.73470215,0.07773206
1336.66350952,0.07849469
1338.59231689,0.07768074
1340.52112427,0.07891104
1342.44993164,0.08200136
1344.37873901,0.08252172
1346.30754639,0.08260049
1348.23635376,0.08246635
1350.16516113,0.08163080
1352.09396851,0.08160241
1354.02277588,0.08046328
1355.95158325,0.07981288
1357.88039062,0.07941067
1359.80919800,0.07801976
1361.73800537,0.07462627
1363.66681274,0.07350545
1365.59562012,0.07734600
1367.52442749,0.07541468
1369.45323486,0.07455939
1371.38204224,0.07581781
1373.31084961,0.07150782
1375.23965698,0.07231273
1377.16846436,0.07397417
1379.09727173,0.07370246
1381.02607910,0.07388981
1382.95488647,0.07359028
1384.88369385,0.07367250
1386.81250122,0.06995865
1388.74130859,0.07123734
1390.67011597,0.07729388
1392.59892334,0.07488814
1394.52773071,0.07010169
1396.45653809,0.07363983
1398.38534546,0.07354627
1400.31415283,0.07330266
1402.24296021,0.07932898
1404.17176758,0.07459226
1406.10057495,0.07499795
1408.02938232,0.07829867
1409.95818970,0.07540822
1411.88699707,0.07696421
1413.81580444,0.07423624
1415.74461182,0.07548808
1417.67341919,0.06772745
1419.60222656,0.06060966
1421.53103394,0.07012803
1423.45984131,0.06779249
1425.38864868,0.06597045
1427.31745605,0.06680965
1429.24626343,0.06155249
1431.17507080,0.05983550
1433.10387817,0.06084440
1435.03268555,0.05528041
1436.96149292,0.04654881
1438.89030029,0.05335359
1440.81910767,0.05446979
1442.74791504,0.05044774
1444.67672241,0.05313668
1446.60552979,0.04847781
1448.53433716,0.04937211
1450.46314453,0.05087487
1452.39195190,0.05196756
1454.32075928,0.05393589
1456.24956665,0.04404344
1458.17837402,0.04636252
1460.10718140,0.06191272
1462.03598877,0.06577097
1463.96479614,0.06533980
1465.89360352,0.06805417
1467.82241089,0.07780927
1469.75121826,0.08340794
1471.68002563,0.07404497
1473.60883301,0.07825652
1475.53764038,0.08918463
1477.46644775,0.09620509
1479.39525513,0.10576169
1481.32406250,0.10715555
1483.25286987,0.11417825
1485.18167725,0.11761728
1487.11048462,0.11562499
1489.03929199,0.11480042
1490.96809937,0.11585382
1492.89690674,0.13536337
1494.82571411,0.13146201
1496.75452148,0.11848658
1498.68332886,0.13439034
1500.61213623,0.13848339
1502.54094360,0.14881030
1504.46975098,0.13933007
1506.39855835,0.10102739
1508.32736572,0.12492621
1510.25617310,0.14629339
1512.18498047,0.14193308
1514.11378784,0.15372688
1516.04259521,0.13784322
1517.97140259,0.14442103
1519.90020996,0.13883567
1521.82901733,0.12055841
1523.75782471,0.14835513
1525.68663208,0.14481029
1527.61543945,0.14500660
1529.54424683,0.16037029
1531.47305420,0.15343566
1533.40186157,0.14050382
1535.33066895,0.14975190
1537.25947632,0.15981476
1539.18828369,0.11313555
1541.11709106,0.11972973
1543.04589844,0.14316887
1544.97470581,0.13747656
1546.90351318,0.16333970
1548.83232056,0.15141737
1550.76112793,0.15700543
1552.68993530,0.15545341
1554.61874268,0.14137268
1556.54755005,0.15097380
1558.47635742,0.10504618
1560.40516479,0.11559924
1562.33397217,0.16448966
1564.26277954,0.15488167
1566.19158691,0.15958443
1568.12039429,0.15724623
1570.04920166,0.13945888
1571.97800903,0.16171680
1573.90681641,0.16276753
1575.83562378,0.12846383
1577.76443115,0.14645103
1579.69323853,0.16533992
1581.62204590,0.15802757
1583.55085327,0.16213763
1585.47966064,0.15953143
1587.40846802,0.16062227
1589.33727539,0.15900543
1591.26608276,0.15927649
1593.19489014,0.15954477
1595.12369751,0.15760522
1597.05250488,0.15969197
1598.98131226,0.15861039
1600.91011963,0.15952450
1602.83892700,0.15658265
1604.76773437,0.15930237
1606.69654175,0.15680268
1608.62534912,0.15659760
1610.55415649,0.15613283
1612.48296387,0.15754937
1614.41177124,0.15925933
1616.34057861,0.12941444
1618.26938599,0.14169513
1620.19819336,0.16436367
1622.12700073,0.14546487
1624.05580811,0.14651653
1625.98461548,0.15357529
1627.91342285,0.15290950
1629.84223022,0.15187791
1631.77103760,0.16261715
1633.69984497,0.14893052
1635.62865234,0.12260747
1637.55745972,0.14397062
1639.48626709,0.15802309
1641.41507446,0.15418577
1643.34388184,0.15830840
1645.27268921,0.14174381
1647.20149658,0.12463725
1649.13030396,0.15618843
1651.05911133,0.14625981
1652.98791870,0.09329908
1654.91672607,0.12932034
1656.84553345,0.16167924
1658.77434082,0.15472108
1660.70314819,0.15883641
1662.63195557,0.14390884
1664.56076294,0.15273900
1666.48957031,0.16350769
1668.41837769,0.14204246
1670.34718506,0.13862142
1672.27599243,0.15732473
1674.20479980,0.14442302
1676.13360718,0.13910547
1678.06241455,0.16034579
1679.99122192,0.15396582
1681.92002930,0.15211841
1683.84883667,0.12255394
1685.77764404,0.12298177
1687.70645142,0.16847901
1689.63525879,0.14508666
1691.56406616,0.16128528
1693.49287354,0.16250820
1695.42168091,0.11826686
1697.35048828,0.14729962
1699.27929565,0.12787277
1701.20810303,0.11630657
1703.13691040,0.15881249
1705.06571777,0.14472106
1706.99452515,0.14671555
1708.92333252,0.15910541
1710.85213989,0.15273944
1712.78094727,0.15553631
1714.70975464,0.14370675
1716.63856201,0.12847982
1718.56736938,0.12684280
1720.49617676,0.15139481
1722.42498413,0.15648139
1724.35379150,0.14535517
1726.28259888,0.15836480
1728.21140625,0.14544526
1730.14021362,0.14731908
1732.06902100,0.14251199
1733.99782837,0.10802172
1735.92663574,0.13609907
1737.85544312,0.14955938
1739.78425049,0.13310429
1741.71305786,0.14537939
1743.64186523,0.14696904
1745.57067261,0.14740834
1747.49947998,0.14843684
1749.42828735,0.14161190
1751.35709473,0.13557081
1753.28590210,0.15113246
1755.21470947,0.15732579
1757.14351685,0.14334644
1759.07232422,0.15833741
1761.00113159,0.14784637
1762.92993896,0.14355850
1764.85874634,0.16394679
1766.78755371,0.14677283
1768.71636108,0.14904569
1770.64516846,0.14729473
1772.57397583,0.13238156
1774.50278320,0.14842969
1776.43159058,0.15639687
1778.36039795,0.15423357
1780.28920532,0.15243900
1782.21801270,0.15364119
1784.14682007,0.15324119
1786.07562744,0.15026717
1788.00443481,0.15821965
1789.93324219,0.15358338
1791.86204956,0.13860400
1793.79085693,0.14521582
1795.71966431,0.15573834
1797.64847168,0.15355872
1799.57727905,0.15122390
1801.50608643,0.14849460
1803.43489380,0.15370062
1805.36370117,0.15691915
1807.29250854,0.15473886
1809.22131592,0.15516245
1811.15012329,0.15096432
1813.07893066,0.15596668
1815.00773804,0.15637401
1816.93654541,0.15452901
1818.86535278,0.15585268
1820.79416016,0.15532383
1822.72296753,0.15728632
1824.65177490,0.14683092
1826.58058228,0.15263031
1828.50938965,0.15225670
1830.43819702,0.14288269
1832.36700439,0.15594806
1834.29581177,0.15467016
1836.22461914,0.15445980
1838.15342651,0.15377119
1840.08223389,0.15500617
1842.01104126,0.15460919
1843.93984863,0.13685632
1845.86865601,0.14670913
1847.79746338,0.15452832
1849.72627075,0.15118235
1851.65507812,0.15563115
1853.58388550,0.15229192
1855.51269287,0.15405051
1857.44150024,0.15288177
1859.37030762,0.15203181
1861.29911499,0.15312591
1863.22792236,0.15126771
1865.15672974,0.15295064
1867.08553711,0.14741832
1869.01434448,0.14128867
1870.94315186,0.14715239
1872.87195923,0.15263572
1874.80076660,0.15014152
1876.72957397,0.15106399
1878.65838135,0.15043928
1880.58718872,0.14956674
1882.51599609,0.15096259
1884.44480347,0.14828369
1886.37361084,0.15040702
1888.30241821,0.14686933
1890.23122559,0.14403182
1892.16003296,0.14939301
1894.08884033,0.14697115
1896.01764771,0.14659204
1897.94645508,0.14811856
1899.87526245,0.14742580
1901.80406982,0.14777690
1903.73287720,0.14664620
1905.66168457,0.14737110
1907.59049194,0.14571056
1909.51929932,0.14499339
1911.44810669,0.14570884
1913.37691406,0.14576976
1915.30572144,0.14709082
1917.23452881,0.14039944
1919.16333618,0.14091647
1921.09214355,0.14599440
1923.02095093,0.14131196
1924.94975830,0.14450970
1926.87856567,0.14572567
1928.80737305,0.14393410
1930.73618042,0.14542276
1932.66498779,0.14338535
1934.59379517,0.14499834
1936.52260254,0.14385214
1938.45140991,0.14432190
1940.38021729,0.14400221
1942.30902466,0.13935745
1944.23783203,0.14214687
1946.16663940,0.14334063
1948.09544678,0.14308971
1950.02425415,0.14367121
1951.95306152,0.14319578
1953.88186890,0.14333633
1955.81067627,0.14266860
1957.73948364,0.14305994
1959.66829102,0.14255765
1961.59709839,0.14240648
1963.52590576,0.14280516
1965.45471313,0.14170519
1967.38352051,0.14034742
1969.31232788,0.14151916
1971.24113525,0.14236072
1973.16994263,0.14125809
1975.09875000,0.14191577
1977.02755737,0.14120325
1978.95636475,0.14131391
1980.88517212,0.14124531
1982.81397949,0.14045435
1984.74278687,0.14103034
1986.67159424,0.13982527
1988.60040161,0.14013751
1990.52920898,0.13871545
1992.45801636,0.13711089
1994.38682373,0.13920954
1996.31563110,0.13936129
1998.24443848,0.13876849
2000.17324585,0.13865007
2002.10205322,0.13814127
2004.03086060,0.13810098
2005.95966797,0.13784322
2007.88847534,0.13722840
2009.81728271,0.13705724
2011.74609009,0.13667080
2013.67489746,0.13669455
2015.60370483,0.13592604
2017.53251221,0.13456225
2019.46131958,0.13538061
2021.39012695,0.13524202
2023.31893433,0.13483465
2025.24774170,0.13475223
2027.17654907,0.13421059
2029.10535645,0.13419636
2031.03416382,0.13361713
2032.96297119,0.13360098
2034.89177856,0.13310184
2036.82058594,0.13269298
2038.74939331,0.13256225
2040.67820068,0.13181174
2042.60700806,0.13160866
2044.53581543,0.13133785
2046.46462280,0.13130906
2048.39343018,0.13100643
2050.32223755,0.13068306
2052.25104492,0.13053042
2054.17985229,0.13021576
2056.10865967,0.12993026
2058.03746704,0.12952873
2059.96627441,0.12925610
2061.89508179,0.12895180
2063.82388916,0.12856181
2065.75269653,0.12800330
2067.68150391,0.12827474
2069.61031128,0.12805507
2071.53911865,0.12739614
2073.46792603,0.12741745
2075.39673340,0.12702918
2077.32554077,0.12695518
2079.25434814,0.12660594
2081.18315552,0.12632695
2083.11196289,0.12617475
2085.04077026,0.12587771
2086.96957764,0.12559754
2088.89838501,0.12500571
2090.82719238,0.12497695
2092.75599976,0.12478378
2094.68480713,0.12464006
2096.61361450,0.12450081
2098.54242187,0.12416530
2100.47122925,0.12388866
2102.40003662,0.12371239
2104.32884399,0.12351280
2106.25765137,0.12311611
2108.18645874,0.12310928
2110.11526611,0.12265186
2112.04407349,0.12254612
2113.97288086,0.12223561
2115.90168823,0.12194340
2117.83049561,0.12218770
2119.75930298,0.12156503
2121.68811035,0.12156391
2123.61691772,0.12134450
2125.54572510,0.12104645
2127.47453247,0.12099972
2129.40333984,0.12084588
2131.33214722,0.12083988
2133.26095459,0.12024979
2135.18976196,0.12011877
2137.11856934,0.11998054
2139.04737671,0.11989579
2140.97618408,0.11965343
2142.90499146,0.11951832
2144.83379883,0.11952934
2146.76260620,0.11911219
2148.69141357,0.11928245
2150.62022095,0.11889710
2152.54902832,0.11866523
2154.47783569,0.11858286
2156.40664307,0.11833899
2158.33545044,0.11831003
2160.26425781,0.11803755
2162.19306519,0.11803798
2164.12187256,0.11764660
2166.05067993,0.11759193
2167.97948730,0.11754037
2169.90829468,0.11735620
2171.83710205,0.11728025
2173.76590942,0.11703801
2175.69471680,0.11703674
2177.62352417,0.11653414
2179.55233154,0.11648507
2181.48113892,0.11637843
2183.40994629,0.11617167
2185.33875366,0.11621192
2187.26756104,0.11571090
2189.19636841,0.11570209
2191.12517578,0.11567824
2193.05398315,0.11545084
2194.98279053,0.11538108
2196.91159790,0.11514225
2198.84040527,0.11497921
2200.76921265,0.11488029
2202.69802002,0.11450072
2204.62682739,0.11445931
2206.55563477,0.11454932
2208.48444214,0.11420429
2210.41324951,0.11421677
2212.34205688,0.11404386
2214.27086426,0.11382848
2216.19967163,0.11366575
2218.12847900,0.11355022
2220.05728638,0.11344520
2221.98609375,0.11303887
2223.91490112,0.11308669
2225.84370850,0.11288206
2227.77251587,0.11268793
2229.70132324,0.11250849
2231.63013062,0.11229116
2233.55893799,0.11221308
2235.48774536,0.11193639
2237.41655273,0.11182376
2239.34536011,0.11140835
2241.27416748,0.11138441
2243.20297485,0.11122806
2245.13178223,0.11094953
2247.06058960,0.11092345
2248.98939697,0.11062978
2250.91820435,0.11055569
2252.84701172,0.11017159
2254.77581909,0.11009584
2256.70462646,0.10992631
2258.63343384,0.10966929
2260.56224121,0.10961370
2262.49104858,0.10927825
2264.41985596,0.10933234
2266.34866333,0.10909799
2268.27747070,0.10880865
2270.20627808,0.10872012
2272.13508545,0.10870047
2274.06389282,0.10848324
2275.99270020,0.10824421
2277.92150757,0.10828397
2279.85031494,0.10799989
2281.77912231,0.10794685
2283.70792969,0.10781106
2285.63673706,0.10760272
2287.56554443,0.10740937
2289.49435181,0.10710221
2291.42315918,0.10675518
2293.35196655,0.10639553
2295.28077393,0.10614690
2297.20958130,0.10567079
2299.13838867,0.10548526
2301.06719604,0.10494572
2302.99600342,0.10439344
2304.92481079,0.10399614
2306.85361816,0.10316180
2308.78242554,0.10246299
2310.71123291,0.10150997
2312.64004028,0.10050346
2314.56884766,0.09941770
2316.49765503,0.09827967
2318.42646240,0.09687998
2320.35526978,0.09559111
2322.28407715,0.09429455
2324.21288452,0.09279844
2326.14169189,0.09204140
2328.07049927,0.09084552
2329.99930664,0.08963430
2331.92811401,0.08879054
2333.85692139,0.08834083
2335.78572876,0.08810557
2337.71453613,0.08785638
2339.64334351,0.08795126
2341.57215088,0.08810008
2343.50095825,0.08950957
2345.42976562,0.09122905
2347.35857300,0.09518982
2349.28738037,0.09830353
2351.21618774,0.09457834
2353.14499512,0.08976015
2355.07380249,0.08625472
2357.00260986,0.08349957
2358.93141724,0.08199961
2360.86022461,0.08100885
2362.78903198,0.08089305
2364.71783936,0.08130330
2366.64664673,0.08256698
2368.57545410,0.08408204
2370.50426147,0.08625712
2372.43306885,0.08889246
2374.36187622,0.09139235
2376.29068359,0.09387271
2378.21949097,0.09589832
2380.14829834,0.09771493
2382.07710571,0.09875168
2384.00591309,0.09932125
2385.93472046,0.09961466
2387.86352783,0.09977798
2389.79233521,0.09971498
2391.72114258,0.09956306
2393.64994995,0.09946021
2395.57875732,0.09912313
2397.50756470,0.09910204
2399.43637207,0.09873427
2401.36517944,0.09877707
2403.29398682,0.09864993
2405.22279419,0.09831583
2407.15160156,0.09846444
2409.08040894,0.09801447
2411.00921631,0.09806818
2412.93802368,0.09795044
2414.86683105,0.09774625
2416.79563843,0.09770701
2418.72444580,0.09748335
2420.65325317,0.09748469
2422.58206055,0.09714772
2424.51086792,0.09707852
2426.43967529,0.09684062
2428.36848267,0.09673513
2430.29729004,0.09664640
2432.22609741,0.09635861
2434.15490479,0.09635283
2436.08371216,0.09612922
2438.01251953,0.09613857
2439.94132690,0.09593636
2441.87013428,0.09576811
2443.79894165,0.09564260
2445.72774902,0.09539478
2447.65655640,0.09532653
2449.58536377,0.09520011
2451.51417114,0.09513921
2453.44297852,0.09489599
2455.37178589,0.09484128
2457.30059326,0.09474654
2459.22940063,0.09458087
2461.15820801,0.09429882
2463.08701538,0.09413970
2465.01582275,0.09413828
2466.94463013,0.09380129
2468.87343750,0.09398983
2470.80224487,0.09380814
2472.73105225,0.09344989
2474.65985962,0.09343101
2476.58866699,0.09332135
2478.51747437,0.09330991
2480.44628174,0.09291142
2482.37508911,0.09273565
2484.30389648,0.09266105
2486.23270386,0.09252739
2488.16151123,0.09238401
2490.09031860,0.09218551
2492.01912598,0.09212555
2493.94793335,0.09190791
2495.87674072,0.09176421
2497.80554810,0.09157930
2499.73435547,0.09153967
2501.66316284,0.09148699
2503.59197021,0.09138081
2505.52077759,0.09125122
2507.44958496,0.09108596
2509.37839233,0.09103946
2511.30719971,0.09067850
2513.23600708,0.09061635
2515.16481445,0.09054829
2517.09362183,0.09041336
2519.02242920,0.09047973
2520.95123657,0.09016700
2522.88004395,0.08996180
2524.80885132,0.08987085
2526.73765869,0.08972225
2528.66646606,0.08967822
2530.59527344,0.08959360
2532.52408081,0.08936223
2534.45288818,0.08929665
2536.38169556,0.08915455
2538.31050293,0.08895370
2540.23931030,0.08892964
2542.16811768,0.08868270
2544.09692505,0.08865120
2546.02573242,0.08854203
2547.95453979,0.08833089
2549.88334717,0.08818696
2551.81215454,0.08798921
2553.74096191,0.08795999
2555.66976929,0.08774179
2557.59857666,0.08767983
2559.52738403,0.08762252
2561.45619141,0.08750792
2563.38499878,0.08741008
2565.31380615,0.08715914
2567.24261353,0.08703831
2569.17142090,0.08691794
2571.10022827,0.08672845
2573.02903564,0.08650702
2574.95784302,0.08651097
2576.88665039,0.08639951
2578.81545776,0.08632563
2580.74426514,0.08624807
2582.67307251,0.08599640
2584.60187988,0.08599599
2586.53068726,0.08570179
2588.45949463,0.08561114
2590.38830200,0.08550727
2592.31710937,0.08531733
2594.24591675,0.08536188
2596.17472412,0.08504704
2598.10353149,0.08498271
2600.03233887,0.08486632
2601.96114624,0.08464802
2603.88995361,0.08455218
2605.81876099,0.08440170
2607.74756836,0.08441393
2609.67637573,0.08426217
2611.60518311,0.08407867
2613.53399048,0.08397874
2615.46279785,0.08381812
2617.39160522,0.08365420
2619.32041260,0.08358130
2621.24921997,0.08340354
2623.17802734,0.08324917
2625.10683472,0.08315271
2627.03564209,0.08301625
2628.96444946,0.08301249
2630.89325684,0.08274627
2632.82206421,0.08263112
2634.75087158,0.08264520
2636.67967895,0.08242194
2638.60848633,0.08233893
2640.53729370,0.08224710
2642.46610107,0.08202979
2644.39490845,0.08188268
2646.32371582,0.08192726
2648.25252319,0.08175347
2650.18133057,0.08150561
2652.11013794,0.08136383
2654.03894531,0.08125459
2655.96775269,0.08123904
2657.89656006,0.08101512
2659.82536743,0.08084959
2661.75417480,0.08073372
2663.68298218,0.08064705
2665.61178955,0.08065213
2667.54059692,0.08049829
2669.46940430,0.08022296
2671.39821167,0.08009876
2673.32701904,0.08005561
2675.25582642,0.07989149
2677.18463379,0.07990445
2679.11344116,0.07963409
2681.04224854,0.07933764
2682.97105591,0.07940690
2684.89986328,0.07926783
2686.82867065,0.07910579
2688.75747803,0.07901496
2690.68628540,0.07888786
2692.61509277,0.07867345
2694.54390015,0.07856533
2696.47270752,0.07847309
2698.40151489,0.07836189
2700.33032227,0.07829859
2702.25912964,0.07814327
2704.18793701,0.07800929
2706.11674438,0.07777959
2708.04555176,0.07773486
2709.97435913,0.07763216
2711.90316650,0.07752471
2713.83197388,0.07742549
2715.76078125,0.07724455
2717.68958862,0.07728367
2719.61839600,0.07689872
2721.54720337,0.07678251
2723.47601074,0.07681057
2725.40481812,0.07649458
2727.33362549,0.07639445
2729.26243286,0.07626901
2731.19124023,0.07619204
2733.12004761,0.07595427
2735.04885498,0.07586168
2736.97766235,0.07585635
2738.90646973,0.07565082
2740.83527710,0.07551861
2742.76408447,0.07539175
2744.69289185,0.07531969
2746.62169922,0.07510453
2748.55050659,0.07496442
2750.47931396,0.07483177
2752.40812134,0.07472339
2754.33692871,0.07464620
2756.26573608,0.07449511
2758.19454346,0.07444809
2760.12335083,0.07423332
2762.05215820,0.07410249
2763.98096558,0.07400930
2765.90977295,0.07388487
2767.83858032,0.07370249
2769.76738770,0.07352608
2771.69619507,0.07351464
2773.62500244,0.07338352
2775.55380981,0.07322347
2777.48261719,0.07304789
2779.41142456,0.07290794
2781.34023193,0.07261705
2783.26903931,0.07252114
2785.19784668,0.07254876
2787.12665405,0.07233304
2789.05546143,0.07218544
2790.98426880,0.07194743
2792.91307617,0.07194030
2794.84188354,0.07180142
2796.77069092,0.07165308
2798.69949829,0.07154275
2800.62830566,0.07120507
2802.55711304,0.07127039
2804.48592041,0.07107762
2806.41472778,0.07085347
2808.34353516,0.07077029
2810.27234253,0.07062083
2812.20114990,0.07062313
2814.12995728,0.07036787
2816.05876465,0.07019649
2817.98757202,0.07008775
2819.91637939,0.06987272
2821.84518677,0.06976263
2823.77399414,0.06969559
2825.70280151,0.06947698
2827.63160889,0.06925800
2829.56041626,0.06917442
2831.48922363,0.06908008
2833.41803101,0.06890026
2835.34683838,0.06868450
2837.27564575,0.06858975
2839.20445312,0.06825738
2841.13326050,0.06805506
2843.06206787,0.06786959
2844.99087524,0.06751101
2846.91968262,0.06720565
2848.84848999,0.06666057
2850.77729736,0.06657541
2852.70610474,0.06648966
2854.63491211,0.06641794
2856.56371948,0.06643195
2858.49252686,0.06613393
2860.42133423,0.06619477
2862.35014160,0.06600847
2864.27894897,0.06592349
2866.20775635,0.06592937
2868.13656372,0.06566809
2870.06537109,0.06564270
2871.99417847,0.06556964
2873.92298584,0.06540564
2875.85179321,0.06518812
2877.78060059,0.06524119
2879.70940796,0.06513971
2881.63821533,0.06495121
2883.56702270,0.06496914
2885.49583008,0.06472835
2887.42463745,0.06462429
2889.35344482,0.06449091
2891.28225220,0.06429202
2893.21105957,0.06420884
2895.13986694,0.06398789
2897.06867432,0.06370048
2898.99748169,0.06360571
2900.92628906,0.06352448
2902.85509644,0.06333497
2904.78390381,0.06310013
2906.71271118,0.06274394
2908.64151855,0.06272941
2910.57032593,0.06256206
2912.49913330,0.06212810
2914.42794067,0.06180508
2916.35674805,0.06147604
2918.28555542,0.06140031
2920.21436279,0.06129950
2922.14317017,0.06125513
2924.07197754,0.06104355
2926.00078491,0.06085417
2927.92959229,0.06091870
2929.85839966,0.06080288
2931.78720703,0.06086992
2933.71601440,0.06086197
2935.64482178,0.06081080
2937.57362915,0.06071914
2939.50243652,0.06059354
2941.43124390,0.06067129
2943.36005127,0.06059370
2945.28885864,0.06059580
2947.21766602,0.06048713
2949.14647339,0.06028258
2951.07528076,0.06024696
2953.00408813,0.06000250
2954.93289551,0.05983812
2956.86170288,0.05976841
2958.79051025,0.05946620
2960.71931763,0.05944947
2962.64812500,0.05934888
2964.57693237,0.05899579
2966.50573975,0.05908704
2968.43454712,0.05901307
2970.36335449,0.05898979
2972.29216187,0.05916380
2974.22096924,0.05906536
2976.14977661,0.05913275
2978.07858398,0.05920974
2980.00739136,0.05912859
2981.93619873,0.05899590
2983.86500610,0.05902631
2985.79381348,0.05897616
2987.72262085,0.05892383
2989.65142822,0.05891986
2991.58023560,0.05858284
2993.50904297,0.05852725
2995.43785034,0.05845790
2997.36665771,0.05834559
2999.29546509,0.05837918
3001.22427246,0.05824742
3003.15307983,0.05815803
3005.08188721,0.05797456
3007.01069458,0.05790555
3008.93950195,0.05777634
3010.86830933,0.05746962
3012.79711670,0.05727383
3014.72592407,0.05720004
3016.65473145,0.05716388
3018.58353882,0.05712257
3020.51234619,0.05715800
3022.44115356,0.05695461
3024.36996094,0.05671442
3026.29876831,0.05657699
3028.22757568,0.05641503
3030.15638306,0.05623049
3032.08519043,0.05609494
3034.01399780,0.05606416
3035.94280518,0.05595630
3037.87161255,0.05590592
3039.80041992,0.05567167
3041.72922729,0.05554850
3043.65803467,0.05555003
3045.58684204,0.05536641
3047.51564941,0.05527179
3049.44445679,0.05500812
3051.37326416,0.05497308
3053.30207153,0.05499354
3055.23087891,0.05468417
3057.15968628,0.05448958
3059.08849365,0.05446821
3061.01730103,0.05448420
3062.94610840,0.05428335
3064.87491577,0.05404198
3066.80372314,0.05392906
3068.73253052,0.05390343
3070.66133789,0.05380176
3072.59014526,0.05368040
3074.51895264,0.05368269
3076.44776001,0.05354437
3078.37656738,0.05330077
3080.30537476,0.05309740
3082.23418213,0.05308237
3084.16298950,0.05305507
3086.09179687,0.05292242
3088.02060425,0.05284480
3089.94941162,0.05276201
3091.87821899,0.05264344
3093.80702637,0.05247520
3095.73583374,0.05234184
3097.66464111,0.05221280
3099.59344849,0.05207587
3101.52225586,0.05185022
3103.45106323,0.05181297
3105.37987061,0.05183973
3107.30867798,0.05163177
3109.23748535,0.05154098
3111.16629272,0.05138144
3113.09510010,0.05122654
3115.02390747,0.05102781
3116.95271484,0.05080257
3118.88152222,0.05075132
3120.81032959,0.05064786
3122.73913696,0.05050671
3124.66794434,0.05039574
3126.59675171,0.05039867
3128.52555908,0.05017383
3130.45436645,0.04998759
3132.38317383,0.04989261
3134.31198120,0.04971766
3136.24078857,0.04969265
3138.16959595,0.04946260
3140.09840332,0.04935714
3142.02721069,0.04927132
3143.95601807,0.04909448
3145.88482544,0.04897235
3147.81363281,0.04879302
3149.74244019,0.04862614
3151.67124756,0.04837049
3153.60005493,0.04832090
3155.52886230,0.04820551
3157.45766968,0.04811337
3159.38647705,0.04803085
3161.31528442,0.04784292
3163.24409180,0.04780737
3165.17289917,0.04759067
3167.10170654,0.04740633
3169.03051392,0.04722038
3170.95932129,0.04714294
3172.88812866,0.04697834
3174.81693604,0.04678513
3176.74574341,0.04676812
3178.67455078,0.04643286
3180.60335815,0.04644625
3182.53216553,0.04643386
3184.46097290,0.04613297
3186.38978027,0.04610655
3188.31858765,0.04602095
3190.24739502,0.04585315
3192.17620239,0.04569143
3194.10500977,0.04553576
3196.03381714,0.04543187
3197.96262451,0.04538456
3199.89143188,0.04518853
3201.82023926,0.04515907
3203.74904663,0.04507933
3205.67785400,0.04482287
3207.60666138,0.04489596
3209.53546875,0.04474887
3211.46427612,0.04453416
3213.39308350,0.04446567
3215.32189087,0.04441087
3217.25069824,0.04427791
3219.17950562,0.04405262
3221.10831299,0.04400678
3223.03712036,0.04397982
3224.96592773,0.04395378
3226.89473511,0.04380492
3228.82354248,0.04371900
3230.75234985,0.04359403
3232.68115723,0.04349547
3234.60996460,0.04351505
3236.53877197,0.04345379
3238.46757935,0.04344467
3240.39638672,0.04324855
3242.32519409,0.04335172
3244.25400146,0.04321261
3246.18280884,0.04292662
3248.11161621,0.04306803
3250.04042358,0.04291249
3251.96923096,0.04295398
3253.89803833,0.04286271
3255.82684570,0.04266564
3257.75565308,0.04268344
3259.68446045,0.04263909
3261.61326782,0.04258881
3263.54207520,0.04237917
3265.47088257,0.04240635
3267.39968994,0.04242542
3269.32849731,0.04234653
3271.25730469,0.04223404
3273.18611206,0.04209362
3275.11491943,0.04202104
3277.04372681,0.04196844
3278.97253418,0.04205861
3280.90134155,0.04199009
3282.83014893,0.04189125
3284.75895630,0.04179652
3286.68776367,0.04183967
3288.61657104,0.04175182
3290.54537842,0.04157139
3292.47418579,0.04156969
3294.40299316,0.04136129
3296.33180054,0.04142332
3298.26060791,0.04139701
3300.18941528,0.04134296
3302.11822266,0.04134803
3304.04703003,0.04117683
3305.97583740,0.04113953
3307.90464478,0.04097563
3309.83345215,0.04101725
3311.76225952,0.04096565
3313.69106689,0.04089205
3315.61987427,0.04090757
3317.54868164,0.04083705
3319.47748901,0.04089794
3321.40629639,0.04072574
3323.33510376,0.04062288
3325.26391113,0.04053332
3327.19271851,0.04045200
3329.12152588,0.04045779
3331.05033325,0.04043252
3332.97914062,0.04038251
3334.90794800,0.04020782
3336.83675537,0.04012247
3338.76556274,0.04009002
3340.69437012,0.04008371
3342.62317749,0.03994808
3344.55198486,0.03989755
3346.48079224,0.03986697
3348.40959961,0.03980751
3350.33840698,0.03968086
3352.26721436,0.03951363
3354.19602173,0.03957612
3356.12482910,0.03937974
3358.05363647,0.03943978
3359.98244385,0.03932988
3361.91125122,0.03914736
3363.84005859,0.03917238
3365.76886597,0.03887990
3367.69767334,0.03897835
3369.62648071,0.03879236
3371.55528809,0.03882681
3373.48409546,0.03899403
3375.41290283,0.03876942
3377.34171020,0.03866971
3379.27051758,0.03848267
3381.19932495,0.03857322
3383.12813232,0.03831946
3385.05693970,0.03821936
3386.98574707,0.03824383
3388.91455444,0.03810097
3390.84336182,0.03797659
3392.77216919,0.03773790
3394.70097656,0.03797802
3396.62978394,0.03773224
3398.55859131,0.03757978
3400.48739868,0.03752267
3402.41620605,0.03742790
3404.34501343,0.03764001
3406.27382080,0.03740124
3408.20262817,0.03740850
3410.13143555,0.03722829
3412.06024292,0.03721885
3413.98905029,0.03726684
3415.91785767,0.03709209
3417.84666504,0.03704641
3419.77547241,0.03667169
3421.70427979,0.03666160
3423.63308716,0.03665771
3425.56189453,0.03674839
3427.49070190,0.03675059
3429.41950928,0.03646699
3431.34831665,0.03634321
3433.27712402,0.03630627
3435.20593140,0.03630354
3437.13473877,0.03608978
3439.06354614,0.03626631
3440.99235352,0.03602423
3442.92116089,0.03583409
3444.84996826,0.03597126
3446.77877563,0.03544172
3448.70758301,0.03557679
3450.63639038,0.03591059
3452.56519775,0.03574427
3454.49400513,0.03567140
3456.42281250,0.03567715
3458.35161987,0.03557502
3460.28042725,0.03549673
3462.20923462,0.03532496
3464.13804199,0.03522664
3466.06684937,0.03529219
3467.99565674,0.03507140
3469.92446411,0.03519697
3471.85327148,0.03522143
3473.78207886,0.03510694
3475.71088623,0.03498986
3477.63969360,0.03495931
3479.56850098,0.03501397
3481.49730835,0.03452505
3483.42611572,0.03476562
3485.35492310,0.03488252
3487.28373047,0.03459774
3489.21253784,0.03466262
3491.14134521,0.03475048
3493.07015259,0.03487111
3494.99895996,0.03459470
3496.92776733,0.03456753
3498.85657471,0.03460158
3500.78538208,0.03461242
3502.71418945,0.03400100
3504.64299683,0.03393865
3506.57180420,0.03480603
3508.50061157,0.03422279
3510.42941895,0.03409649
3512.35822632,0.03441804
3514.28703369,0.03446350
3516.21584106,0.03446649
3518.14464844,0.03422900
3520.07345581,0.03448865
3522.00226318,0.03402754
3523.93107056,0.03357289
3525.85987793,0.03375806
3527.78868530,0.03385726
3529.71749268,0.03378497
3531.64630005,0.03402974
3533.57510742,0.03443718
3535.50391479,0.03396935
3537.43272217,0.03380368
3539.36152954,0.03420716
3541.29033691,0.03423427
3543.21914429,0.03390441
3545.14795166,0.03308004
3547.07675903,0.03256726
3549.00556641,0.03380633
3550.93437378,0.03403651
3552.86318115,0.03311127
3554.79198853,0.03388418
3556.72079590,0.03396523
3558.64960327,0.03379832
3560.57841064,0.03345248
3562.50721802,0.03324075
3564.43602539,0.03362381
3566.36483276,0.03131339
3568.29364014,0.03059460
3570.22244751,0.03310735
3572.15125488,0.03394096
3574.08006226,0.03346755
3576.00886963,0.03358085
3577.93767700,0.03354347
3579.86648437,0.03342773
3581.79529175,0.03337490
3583.72409912,0.03343318
3585.65290649,0.03272908
3587.58171387,0.03013201
3589.51052124,0.03108074
3591.43932861,0.03362293
3593.36813599,0.03261763
3595.29694336,0.03204796
3597.22575073,0.03266103
3599.15455811,0.03299366
3601.08336548,0.03263310
3603.01217285,0.03299139
3604.94098022,0.03344385
3606.86978760,0.03221974
3608.79859497,0.03042538
3610.72740234,0.03110906
3612.65620972,0.03177302
3614.58501709,0.03089681
3616.51382446,0.03314923
3618.44263184,0.03048125
3620.37143921,0.02958168
3622.30024658,0.03335422
3624.22905395,0.03239799
3626.15786133,0.03386267
3628.08666870,0.02855528
3630.01547607,0.02623931
3631.94428345,0.03289973
3633.87309082,0.03202762
3635.80189819,0.03253229
3637.73070557,0.03314644
3639.65951294,0.03282930
3641.58832031,0.03299224
3643.51712769,0.03259469
3645.44593506,0.03279979
3647.37474243,0.02944819
3649.30354980,0.02709712
3651.23235718,0.02744271
3653.16116455,0.03269458
3655.08997192,0.03195901
3657.01877930,0.02883043
3658.94758667,0.03322253
3660.87639404,0.03227332
3662.80520142,0.03283931
3664.73400879,0.03260509
3666.66281616,0.03239019
3668.59162354,0.03127563
3670.52043091,0.02560226
3672.44923828,0.03106559
3674.37804565,0.02926284
3676.30685303,0.02464004
3678.23566040,0.03085709
3680.16446777,0.03138512
3682.09327515,0.03158347
3684.02208252,0.03238618
3685.95088989,0.03186335
3687.87969727,0.02863650
3689.80850464,0.02633844
3691.73731201,0.03001013
3693.66611938,0.03093978
3695.59492676,0.03159289
3697.52373413,0.03148508
3699.45254150,0.03142493
3701.38134888,0.03047112
3703.31015625,0.02939915
3705.23896362,0.03225286
3707.16777100,0.03057462
3709.09657837,0.03003385
3711.02538574,0.02806373
3712.95419312,0.02643584
3714.88300049,0.03097600
3716.81180786,0.03044459
3718.74061523,0.03072729
3720.66942261,0.02996496
3722.59822998,0.02913633
3724.52703735,0.03004524
3726.45584473,0.02782427
3728.38465210,0.03025695
3730.31345947,0.02981613
3732.24226685,0.02749318
3734.17107422,0.02676830
3736.09988159,0.02544775
3738.02868896,0.02687765
3739.95749634,0.02908521
3741.88630371,0.03046694
3743.81511108,0.02359597
3745.74391846,0.02246358
3747.67272583,0.02897807
3749.60153320,0.02483869
3751.53034058,0.02306005
3753.45914795,0.02642979
3755.38795532,0.02846688
3757.31676270,0.02952394
3759.24557007,0.02725012
3761.17437744,0.02830536
3763.10318481,0.02995037
3765.03199219,0.02800994
3766.96079956,0.02867413
3768.88960693,0.02820609
3770.81841431,0.02690336
3772.74722168,0.02922585
3774.67602905,0.02936301
3776.60483643,0.02916481
3778.53364380,0.02844027
3780.46245117,0.02752564
3782.39125854,0.02907629
3784.32006592,0.02841486
3786.24887329,0.02826554
3788.17768066,0.02881984
3790.10648804,0.02872477
3792.03529541,0.02853563
3793.96410278,0.02896045
3795.89291016,0.02723608
3797.82171753,0.02700598
3799.75052490,0.02820586
3801.67933228,0.02239043
3803.60813965,0.02637954
3805.53694702,0.02839003
3807.46575439,0.02332305
3809.39456177,0.02824563
3811.32336914,0.02762629
3813.25217651,0.02853674
3815.18098389,0.02562021
3817.10979126,0.02268730
3819.03859863,0.02851025
3820.96740601,0.02297413
3822.89621338,0.02441164
3824.82502075,0.02835782
3826.75382812,0.02557308
3828.68263550,0.02758889
3830.61144287,0.02647987
3832.54025024,0.02554004
3834.46905762,0.02608395
3836.39786499,0.02486879
3838.32667236,0.02250334
3840.25547974,0.02433070
3842.18428711,0.02615166
3844.11309448,0.02493512
3846.04190186,0.02703127
3847.97070923,0.02657479
3849.89951660,0.02668721
3851.82832397,0.02390653
3853.75713135,0.01776843
3855.68593872,0.02136864
3857.61474609,0.02666905
3859.54355347,0.02584370
3861.47236084,0.02570878
3863.40116821,0.02500068
3865.32997559,0.02325904
3867.25878296,0.02607218
3869.18759033,0.02370811
3871.11639770,0.02204992
3873.04520508,0.02605284
3874.97401245,0.02382869
3876.90281982,0.02585085
3878.83162720,0.02618807
3880.76043457,0.02253496
3882.68924194,0.02596943
3884.61804932,0.02410133
3886.54685669,0.02230514
3888.47566406,0.02594909
3890.40447144,0.02440885
3892.33327881,0.02309759
3894.26208618,0.02527074
3896.19089355,0.02560611
3898.11970093,0.02437273
3900.04850830,0.02307839
3901.97731567,0.02282115
3903.90612305,0.02256902
3905.83493042,0.02289989
3907.76373779,0.02509436
3909.69254517,0.02510414
3911.62135254,0.02486033
3913.55015991,0.02529824
3915.47896728,0.02439443
3917.40777466,0.02378539
3919.33658203,0.02353285
3921.26538940,0.02436904
3923.19419678,0.02434876
3925.12300415,0.02381968
3927.05181152,0.02431718
3928.98061890,0.02452404
3930.90942627,0.02396518
3932.83823364,0.02320570
3934.76704102,0.02411328
3936.69584839,0.02436471
3938.62465576,0.02410451
3940.55346313,0.02420770
3942.48227051,0.02334088
3944.41107788,0.02361970
3946.33988525,0.02398256
3948.26869263,0.02340508
3950.19750000,0.02338274
3952.12630737,0.02373381
3954.05511475,0.02378015
3955.98392212,0.02364688
3957.91272949,0.02359549
3959.84153687,0.02361797
3961.77034424,0.02345209
3963.69915161,0.02342278
3965.62795898,0.02358522
3967.55676636,0.02330668
3969.48557373,0.02337537
3971.41438110,0.02326458
3973.34318848,0.02316645
3975.27199585,0.02320677
3977.20080322,0.02299344
3979.12961060,0.02321471
3981.05841797,0.02292511
3982.98722534,0.02293230
3984.91603271,0.02299507
3986.84484009,0.02289927
3988.77364746,0.02294271
3990.70245483,0.02257850
3992.63126221,0.02272600
3994.56006958,0.02265761
3996.48887695,0.02260703
3998.41768433,0.02261358
4000.34649170,0.02257116
4002.27529907,0.02255870
4004.20410645,0.02232727
4006.13291382,0.02242503
4008.06172119,0.02222269
4009.99052856,0.02220184
4011.91933594,0.02222804
4013.84814331,0.02221223
4015.77695068,0.02219785
4017.70575806,0.02207438
4019.63456543,0.02214232
4021.56337280,0.02194525
4023.49218018,0.02195087
4025.42098755,0.02182102
4027.34979492,0.02184824
4029.27860229,0.02185649
4031.20740967,0.02172190
4033.13621704,0.02177378
4035.06502441,0.02160562
4036.99383179,0.02170694
4038.92263916,0.02149309
4040.85144653,0.02150586
4042.78025391,0.02150513
4044.70906128,0.02129917
4046.63786865,0.02142935
4048.56667603,0.02124790
4050.49548340,0.02124249
4052.42429077,0.02111720
4054.35309814,0.02110901
4056.28190552,0.02108419
4058.21071289,0.02099763
4060.13952026,0.02106484
4062.06832764,0.02089566
4063.99713501,0.02097171
4065.92594238,0.02086437
4067.85474976,0.02077517
4069.78355713,0.02074931
4071.71236450,0.02071274
4073.64117187,0.02069830
4075.56997925,0.02065555
4077.49878662,0.02060371
4079.42759399,0.02040553
4081.35640137,0.02058072
4083.28520874,0.02046592
4085.21401611,0.02034346
4087.14282349,0.02036574
4089.07163086,0.02028757
4091.00043823,0.02032411
4092.92924561,0.02012233
4094.85805298,0.02011278
4096.78686035,0.02006338
4098.71566772,0.02006744
4100.64447510,0.02002573
4102.57328247,0.01995617
4104.50208984,0.01997455
4106.43089722,0.01983567
4108.35970459,0.01984337
4110.28851196,0.01976957
4112.21731934,0.01981899
4114.14612671,0.01969453
4116.07493408,0.01963579
4118.00374145,0.01961956
4119.93254883,0.01948861
4121.86135620,0.01959362
4123.79016357,0.01943990
4125.71897095,0.01949038
4127.64777832,0.01940664
4129.57658569,0.01930371
4131.50539307,0.01937101
4133.43420044,0.01924485
4135.36300781,0.01918924
4137.29181519,0.01909484
4139.22062256,0.01913659
4141.14942993,0.01902001
4143.07823730,0.01901761
4145.00704468,0.01901192
4146.93585205,0.01893111
4148.86465942,0.01890760
4150.79346680,0.01872481
4152.72227417,0.01873539
4154.65108154,0.01866947
4156.57988892,0.01869673
4158.50869629,0.01857873
4160.43750366,0.01857672
4162.36631103,0.01863470
4164.29511841,0.01846053
4166.22392578,0.01852033
4168.15273315,0.01838582
4170.08154053,0.01842245
4172.01034790,0.01834471
4173.93915527,0.01827048
4175.86796265,0.01828362
4177.79677002,0.01816560
4179.72557739,0.01822347
4181.65438477,0.01809874
4183.58319214,0.01817543
4185.51199951,0.01805790
4187.44080688,0.01802507
4189.36961426,0.01803564
4191.29842163,0.01790168
4193.22722900,0.01800994
4195.15603638,0.01772756
4197.08484375,0.01772364
4199.01365112,0.01775247
4200.94245850,0.01765686
4202.87126587,0.01767824
4204.80007324,0.01758814
4206.72888062,0.01760423
4208.65768799,0.01750444
4210.58649536,0.01747873
4212.51530273,0.01746374
4214.44411011,0.01747350
4216.37291748,0.01736405
4218.30172485,0.01730543
4220.23053223,0.01726083
4222.15933960,0.01713053
4224.08814697,0.01725558
4226.01695435,0.01714020
4227.94576172,0.01709359
4229.87456909,0.01704256
4231.80337646,0.01701253
4233.73218384,0.01703101
4235.66099121,0.01694776
4237.58979858,0.01698262
4239.51860596,0.01675393
4241.44741333,0.01674284
4243.37622070,0.01678442
4245.30502808,0.01672543
4247.23383545,0.01665429
4249.16264282,0.01658757
4251.09145020,0.01669214
4253.02025757,0.01656901
4254.94906494,0.01651824
4256.87787231,0.01646043
4258.80667969,0.01645236
4260.73548706,0.01644424
4262.66429443,0.01636746
4264.59310181,0.01638021
4266.52190918,0.01631305
4268.45071655,0.01629119
4270.37952393,0.01614954
4272.30833130,0.01613715
4274.23713867,0.01611504
4276.16594604,0.01609869
4278.09475342,0.01611402
4280.02356079,0.01600156
4281.95236816,0.01597405
4283.88117554,0.01586164
4285.80998291,0.01591228
4287.73879028,0.01585766
4289.66759766,0.01585465
4291.59640503,0.01582521
4293.52521240,0.01568015
4295.45401978,0.01580448
4297.38282715,0.01567151
4299.31163452,0.01560499
4301.24044189,0.01555394
4303.16924927,0.01556766
4305.09805664,0.01561139
4307.02686401,0.01545017
4308.95567139,0.01549306
4310.88447876,0.01541543
4312.81328613,0.01535094
4314.74209351,0.01532805
4316.67090088,0.01535107
4318.59970825,0.01530726
4320.52851562,0.01511272
4322.45732300,0.01511164
4324.38613037,0.01512701
4326.31493774,0.01519506
4328.24374512,0.01512119
4330.17255249,0.01500414
4332.10135986,0.01498731
4334.03016724,0.01490439
4335.95897461,0.01486886
4337.88778198,0.01489087
4339.81658936,0.01489501
4341.74539673,0.01479444
4343.67420410,0.01478734
4345.60301147,0.01472524
4347.53181885,0.01458903
4349.46062622,0.01465455
4351.38943359,0.01466437
4353.31824097,0.01451134
4355.24704834,0.01449398
4357.17585571,0.01452402
4359.10466309,0.01449742
4361.03347046,0.01447307
4362.96227783,0.01433542
4364.89108520,0.01437020
4366.81989258,0.01431779
4368.74869995,0.01426066
4370.67750732,0.01437530
4372.60631470,0.01427267
4374.53512207,0.01424181
4376.46392944,0.01412853
4378.39273682,0.01408200
4380.32154419,0.01412323
4382.25035156,0.01408799
4384.17915894,0.01407111
4386.10796631,0.01397351
4388.03677368,0.01393608
4389.96558105,0.01382555
4391.89438843,0.01393624
4393.82319580,0.01395449
4395.75200317,0.01383976
4397.68081055,0.01382492
4399.60961792,0.01369426
4401.53842529,0.01376214
4403.46723267,0.01363346
4405.39604004,0.01359532
4407.32484741,0.01362165
4409.25365478,0.01347438
4411.18246216,0.01352278
4413.11126953,0.01344334
4415.04007690,0.01338511
4416.96888428,0.01336077
4418.89769165,0.01335320
4420.82649902,0.01332588
4422.75530640,0.01328397
4424.68411377,0.01332726
4426.61292114,0.01332126
4428.54172852,0.01326658
4430.47053589,0.01317201
4432.39934326,0.01320129
4434.32815063,0.01310540
4436.25695801,0.01307561
4438.18576538,0.01314870
4440.11457275,0.01304519
4442.04338013,0.01297299
4443.97218750,0.01298450
4445.90099487,0.01300090
4447.82980225,0.01284710
4449.75860962,0.01291947
4451.68741699,0.01285323
4453.61622437,0.01265953
4455.54503174,0.01281463
4457.47383911,0.01268523
4459.40264648,0.01266110
4461.33145386,0.01272404
4463.26026123,0.01262349
4465.18906860,0.01264325
4467.11787598,0.01253567
4469.04668335,0.01247405
4470.97549072,0.01247668
4472.90429810,0.01241557
4474.83310547,0.01241851
4476.76191284,0.01244370
4478.69072021,0.01241271
4480.61952759,0.01233440
4482.54833496,0.01232732
4484.47714233,0.01233794
4486.40594971,0.01222676
4488.33475708,0.01226594
4490.26356445,0.01227594
4492.19237183,0.01216066
4494.12117920,0.01214842
4496.04998657,0.01200167
4497.97879395,0.01204349
4499.90760132,0.01205377
4501.83640869,0.01195025
4503.76521606,0.01199452
4505.69402344,0.01193018
4507.62283081,0.01196349
4509.55163818,0.01190343
4511.48044556,0.01187209
4513.40925293,0.01184628
4515.33806030,0.01178266
4517.26686768,0.01176451
4519.19567505,0.01167199
4521.12448242,0.01176417
4523.05328979,0.01166720
4524.98209717,0.01162084
4526.91090454,0.01159929
4528.83971191,0.01150320
4530.76851929,0.01155938
4532.69732666,0.01149091
4534.62613403,0.01153157
4536.55494141,0.01148819
4538.48374878,0.01142170
4540.41255615,0.01135305
4542.34136353,0.01132315
4544.27017090,0.01138363
4546.19897827,0.01131905
4548.12778564,0.01130646
4550.05659302,0.01122537
4551.98540039,0.01124079
4553.91420776,0.01116646
4555.84301514,0.01117661
4557.77182251,0.01122865
4559.70062988,0.01105995
4561.62943726,0.01109502
4563.55824463,0.01104322
4565.48705200,0.01101071
4567.41585937,0.01099944
4569.34466675,0.01097674
4571.27347412,0.01087277
4573.20228149,0.01086291
4575.13108887,0.01099663
4577.05989624,0.01078520
4578.98870361,0.01083960
4580.91751099,0.01078263
4582.84631836,0.01064681
4584.77512573,0.01072327
4586.70393311,0.01060414
4588.63274048,0.01067560
4590.56154785,0.01063399
4592.49035522,0.01057026
4594.41916260,0.01058176
4596.34796997,0.01052958
4598.27677734,0.01054997
4600.20558472,0.01049419
4602.13439209,0.01042767
4604.06319946,0.01042815
4605.99200684,0.01046812
4607.92081421,0.01042445
4609.84962158,0.01041390
4611.77842895,0.01033284
4613.70723633,0.01024681
4615.63604370,0.01029553
4617.56485107,0.01026885
4619.49365845,0.01021888
4621.42246582,0.01023982
4623.35127319,0.01024639
4625.28008057,0.01013338
4627.20888794,0.01014493
4629.13769531,0.01005882
4631.06650269,0.00995635
4632.99531006,0.01001223
4634.92411743,0.01000826
4636.85292480,0.01000074
4638.78173218,0.00988438
4640.71053955,0.00991577
4642.63934692,0.00985328
4644.56815430,0.00983858
4646.49696167,0.00982219
4648.42576904,0.00969603
4650.35457642,0.00994939
4652.28338379,0.00979929
4654.21219116,0.00966464
4656.14099853,0.00972995
4658.06980591,0.00958508
4659.99861328,0.00968283
4661.92742065,0.00968717
4663.85622803,0.00960524
4665.78503540,0.00955206
4667.71384277,0.00951541
4669.64265015,0.00953165
4671.57145752,0.00956721
4673.50026489,0.00947528
4675.42907227,0.00939527
4677.35787964,0.00947231
4679.28668701,0.00939258
4681.21549438,0.00933166
4683.14430176,0.00934519
4685.07310913,0.00939402
4687.00191650,0.00928816
4688.93072388,0.00922791
4690.85953125,0.00933065
4692.78833862,0.00927424
4694.71714600,0.00921967
4696.64595337,0.00917747
4698.57476074,0.00918890
4700.50356812,0.00904692
4702.43237549,0.00910753
4704.36118286,0.00919549
4706.28999023,0.00901528
4708.21879761,0.00907353
4710.14760498,0.00898740
4712.07641235,0.00895324
4714.00521973,0.00892669
4715.93402710,0.00889534
4717.86283447,0.00897389
4719.79164185,0.00897573
4721.72044922,0.00899396
4723.64925659,0.00886186
4725.57806396,0.00884147
4727.50687134,0.00878233
4729.43567871,0.00880407
4731.36448608,0.00874225
4733.29329346,0.00871931
4735.22210083,0.00884353
4737.15090820,0.00857909
4739.07971558,0.00872376
4741.00852295,0.00875975
4742.93733032,0.00855534
4744.86613770,0.00864002
4746.79494507,0.00863298
4748.72375244,0.00858851
4750.65255981,0.00849071
4752.58136719,0.00855446
4754.51017456,0.00854328
4756.43898193,0.00854090
4758.36778931,0.00850402
4760.29659668,0.00842793
4762.22540405,0.00840895
4764.15421143,0.00832188
4766.08301880,0.00842819
4768.01182617,0.00831322
4769.94063354,0.00832657
4771.86944092,0.00833457
4773.79824829,0.00820011
4775.72705566,0.00823218
4777.65586304,0.00820870
4779.58467041,0.00827419
4781.51347778,0.00813864
4783.44228516,0.00818640
4785.37109253,0.00821042
4787.29989990,0.00813042
4789.22870728,0.00818028
4791.15751465,0.00804097
4793.08632202,0.00806188
4795.01512939,0.00801667
4796.94393677,0.00803610
4798.87274414,0.00803175
4800.80155151,0.00800033
4802.73035889,0.00800227
4804.65916626,0.00793974
4806.58797363,0.00800707
4808.51678101,0.00784849
4810.44558838,0.00791113
4812.37439575,0.00790732
4814.30320312,0.00780211
4816.23201050,0.00790238
4818.16081787,0.00783304
4820.08962524,0.00782279
4822.01843262,0.00771801
4823.94723999,0.00773322
4825.87604736,0.00772522
4827.80485474,0.00764358
4829.73366211,0.00767286
4831.66246948,0.00763374
4833.59127686,0.00766162
4835.52008423,0.00758158
4837.44889160,0.00757843
4839.37769897,0.00757469
4841.30650635,0.00756499
4843.23531372,0.00754779
4845.16412109,0.00744889
4847.09292847,0.00753897
4849.02173584,0.00749300
4850.95054321,0.00742507
4852.87935059,0.00745728
4854.80815796,0.00741607
4856.73696533,0.00737906
4858.66577270,0.00737573
4860.59458008,0.00735306
4862.52338745,0.00731437
4864.45219482,0.00730413
4866.38100220,0.00723806
4868.30980957,0.00726661
4870.23861694,0.00731421
4872.16742432,0.00718911
4874.09623169,0.00711985
4876.02503906,0.00721786
4877.95384644,0.00720795
4879.88265381,0.00721639
4881.81146118,0.00724120
4883.74026855,0.00711496
4885.66907593,0.00716721
4887.59788330,0.00711688
4889.52669067,0.00702908
4891.45549805,0.00701906
4893.38430542,0.00698226
4895.31311279,0.00701158
4897.24192017,0.00694448
4899.17072754,0.00700708
4901.09953491,0.00695233
4903.02834228,0.00691765
4904.95714966,0.00694767
4906.88595703,0.00687308
4908.81476440,0.00689829
4910.74357178,0.00676294
4912.67237915,0.00683019
4914.60118652,0.00681441
4916.52999390,0.00668614
4918.45880127,0.00676201
4920.38760864,0.00668816
4922.31641602,0.00673086
4924.24522339,0.00671444
4926.17403076,0.00668017
4928.10283813,0.00668226
4930.03164551,0.00660365
4931.96045288,0.00667244
4933.88926025,0.00665106
4935.81806763,0.00659592
4937.74687500,0.00660079
4939.67568237,0.00656842
4941.60448975,0.00655615
4943.53329712,0.00652859
4945.46210449,0.00651846
4947.39091187,0.00653585
4949.31971924,0.00648657
4951.24852661,0.00645171
4953.17733398,0.00640345
4955.10614136,0.00637749
4957.03494873,0.00641439
4958.96375610,0.00637348
4960.89256348,0.00637464
4962.82137085,0.00633383
4964.75017822,0.00634779
4966.67898560,0.00635103
4968.60779297,0.00624479
4970.53660034,0.00629001
4972.46540771,0.00626627
4974.39421509,0.00620058
4976.32302246,0.00623434
4978.25182983,0.00633879
4980.18063721,0.00622846
4982.10944458,0.00612376
4984.03825195,0.00625591
4985.96705933,0.00615176
4987.89586670,0.00610019
4989.82467407,0.00605220
4991.75348145,0.00603060
4993.68228882,0.00608131
4995.61109619,0.00597199
4997.53990356,0.00600186
4999.46871094,0.00602173
5001.39751831,0.00602523
5003.32632568,0.00597919
5005.25513306,0.00592495
5007.18394043,0.00590177
5009.11274780,0.00587754
5011.04155518,0.00592747
5012.97036255,0.00586186
5014.89916992,0.00584641
5016.82797729,0.00578915
5018.75678467,0.00583852
5020.68559204,0.00590785
5022.61439941,0.00572960
5024.54320679,0.00575605
5026.47201416,0.00581541
5028.40082153,0.00574589
5030.32962891,0.00572373
5032.25843628,0.00574541
5034.18724365,0.00575108
5036.11605103,0.00571891
5038.04485840,0.00565136
5039.97366577,0.00563386
5041.90247314,0.00567937
5043.83128052,0.00566931
5045.76008789,0.00566112
5047.68889526,0.00558766
5049.61770264,0.00557429
5051.54651001,0.00555229
5053.47531738,0.00551428
5055.40412476,0.00558687
5057.33293213,0.00553958
5059.26173950,0.00551189
5061.19054687,0.00553701
5063.11935425,0.00552769
5065.04816162,0.00547481
5066.97696899,0.00545981
5068.90577637,0.00543160
5070.83458374,0.00539177
5072.76339111,0.00539954
5074.69219849,0.00530807
5076.62100586,0.00533637
5078.54981323,0.00535534
5080.47862061,0.00533763
5082.40742798,0.00528277
5084.33623535,0.00525052
5086.26504272,0.00532295
5088.19385010,0.00524961
5090.12265747,0.00525971
5092.05146484,0.00521108
5093.98027222,0.00527301
5095.90907959,0.00530433
5097.83788696,0.00516786
5099.76669434,0.00523437
5101.69550171,0.00518013
5103.62430908,0.00520586
5105.55311645,0.00513391
5107.48192383,0.00503365
5109.41073120,0.00511958
5111.33953857,0.00510506
5113.26834595,0.00511488
5115.19715332,0.00507765
5117.12596069,0.00512797
5119.05476807,0.00507368
5120.98357544,0.00498912
5122.91238281,0.00501609
5124.84119019,0.00502550
5126.76999756,0.00508345
5128.69880493,0.00498883
5130.62761230,0.00496211
5132.55641968,0.00500027
5134.48522705,0.00495039
5136.41403442,0.00490443
5138.34284180,0.00496290
5140.27164917,0.00488671
5142.20045654,0.00481090
5144.12926392,0.00498888
5146.05807129,0.00492547
5147.98687866,0.00490431
5149.91568603,0.00481977
5151.84449341,0.00470376
5153.77330078,0.00477664
5155.70210815,0.00469744
5157.63091553,0.00479478
5159.55972290,0.00482316
5161.48853027,0.00476463
5163.41733765,0.00472783
5165.34614502,0.00470732
5167.27495239,0.00478289
5169.20375977,0.00467222
5171.13256714,0.00469005
5173.06137451,0.00473502
5174.99018188,0.00463754
5176.91898926,0.00462988
5178.84779663,0.00462554
5180.77660400,0.00453600
5182.70541138,0.00454563
5184.63421875,0.00461026
5186.56302612,0.00454522
5188.49183350,0.00454586
5190.42064087,0.00451417
5192.34944824,0.00452667
5194.27825562,0.00457207
5196.20706299,0.00448133
5198.13587036,0.00444920
5200.06467773,0.00444386
5201.99348511,0.00445826
5203.92229248,0.00447694
5205.85109985,0.00441217
5207.77990723,0.00433990
5209.70871460,0.00440379
5211.63752197,0.00438984
5213.56632935,0.00435150
5215.49513672,0.00441672
5217.42394409,0.00435182
5219.35275146,0.00430873
5221.28155884,0.00432283
5223.21036621,0.00440048
5225.13917358,0.00433643
5227.06798096,0.00420840
5228.99678833,0.00427211
5230.92559570,0.00429291
5232.85440308,0.00427233
5234.78321045,0.00423799
5236.71201782,0.00433454
5238.64082520,0.00426576
5240.56963257,0.00418504
5242.49843994,0.00426107
5244.42724731,0.00409963
5246.35605469,0.00412709
5248.28486206,0.00411513
5250.21366943,0.00409173
5252.14247681,0.00424863
5254.07128418,0.00414876
5256.00009155,0.00404860
5257.92889893,0.00407360
5259.85770630,0.00411363
5261.78651367,0.00411795
5263.71532104,0.00403806
5265.64412842,0.00397662
5267.57293579,0.00407907
5269.50174316,0.00401666
5271.43055054,0.00394687
5273.35935791,0.00410810
5275.28816528,0.00402477
5277.21697266,0.00406211
5279.14578003,0.00406125
5281.07458740,0.00394182
5283.00339478,0.00400461
5284.93220215,0.00391779
5286.86100952,0.00399216
5288.78981689,0.00400169
5290.71862427,0.00388654
5292.64743164,0.00393801
5294.57623901,0.00386486
5296.50504639,0.00389193
5298.43385376,0.00395732
5300.36266113,0.00388220
5302.29146851,0.00386356
5304.22027588,0.00379416
5306.14908325,0.00374714
5308.07789062,0.00377255
5310.00669800,0.00376208
5311.93550537,0.00383231
5313.86431274,0.00380090
5315.79312012,0.00374217
5317.72192749,0.00380339
5319.65073486,0.00377531
5321.57954224,0.00375910
5323.50834961,0.00373904
5325.43715698,0.00371220
5327.36596436,0.00368808
5329.29477173,0.00368881
5331.22357910,0.00371322
5333.15238647,0.00369349
5335.08119385,0.00373143
5337.01000122,0.00358043
5338.93880859,0.00344911
5340.86761597,0.00362080
5342.79642334,0.00361296
5344.72523071,0.00347217
5346.65403809,0.00358593
5348.58284546,0.00365989
5350.51165283,0.00360975
5352.44046020,0.00355923
5354.36926758,0.00343454
5356.29807495,0.00349223
5358.22688232,0.00353070
5360.15568970,0.00350146
5362.08449707,0.00350832
5364.01330444,0.00345517
5365.94211182,0.00347591
5367.87091919,0.00347103
5369.79972656,0.00354431
5371.72853394,0.00344798
5373.65734131,0.00338853
5375.58614868,0.00344361
5377.51495605,0.00333146
5379.44376343,0.00349450
5381.37257080,0.00352945
5383.30137817,0.00347849
5385.23018555,0.00340245
5387.15899292,0.00324604
5389.08780029,0.00333711
5391.01660767,0.00334318
5392.94541504,0.00330133
5394.87422241,0.00321401
5396.80302978,0.00333167
5398.73183716,0.00341099
5400.66064453,0.00329962
5402.58945190,0.00333981
5404.51825928,0.00321352
5406.44706665,0.00327218
5408.37587402,0.00332750
5410.30468140,0.00323417
5412.23348877,0.00324366
5414.16229614,0.00317582
5416.09110352,0.00324597
5418.01991089,0.00327444
5419.94871826,0.00321502
5421.87752563,0.00323872
5423.80633301,0.00321468
5425.73514038,0.00315191
5427.66394775,0.00313955
5429.59275513,0.00305127
5431.52156250,0.00310736
5433.45036987,0.00324860
5435.37917725,0.00308314
5437.30798462,0.00316577
5439.23679199,0.00320172
5441.16559936,0.00303483
5443.09440674,0.00313283
5445.02321411,0.00306810
5446.95202148,0.00299852
5448.88082886,0.00302875
5450.80963623,0.00301370
5452.73844360,0.00305087
5454.66725098,0.00309235
5456.59605835,0.00312221
5458.52486572,0.00308668
5460.45367310,0.00302651
5462.38248047,0.00301090
5464.31128784,0.00302916
5466.24009521,0.00300000
5468.16890259,0.00298710
5470.09770996,0.00299216
5472.02651733,0.00300961
5473.95532471,0.00293898
5475.88413208,0.00282189
5477.81293945,0.00291854
5479.74174683,0.00294995
5481.67055420,0.00296125
5483.59936157,0.00299741
5485.52816895,0.00297190
5487.45697632,0.00297568
5489.38578369,0.00289302
5491.31459106,0.00291333
5493.24339844,0.00289072
5495.17220581,0.00282837
5497.10101318,0.00288168
5499.02982056,0.00284938
5500.95862793,0.00286413
5502.88743530,0.00283724
5504.81624268,0.00280723
5506.74505005,0.00285999
5508.67385742,0.00277989
5510.60266479,0.00280021
5512.53147217,0.00289008
5514.46027954,0.00281052
5516.38908691,0.00275845
5518.31789429,0.00277022
5520.24670166,0.00280336
5522.17550903,0.00275013
5524.10431641,0.00267097
5526.03312378,0.00277901
5527.96193115,0.00280754
5529.89073853,0.00276184
5531.81954590,0.00276473
5533.74835327,0.00271065
5535.67716064,0.00268014
5537.60596802,0.00269224
5539.53477539,0.00264915
5541.46358276,0.00258570
5543.39239014,0.00265074
5545.32119751,0.00266854
5547.25000488,0.00268959
5549.17881226,0.00273705
5551.10761963,0.00260979
5553.03642700,0.00260818
5554.96523437,0.00268474
5556.89404175,0.00264665
5558.82284912,0.00258934
5560.75165649,0.00256006
5562.68046387,0.00257339
5564.60927124,0.00259172
5566.53807861,0.00260100
5568.46688599,0.00260550
5570.39569336,0.00262188
5572.32450073,0.00259627
5574.25330811,0.00260118
5576.18211548,0.00254610
5578.11092285,0.00250151
5580.03973022,0.00260323
5581.96853760,0.00256362
5583.89734497,0.00252797
5585.82615234,0.00256835
5587.75495972,0.00256093
5589.68376709,0.00251620
5591.61257446,0.00247122
5593.54138184,0.00250085
5595.47018921,0.00251202
5597.39899658,0.00253408
5599.32780395,0.00251158
5601.25661133,0.00247566
5603.18541870,0.00246399
5605.11422607,0.00242879
5607.04303345,0.00242235
5608.97184082,0.00243607
5610.90064819,0.00246387
5612.82945557,0.00239116
5614.75826294,0.00238169
5616.68707031,0.00240797
5618.61587769,0.00238232
5620.54468506,0.00243482
5622.47349243,0.00239952
5624.40229980,0.00240929
5626.33110718,0.00240945
5628.25991455,0.00231381
5630.18872192,0.00236206
5632.11752930,0.00237214
5634.04633667,0.00230429
5635.97514404,0.00234166
5637.90395142,0.00237027
5639.83275879,0.00235237
5641.76156616,0.00233025
5643.69037353,0.00231267
5645.61918091,0.00236583
5647.54798828,0.00232486
5649.47679565,0.00228463
5651.40560303,0.00230499
5653.33441040,0.00223433
5655.26321777,0.00225336
5657.19202515,0.00222569
5659.12083252,0.00219614
5661.04963989,0.00223697
5662.97844727,0.00222265
5664.90725464,0.00228331
5666.83606201,0.00228009
5668.76486938,0.00220690
5670.69367676,0.00213791
5672.62248413,0.00220204
5674.55129150,0.00227764
5676.48009888,0.00213756
5678.40890625,0.00214229
5680.33771362,0.00217327
5682.26652100,0.00213482
5684.19532837,0.00217446
5686.12413574,0.00214013
5688.05294311,0.00215304
5689.98175049,0.00218460
5691.91055786,0.00217068
5693.83936523,0.00217220
5695.76817261,0.00214934
5697.69697998,0.00213053
5699.62578735,0.00210680
5701.55459473,0.00210945
5703.48340210,0.00209804
5705.41220947,0.00206123
5707.34101685,0.00210585
5709.26982422,0.00211563
5711.19863159,0.00203054
5713.12743896,0.00200303
5715.05624634,0.00199911
5716.98505371,0.00199461
5718.91386108,0.00207037
5720.84266846,0.00205552
5722.77147583,0.00202166
5724.70028320,0.00205751
5726.62909058,0.00200272
5728.55789795,0.00201064
5730.48670532,0.00203061
5732.41551270,0.00202751
5734.34432007,0.00202523
5736.27312744,0.00195933
5738.20193481,0.00199841
5740.13074219,0.00200715
5742.05954956,0.00195437
5743.98835693,0.00194125
5745.91716431,0.00198607
5747.84597168,0.00198771
5749.77477905,0.00192798
5751.70358643,0.00199244
5753.63239380,0.00192247
5755.56120117,0.00185951
5757.49000854,0.00189357
5759.41881592,0.00187657
5761.34762329,0.00192988
5763.27643066,0.00190517
5765.20523804,0.00191803
5767.13404541,0.00190467
5769.06285278,0.00187901
5770.99166016,0.00190838
5772.92046753,0.00184264
5774.84927490,0.00184869
5776.77808228,0.00186866
5778.70688965,0.00185579
5780.63569702,0.00180260
5782.56450439,0.00185129
5784.49331177,0.00190241
5786.42211914,0.00179722
5788.35092651,0.00182704
5790.27973389,0.00183531
5792.20854126,0.00180760
5794.13734863,0.00179881
5796.06615601,0.00173763
5797.99496338,0.00173084
5799.92377075,0.00175110
5801.85257812,0.00175354
5803.78138550,0.00172512
5805.71019287,0.00172288
5807.63900024,0.00172003
5809.56780762,0.00174083
5811.49661499,0.00174766
5813.42542236,0.00174820
5815.35422974,0.00175524
5817.28303711,0.00171915
5819.21184448,0.00174992
5821.14065186,0.00173733
5823.06945923,0.00171440
5824.99826660,0.00171568
5826.92707397,0.00168361
5828.85588135,0.00168729
5830.78468872,0.00173159
5832.71349609,0.00168749
5834.64230347,0.00163013
5836.57111084,0.00172871
5838.49991821,0.00167830
5840.42872559,0.00168803
5842.35753296,0.00174004
5844.28634033,0.00163456
5846.21514770,0.00166467
5848.14395508,0.00162237
5850.07276245,0.00165939
5852.00156982,0.00173031
5853.93037720,0.00164725
5855.85918457,0.00161714
5857.78799194,0.00163691
5859.71679932,0.00166270
5861.64560669,0.00158001
5863.57441406,0.00158203
5865.50322144,0.00162266
5867.43202881,0.00160782
5869.36083618,0.00162175
5871.28964355,0.00157473
5873.21845093,0.00152915
5875.14725830,0.00153257
5877.07606567,0.00155767
5879.00487305,0.00153187
5880.93368042,0.00157672
5882.86248779,0.00156277
5884.79129517,0.00149652
5886.72010254,0.00154992
5888.64890991,0.00155726
5890.57771728,0.00153517
5892.50652466,0.00149121
5894.43533203,0.00155681
5896.36413940,0.00153300
5898.29294678,0.00146135
5900.22175415,0.00154568
5902.15056152,0.00149690
5904.07936890,0.00149783
5906.00817627,0.00151825
5907.93698364,0.00147237
5909.86579102,0.00141451
5911.79459839,0.00143080
5913.72340576,0.00152855
5915.65221313,0.00146987
5917.58102051,0.00147947
5919.50982788,0.00148819
5921.43863525,0.00143301
5923.36744263,0.00145767
5925.29625000,0.00147823
5927.22505737,0.00153005
5929.15386475,0.00152611
5931.08267212,0.00144047
5933.01147949,0.00142080
5934.94028686,0.00146632
5936.86909424,0.00148188
5938.79790161,0.00147986
5940.72670898,0.00141628
5942.65551636,0.00144484
5944.58432373,0.00145595
5946.51313110,0.00132394
5948.44193848,0.00140507
5950.37074585,0.00143365
5952.29955322,0.00136426
5954.22836060,0.00138411
5956.15716797,0.00138100
5958.08597534,0.00136627
5960.01478271,0.00133787
5961.94359009,0.00139450
5963.87239746,0.00137845
5965.80120483,0.00136319
5967.73001221,0.00141376
5969.65881958,0.00134350
5971.58762695,0.00130154
5973.51643433,0.00133858
5975.44524170,0.00134449
5977.37404907,0.00133981
5979.30285645,0.00136824
5981.23166382,0.00128704
5983.16047119,0.00128969
5985.08927856,0.00137547
5987.01808594,0.00132337
5988.94689331,0.00131456
5990.87570068,0.00128142
5992.80450806,0.00127767
5994.73331543,0.00134191
5996.66212280,0.00134176
5998.59093018,0.00129459
6000.51973755,0.00128339
