399.26312622,0.00257506
401.19193359,0.00289723
403.12074097,0.00391750
405.04954834,0.00378934
406.97835571,0.00344601
408.90716309,0.00444155
410.83597046,0.00451379
412.76477783,0.00437740
414.69358521,0.00453802
416.62239258,0.00439608
418.55119995,0.00354604
420.48000732,0.00395206
422.40881470,0.00519174
424.33762207,0.00441540
426.26642944,0.00435353
428.19523682,0.00477433
430.12404419,0.00490306
432.05285156,0.00480098
433.98165894,0.00458367
435.91046631,0.00507908
437.83927368,0.00471643
439.76808105,0.00428282
441.69688843,0.00429181
443.62569580,0.00474129
445.55450317,0.00435182
447.48331055,0.00379750
449.41211792,0.00414945
451.34092529,0.00354912
453.26973267,0.00359173
455.19854004,0.00350205
457.12734741,0.00304936
459.05615479,0.00296328
460.98496216,0.00268835
462.91376953,0.00303300
464.84257690,0.00269876
466.77138428,0.00216550
468.70019165,0.00227733
470.62899902,0.00245536
472.55780640,0.00199803
474.48661377,0.00163149
476.41542114,0.00213123
478.34422852,0.00184723
480.27303589,0.00107686
482.20184326,0.00095282
484.13065063,0.00135635
486.05945801,0.00103822
487.98826538,0.00085724
489.91707275,0.00131262
491.84588013,0.00097748
493.77468750,0.00110183
495.70349487,0.00093913
497.63230225,0.00041039
499.56110962,0.00078859
501.48991699,0.00075311
503.41872437,0.00083427
505.34753174,0.00097400
507.27633911,0.00025322
509.20514648,0.00027222
511.13395386,0.00069082
513.06276123,0.00070706
514.99156860,0.00092143
516.92037598,0.00033936
518.84918335,0.00044581
520.77799072,0.00105044
522.70679810,0.00023265
524.63560547,0.00040938
526.56441284,0.00057277
528.49322021,0.00024070
530.42202759,0.00079840
532.35083496,0.00025315
534.27964233,0.00013461
536.20844971,0.00064713
538.13725708,0.00036008
540.06606445,0.00067020
541.99487183,0.00054722
543.92367920,0.00019468
545.85248657,0.00019930
547.78129395,-0.00017608
549.71010132,0.00023641
551.63890869,0.00038942
553.56771606,-0.00004195
555.49652344,0.00025403
557.42533081,0.00030534
559.35413818,0.00008777
561.28294556,0.00027115
563.21175293,0.00042694
565.14056030,0.00046313
567.06936768,0.00051188
568.99817505,0.00037708
570.92698242,0.00022326
572.85578979,0.00028650
574.78459717,0.00040929
576.71340454,0.00041715
578.64221191,0.00019586
580.57101929,0.00029797
582.49982666,0.00034800
584.42863403,0.00025290
586.35744141,0.00047441
588.28624878,0.00010269
590.21505615,-0.00009230
592.14386353,0.00010762
594.07267090,0.00018652
596.00147827,0.00042005
597.93028564,0.00031107
599.85909302,0.00035584
601.78790039,0.00016829
603.71670776,-0.00008588
605.64551514,0.00025886
607.57432251,-0.00005986
609.50312988,-0.00032871
611.43193726,0.00023641
613.36074463,0.00019939
615.28955200,0.00007717
617.21835938,0.00040095
619.14716675,0.00016106
621.07597412,0.00016374
623.00478149,0.00010248
624.93358887,0.00006451
626.86239624,0.00051091
628.79120361,0.00011493
630.72001099,0.00068598
632.64881836,0.00217326
634.57762573,0.00281169
636.50643311,0.00326869
638.43524048,0.00315147
640.36404785,0.00338986
642.29285522,0.00417941
644.22166260,0.00425986
646.15046997,0.00456275
648.07927734,0.00496031
650.00808472,0.00499686
651.93689209,0.00511441
653.86569946,0.00535809
655.79450684,0.00584157
657.72331421,0.00606564
659.65212158,0.00614429
661.58092896,0.00622309
663.50973633,0.00695038
665.43854370,0.00729837
667.36735107,0.00606455
669.29615845,0.00709112
671.22496582,0.00848985
673.15377319,0.00810037
675.08258057,0.00858410
677.01138794,0.00846639
678.94019531,0.00868660
680.86900269,0.00891483
682.79781006,0.00864176
684.72661743,0.00881068
686.65542480,0.00837269
688.58423218,0.00881814
690.51303955,0.00913695
692.44184692,0.00943134
694.37065430,0.01029260
696.29946167,0.01122410
698.22826904,0.01306421
700.15707642,0.01374362
702.08588379,0.01334944
704.01469116,0.01261689
705.94349854,0.01142938
707.87230591,0.00994221
709.80111328,0.00776759
711.72992065,0.00554397
713.65872803,0.00337374
715.58753540,0.00205441
717.51634277,0.00158729
719.44515015,0.00095608
721.37395752,0.00042794
723.30276489,0.00043709
725.23157227,0.00050954
727.16037964,0.00056655
729.08918701,0.00049443
731.01799438,0.00001451
732.94680176,0.00020109
734.87560913,0.00023740
736.80441650,0.00000063
738.73322388,0.00009183
740.66203125,0.00005854
742.59083862,0.00035002
744.51964600,0.00029777
746.44845337,0.00016315
748.37726074,0.00045030
750.30606812,0.00046882
752.23487549,0.00037606
754.16368286,0.00038764
756.09249023,0.00024116
758.02129761,0.00037166
759.95010498,0.00093054
761.87891235,0.00075020
763.80771973,0.00057709
765.73652710,0.00090733
767.66533447,0.00094984
769.59414185,0.00076061
771.52294922,0.00070738
773.45175659,0.00105076
775.38056396,0.00072648
777.30937134,0.00043060
779.23817871,0.00103226
781.16698608,0.00098885
783.09579346,0.00063227
785.02460083,0.00091403
786.95340820,0.00101232
788.88221558,0.00085914
790.81102295,0.00085598
792.73983032,0.00089580
794.66863770,0.00122576
796.59744507,0.00150777
798.52625244,0.00192021
800.45505981,0.00222188
802.38386719,0.00181518
804.31267456,0.00141322
806.24148193,0.00113798
808.17028931,0.00109822
810.09909668,0.00103533
812.02790405,0.00094883
813.95671143,0.00113181
815.88551880,0.00102557
817.81432617,0.00073808
819.74313354,0.00080087
821.67194092,0.00092402
823.60074829,0.00096190
825.52955566,0.00125506
827.45836304,0.00122438
829.38717041,0.00176201
831.31597778,0.00233692
833.24478516,0.00231106
835.17359253,0.00305194
837.10239990,0.00305656
839.03120728,0.00303293
840.96001465,0.00296047
842.88882202,0.00238666
844.81762939,0.00260317
846.74643677,0.00229870
848.67524414,0.00216393
850.60405151,0.00204458
852.53285889,0.00170808
854.46166626,0.00157971
856.39047363,0.00125311
858.31928101,0.00132042
860.24808838,0.00130158
862.17689575,0.00121511
864.10570313,0.00083029
866.03451050,0.00075222
867.96331787,0.00089059
869.89212524,0.00085435
871.82093262,0.00108739
873.74973999,0.00069214
875.67854736,0.00076029
877.60735474,0.00098143
879.53616211,0.00085073
881.46496948,0.00089560
883.39377686,0.00046813
885.32258423,0.00062978
887.25139160,0.00093870
889.18019897,0.00044965
891.10900635,0.00043066
893.03781372,0.00071521
894.96662109,0.00067821
896.89542847,0.00087883
898.82423584,0.00077155
900.75304321,0.00076011
902.68185059,0.00106260
904.61065796,0.00076722
906.53946533,0.00084919
908.46827271,0.00110415
910.39708008,0.00117544
912.32588745,0.00130808
914.25469482,0.00145135
916.18350220,0.00162748
918.11230957,0.00158446
920.04111694,0.00194988
921.96992432,0.00224665
923.89873169,0.00245919
925.82753906,0.00272547
927.75634644,0.00277589
929.68515381,0.00298339
931.61396118,0.00329481
933.54276855,0.00374597
935.47157593,0.00374431
937.40038330,0.00384536
939.32919067,0.00405656
941.25799805,0.00416196
943.18680542,0.00439062
945.11561279,0.00420134
947.04442017,0.00446950
948.97322754,0.00444975
950.90203491,0.00401538
952.83084229,0.00412785
954.75964966,0.00414581
956.68845703,0.00402911
958.61726440,0.00400118
960.54607178,0.00417750
962.47487915,0.00418615
964.40368652,0.00418806
966.33249390,0.00431712
968.26130127,0.00445487
970.19010864,0.00477058
972.11891602,0.00508530
974.04772339,0.00532647
975.97653076,0.00564428
977.90533813,0.00638940
979.83414551,0.00692426
981.76295288,0.00760335
983.69176025,0.00844484
985.62056763,0.00886406
987.54937500,0.01007404
989.47818237,0.01138842
991.40698975,0.01247874
993.33579712,0.01384227
995.26460449,0.01485770
997.19341187,0.01611937
999.12221924,0.01751722
1001.05102661,0.01874585
1002.97983398,0.02020968
1004.90864136,0.02147568
1006.83744873,0.02274819
1008.76625610,0.02415323
1010.69506348,0.02541223
1012.62387085,0.02672321
1014.55267822,0.02799117
1016.48148560,0.02966685
1018.41029297,0.03111489
1020.33910034,0.03216808
1022.26790771,0.03378616
1024.19671509,0.03509206
1026.12552246,0.03634745
1028.05432983,0.03762829
1029.98313721,0.03867070
1031.91194458,0.03981772
1033.84075195,0.04050887
1035.76955933,0.04115635
1037.69836670,0.04155253
1039.62717407,0.04166147
1041.55598145,0.04176747
1043.48478882,0.04139671
1045.41359619,0.04079957
1047.34240356,0.04023365
1049.27121094,0.03978673
1051.20001831,0.03911042
1053.12882568,0.03838459
1055.05763306,0.03771629
1056.98644043,0.03673920
1058.91524780,0.03593292
1060.84405518,0.03489799
1062.77286255,0.03366863
1064.70166992,0.03287804
1066.63047729,0.03149691
1068.55928467,0.02997957
1070.48809204,0.02892363
1072.41689941,0.02743822
1074.34570679,0.02626169
1076.27451416,0.02507443
1078.20332153,0.02369743
1080.13212891,0.02268864
1082.06093628,0.02153484
1083.98974365,0.02069718
1085.91855103,0.01982695
1087.84735840,0.01883129
1089.77616577,0.01792995
1091.70497314,0.01709233
1093.63378052,0.01641103
1095.56258789,0.01575002
1097.49139526,0.01542063
1099.42020264,0.01469167
1101.34901001,0.01426520
1103.27781738,0.01434330
1105.20662476,0.01393327
1107.13543213,0.01351994
1109.06423950,0.01326517
1110.99304687,0.01332992
1112.92185425,0.01312682
1114.85066162,0.01308548
1116.77946899,0.01336909
1118.70827637,0.01302835
1120.63708374,0.01287381
1122.56589111,0.01308220
1124.49469849,0.01323634
1126.42350586,0.01345661
1128.35231323,0.01383760
1130.28112061,0.01403982
1132.20992798,0.01438789
1134.13873535,0.01499127
1136.06754272,0.01528471
1137.99635010,0.01598635
1139.92515747,0.01717673
1141.85396484,0.01828789
1143.78277222,0.01933790
1145.71157959,0.02069127
1147.64038696,0.02202061
1149.56919434,0.02311766
1151.49800171,0.02440445
1153.42680908,0.02547844
1155.35561646,0.02664444
1157.28442383,0.02786841
1159.21323120,0.02877129
1161.14203857,0.02991795
1163.07084595,0.03114476
1164.99965332,0.03222385
1166.92846069,0.03351018
1168.85726807,0.03461485
1170.78607544,0.03562950
1172.71488281,0.03710922
1174.64369019,0.03843693
1176.57249756,0.04000887
1178.50130493,0.04169182
1180.43011230,0.04299385
1182.35891968,0.04484342
1184.28772705,0.04698768
1186.21653442,0.04903056
1188.14534180,0.05115802
1190.07414917,0.05348521
1192.00295654,0.05585404
1193.93176392,0.05861337
1195.86057129,0.06158742
1197.78937866,0.06427819
1199.71818604,0.06712855
1201.64699341,0.06981944
1203.57580078,0.07278278
1205.50460815,0.07567663
1207.43341553,0.07835631
1209.36222290,0.08123992
1211.29103027,0.08351962
1213.21983765,0.08576538
1215.14864502,0.08786926
1217.07745239,0.08986774
1219.00625977,0.09168088
1220.93506714,0.09288828
1222.86387451,0.09401556
1224.79268188,0.09478644
1226.72148926,0.09560927
1228.65029663,0.09637409
1230.57910400,0.09674421
1232.50791138,0.09679618
1234.43671875,0.09667872
1236.36552612,0.09677919
1238.29433350,0.09668592
1240.22314087,0.09638818
1242.15194824,0.09589547
1244.08075562,0.09546658
1246.00956299,0.09513503
1247.93837036,0.09463842
1249.86717773,0.09410858
1251.79598511,0.09320125
1253.72479248,0.09214389
1255.65359985,0.09113169
1257.58240723,0.08983588
1259.51121460,0.08838339
1261.44002197,0.08707920
1263.36882935,0.08588611
1265.29763672,0.08480801
1267.22644409,0.08373811
1269.15525146,0.08247241
1271.08405884,0.08120830
1273.01286621,0.07989824
1274.94167358,0.07850696
1276.87048096,0.07698085
1278.79928833,0.07539169
1280.72809570,0.07388553
1282.65690308,0.07252073
1284.58571045,0.07134673
1286.51451782,0.06985465
1288.44332520,0.06843028
1290.37213257,0.06762776
1292.30093994,0.06697284
1294.22974731,0.06640823
1296.15855469,0.06591015
1298.08736206,0.06561405
1300.01616943,0.06586307
1301.94497681,0.06628443
1303.87378418,0.06693926
1305.80259155,0.06758612
1307.73139893,0.06824426
1309.66020630,0.06955561
1311.58901367,0.07032757
1313.51782104,0.07143049
1315.44662842,0.07366434
1317.37543579,0.07496206
1319.30424316,0.07665318
1321.23305054,0.07974535
1323.16185791,0.08229682
1325.09066528,0.08439682
1327.01947266,0.08692300
1328.94828003,0.08922604
1330.87708740,0.09155437
1332.80589478,0.09388804
1334.73470215,0.09539764
1336.66350952,0.09623249
1338.59231689,0.09521072
1340.52112427,0.09638519
1342.44993164,0.10065594
1344.37873901,0.10113928
1346.30754639,0.10098885
1348.23635376,0.10111937
1350.16516113,0.10004345
1352.09396851,0.10006517
1354.02277588,0.09873011
1355.95158325,0.09805468
1357.88039062,0.09753822
1359.80919800,0.09570795
1361.73800537,0.09172268
1363.66681274,0.09012631
1365.59562012,0.09481357
1367.52442749,0.09271130
1369.45323486,0.09138937
1371.38204224,0.09318532
1373.31084961,0.08788766
1375.23965698,0.08836235
1377.16846436,0.09083717
1379.09727173,0.09055504
1381.02607910,0.09069753
1382.95488647,0.09045411
1384.88369385,0.09042113
1386.81250122,0.08606672
1388.74130859,0.08716284
1390.67011597,0.09461698
1392.59892334,0.09227388
1394.52773071,0.08593850
1396.45653809,0.09043308
1398.38534546,0.09034168
1400.31415283,0.08943237
1402.24296021,0.09735596
1404.17176758,0.09168640
1406.10057495,0.09214848
1408.02938232,0.09638276
1409.95818970,0.09239049
1411.88699707,0.09455138
1413.81580444,0.09097341
1415.74461182,0.09250264
1417.67341919,0.08345674
1419.60222656,0.07398827
1421.53103394,0.08606767
1423.45984131,0.08350360
1425.38864868,0.08084887
1427.31745605,0.08218545
1429.24626343,0.07578853
1431.17507080,0.07348032
1433.10387817,0.07451586
1435.03268555,0.06819744
1436.96149292,0.05711977
1438.89030029,0.06508179
1440.81910767,0.06714632
1442.74791504,0.06185120
1444.67672241,0.06523408
1446.60552979,0.05952612
1448.53433716,0.06032382
1450.46314453,0.06247289
1452.39195190,0.06365478
1454.32075928,0.06619228
1456.24956665,0.05386733
1458.17837402,0.05625727
1460.10718140,0.07575244
1462.03598877,0.08092111
1463.96479614,0.08033458
1465.89360352,0.08341126
1467.82241089,0.09553136
1469.75121826,0.10289386
1471.68002563,0.09081559
1473.60883301,0.09558046
1475.53764038,0.10957794
1477.46644775,0.11807999
1479.39525513,0.13024494
1481.32406250,0.13216396
1483.25286987,0.14063251
1485.18167725,0.14524251
1487.11048462,0.14249112
1489.03929199,0.14150119
1490.96809937,0.14231649
1492.89690674,0.16673020
1494.82571411,0.16280419
1496.75452148,0.14561272
1498.68332886,0.16542381
1500.61213623,0.17076789
1502.54094360,0.18391952
1504.46975098,0.17383894
1506.39855835,0.12427608
1508.32736572,0.15257037
1510.25617310,0.18095808
1512.18498047,0.17506361
1514.11378784,0.19043761
1516.04259521,0.17100871
1517.97140259,0.17839573
1519.90020996,0.17256683
1521.82901733,0.14787699
1523.75782471,0.18265340
1525.68663208,0.17969503
1527.61543945,0.17865610
1529.54424683,0.19894384
1531.47305420,0.19097081
1533.40186157,0.17409696
1535.33066895,0.18496013
1537.25947632,0.19948956
1539.18828369,0.14077204
1541.11709106,0.14618215
1543.04589844,0.17754163
1544.97470581,0.16958705
1546.90351318,0.20243484
1548.83232056,0.18859833
1550.76112793,0.19407347
1552.68993530,0.19372344
1554.61874268,0.17459184
1556.54755005,0.18777430
1558.47635742,0.13040707
1560.40516479,0.14018884
1562.33397217,0.20375729
1564.26277954,0.19216460
1566.19158691,0.19789359
1568.12039429,0.19611433
1570.04920166,0.17235425
1571.97800903,0.20030050
1573.90681641,0.20316347
1575.83562378,0.15933432
1577.76443115,0.18081994
1579.69323853,0.20554030
1581.62204590,0.19642496
1583.55085327,0.20165044
1585.47966064,0.19870353
1587.40846802,0.20006803
1589.33727539,0.19826941
1591.26608276,0.19826350
1593.19489014,0.19829954
1595.12369751,0.19578108
1597.05250488,0.19876039
1598.98131226,0.19737265
1600.91011963,0.19873473
1602.83892700,0.19486682
1604.76773437,0.19827709
1606.69654175,0.19541025
1608.62534912,0.19485578
1610.55415649,0.19483657
1612.48296387,0.19578676
1614.41177124,0.19880478
1616.34057861,0.16117907
1618.26938599,0.17498265
1620.19819336,0.20547305
1622.12700073,0.18111122
1624.05580811,0.18186207
1625.98461548,0.19144714
1627.91342285,0.19038711
1629.84223022,0.18919128
1631.77103760,0.20259278
1633.69984497,0.18655312
1635.62865234,0.15199548
1637.55745972,0.17787094
1639.48626709,0.19727266
1641.41507446,0.19228300
1643.34388184,0.19765449
1645.27268921,0.17764771
1647.20149658,0.15425225
1649.13030396,0.19381720
1651.05911133,0.18467601
1652.98791870,0.11533155
1654.91672607,0.15862378
1656.84553345,0.20214354
1658.77434082,0.19301793
1660.70314819,0.19876596
1662.63195557,0.17962576
1664.56076294,0.18982667
1666.48957031,0.20486429
1668.41837769,0.17748187
1670.34718506,0.17180020
1672.27599243,0.19621515
1674.20479980,0.18080565
1676.13360718,0.17236269
1678.06241455,0.20018299
1679.99122192,0.19251400
1681.92002930,0.18992934
1683.84883667,0.15338209
1685.77764404,0.15098417
1687.70645142,0.21045989
1689.63525879,0.18153656
1691.56406616,0.20006216
1693.49287354,0.20492156
1695.42168091,0.14688501
1697.35048828,0.18315375
1699.27929565,0.16048488
1701.20810303,0.14278129
1703.13691040,0.19786084
1705.06571777,0.18101385
1706.99452515,0.18230650
1708.92333252,0.19918694
1710.85213989,0.19096678
1712.78094727,0.19439645
1714.70975464,0.17978895
1716.63856201,0.16056916
1718.56736938,0.15755835
1720.49617676,0.18817513
1722.42498413,0.19625804
1724.35379150,0.18109506
1726.28259888,0.19792220
1728.21140625,0.18238461
1730.14021362,0.18335077
1732.06902100,0.17934623
1733.99782837,0.13416770
1735.92663574,0.16843507
1737.85544312,0.18800199
1739.78425049,0.16587323
1741.71305786,0.18139839
1743.64186523,0.18387297
1745.57067261,0.18402025
1747.49947998,0.18569285
1749.42828735,0.17718588
1751.35709473,0.16910154
1753.28590210,0.18809775
1755.21470947,0.19763090
1757.14351685,0.17915332
1759.07232422,0.19795839
1761.00113159,0.18569784
1762.92993896,0.17828651
1764.85874634,0.20583870
1766.78755371,0.18429551
1768.71636108,0.18582401
1770.64516846,0.18473883
1772.57397583,0.16472590
1774.50278320,0.18493396
1776.43159058,0.19602358
1778.36039795,0.19328091
1780.28920532,0.19060922
1782.21801270,0.19212171
1784.14682007,0.19203159
1786.07562744,0.18779059
1788.00443481,0.19814539
1789.93324219,0.19304143
1791.86204956,0.17345601
1793.79085693,0.18123120
1795.71966431,0.19524062
1797.64847168,0.19257465
1799.57727905,0.18947086
1801.50608643,0.18586695
1803.43489380,0.19218907
1805.36370117,0.19683015
1807.29250854,0.19396773
1809.22131592,0.19471166
1811.15012329,0.18916176
1813.07893066,0.19531360
1815.00773804,0.19638982
1816.93654541,0.19374129
1818.86535278,0.19557123
1820.79416016,0.19457138
1822.72296753,0.19768839
1824.65177490,0.18425074
1826.58058228,0.19075991
1828.50938965,0.19136474
1830.43819702,0.17865381
1832.36700439,0.19548702
1834.29581177,0.19448823
1836.22461914,0.19391696
1838.15342651,0.19322881
1840.08223389,0.19422621
1842.01104126,0.19482225
1843.93984863,0.17167825
1845.86865601,0.18328038
1847.79746338,0.19425938
1849.72627075,0.18967842
1851.65507812,0.19552350
1853.58388550,0.19136044
1855.51269287,0.19348556
1857.44150024,0.19219220
1859.37030762,0.19089006
1861.29911499,0.19241992
1863.22792236,0.19012767
1865.15672974,0.19242986
1867.08553711,0.18549658
1869.01434448,0.17741665
1870.94315186,0.18473014
1872.87195923,0.19224358
1874.80076660,0.18906265
1876.72957397,0.18992409
1878.65838135,0.18945470
1880.58718872,0.18804456
1882.51599609,0.18989043
1884.44480347,0.18670326
1886.37361084,0.18937141
1888.30241821,0.18502113
1890.23122559,0.18102792
1892.16003296,0.18831572
1894.08884033,0.18558322
1896.01764771,0.18472281
1897.94645508,0.18695796
1899.87526245,0.18591124
1901.80406982,0.18621171
1903.73287720,0.18496040
1905.66168457,0.18602091
1907.59049194,0.18394127
1909.51929932,0.18264398
1911.44810669,0.18393376
1913.37691406,0.18407173
1915.30572144,0.18579826
1917.23452881,0.17732881
1919.16333618,0.17733231
1921.09214355,0.18464854
1923.02095093,0.17842193
1924.94975830,0.18198314
1926.87856567,0.18434666
1928.80737305,0.18176541
1930.73618042,0.18399760
1932.66498779,0.18130666
1934.59379517,0.18310171
1936.52260254,0.18176055
1938.45140991,0.18217291
1940.38021729,0.18225724
1942.30902466,0.17588148
1944.23783203,0.17947012
1946.16663940,0.18147556
1948.09544678,0.18101406
1950.02425415,0.18182343
1951.95306152,0.18102375
1953.88186890,0.18122470
1955.81067627,0.18029626
1957.73948364,0.18105978
1959.66829102,0.18064687
1961.59709839,0.18019855
1963.52590576,0.18082723
1965.45471313,0.17954788
1967.38352051,0.17761892
1969.31232788,0.17896722
1971.24113525,0.18052843
1973.16994263,0.17906019
1975.09875000,0.17969471
1977.02755737,0.17895401
1978.95636475,0.17893615
1980.88517212,0.17895105
1982.81397949,0.17803475
1984.74278687,0.17893323
1986.67159424,0.17712465
1988.60040161,0.17749152
1990.52920898,0.17610866
1992.45801636,0.17374270
1994.38682373,0.17655408
1996.31563110,0.17696199
1998.24443848,0.17594144
2000.17324585,0.17594144
2002.10205322,0.17561352
2004.03086060,0.17539865
2005.95966797,0.17494661
2007.88847534,0.17441320
2009.81728271,0.17419887
2011.74609009,0.17363164
2013.67489746,0.17358612
2015.60370483,0.17272803
2017.53251221,0.17098632
2019.46131958,0.17206198
2021.39012695,0.17204112
2023.31893433,0.17131665
2025.24774170,0.17141509
2027.17654907,0.17075115
2029.10535645,0.17060813
2031.03416382,0.16992407
2032.96297119,0.16996334
2034.89177856,0.16961685
2036.82058594,0.16914332
2038.74939331,0.16901025
2040.67820068,0.16772078
2042.60700806,0.16744089
2044.53581543,0.16757795
2046.46462280,0.16728136
2048.39343018,0.16682182
2050.32223755,0.16660023
2052.25104492,0.16618004
2054.17985229,0.16574682
2056.10865967,0.16566724
2058.03746704,0.16517109
2059.96627441,0.16492644
2061.89508179,0.16468981
2063.82388916,0.16394341
2065.75269653,0.16322745
2067.68150391,0.16359469
2069.61031128,0.16343084
2071.53911865,0.16289583
2073.46792603,0.16284138
2075.39673340,0.16227153
2077.32554077,0.16219299
2079.25434814,0.16175735
2081.18315552,0.16159080
2083.11196289,0.16141449
2085.04077026,0.16084808
2086.96957764,0.16069862
2088.89838501,0.16003448
2090.82719238,0.15968606
2092.75599976,0.15949371
2094.68480713,0.15938762
2096.61361450,0.15910682
2098.54242187,0.15888779
2100.47122925,0.15858769
2102.40003662,0.15805733
2104.32884399,0.15795115
2106.25765137,0.15755585
2108.18645874,0.15754801
2110.11526611,0.15729125
2112.04407349,0.15706284
2113.97288086,0.15670350
2115.90168823,0.15624723
2117.83049561,0.15634845
2119.75930298,0.15594783
2121.68811035,0.15581824
2123.61691772,0.15537420
2125.54572510,0.15529901
2127.47453247,0.15513524
2129.40333984,0.15461977
2131.33214722,0.15472397
2133.26095459,0.15437800
2135.18976196,0.15421045
2137.11856934,0.15379232
2139.04737671,0.15381908
2140.97618408,0.15364540
2142.90499146,0.15314937
2144.83379883,0.15325740
2146.76260620,0.15276530
2148.69141357,0.15269694
2150.62022095,0.15256059
2152.54902832,0.15229532
2154.47783569,0.15212378
2156.40664307,0.15186466
2158.33545044,0.15178949
2160.26425781,0.15156418
2162.19306519,0.15132545
2164.12187256,0.15108031
2166.05067993,0.15112033
2167.97948730,0.15081927
2169.90829468,0.15069850
2171.83710205,0.15042745
2173.76590942,0.15014681
2175.69471680,0.15017453
2177.62352417,0.14971253
2179.55233154,0.14970043
2181.48113892,0.14941195
2183.40994629,0.14935553
2185.33875366,0.14916387
2187.26756104,0.14878303
2189.19636841,0.14887173
2191.12517578,0.14849082
2193.05398315,0.14844796
2194.98279053,0.14821921
2196.91159790,0.14810655
2198.84040527,0.14780942
2200.76921265,0.14750469
2202.69802002,0.14759332
2204.62682739,0.14717308
2206.55563477,0.14710772
2208.48444214,0.14682692
2210.41324951,0.14662933
2212.34205688,0.14652547
2214.27086426,0.14623868
2216.19967163,0.14610480
2218.12847900,0.14598629
2220.05728638,0.14586216
2221.98609375,0.14552608
2223.91490112,0.14542693
2225.84370850,0.14507267
2227.77251587,0.14495194
2229.70132324,0.14472130
2231.63013062,0.14436488
2233.55893799,0.14428250
2235.48774536,0.14383420
2237.41655273,0.14376816
2239.34536011,0.14356667
2241.27416748,0.14334567
2243.20297485,0.14305873
2245.13178223,0.14293632
2247.06058960,0.14267778
2248.98939697,0.14209475
2250.91820435,0.14223132
2252.84701172,0.14193125
2254.77581909,0.14166783
2256.70462646,0.14146039
2258.63343384,0.14128993
2260.56224121,0.14105245
2262.49104858,0.14071950
2264.41985596,0.14087027
2266.34866333,0.14039809
2268.27747070,0.14025122
2270.20627808,0.14009489
2272.13508545,0.13985345
2274.06389282,0.13978007
2275.99270020,0.13955614
2277.92150757,0.13956189
2279.85031494,0.13918638
2281.77912231,0.13909581
2283.70792969,0.13890246
2285.63673706,0.13874051
2287.56554443,0.13837627
2289.49435181,0.13777798
2291.42315918,0.13770556
2293.35196655,0.13722101
2295.28077393,0.13682257
2297.20958130,0.13649347
2299.13838867,0.13592631
2301.06719604,0.13530269
2302.99600342,0.13477704
2304.92481079,0.13387626
2306.85361816,0.13294296
2308.78242554,0.13222840
2310.71123291,0.13086334
2312.64004028,0.12964821
2314.56884766,0.12824464
2316.49765503,0.12677157
2318.42646240,0.12504403
2320.35526978,0.12315868
2322.28407715,0.12143248
2324.21288452,0.11967624
2326.14169189,0.11850463
2328.07049927,0.11678997
2329.99930664,0.11538744
2331.92811401,0.11438558
2333.85692139,0.11381526
2335.78572876,0.11349360
2337.71453613,0.11313154
2339.64334351,0.11325666
2341.57215088,0.11332312
2343.50095825,0.11528191
2345.42976562,0.11738122
2347.35857300,0.12229770
2349.28738037,0.12704405
2351.21618774,0.12228394
2353.14499512,0.11574003
2355.07380249,0.11129893
2357.00260986,0.10756047
2358.93141724,0.10573122
2360.86022461,0.10435916
2362.78903198,0.10413504
2364.71783936,0.10471037
2366.64664673,0.10629319
2368.57545410,0.10853741
2370.50426147,0.11128193
2372.43306885,0.11449918
2374.36187622,0.11783008
2376.29068359,0.12127198
2378.21949097,0.12392273
2380.14829834,0.12615673
2382.07710571,0.12761466
2384.00591309,0.12856321
2385.93472046,0.12908274
2387.86352783,0.12916186
2389.79233521,0.12908852
2391.72114258,0.12887666
2393.64994995,0.12882635
2395.57875732,0.12852126
2397.50756470,0.12853615
2399.43637207,0.12840612
2401.36517944,0.12816027
2403.29398682,0.12789021
2405.22279419,0.12756413
2407.15160156,0.12758599
2409.08040894,0.12733282
2411.00921631,0.12720123
2412.93802368,0.12695181
2414.86683105,0.12692761
2416.79563843,0.12671179
2418.72444580,0.12635018
2420.65325317,0.12644166
2422.58206055,0.12616968
2424.51086792,0.12609273
2426.43967529,0.12577334
2428.36848267,0.12558648
2430.29729004,0.12544960
2432.22609741,0.12510651
2434.15490479,0.12527187
2436.08371216,0.12505899
2438.01251953,0.12480693
2439.94132690,0.12467650
2441.87013428,0.12440854
2443.79894165,0.12415463
2445.72774902,0.12405372
2447.65655640,0.12392038
2449.58536377,0.12368742
2451.51417114,0.12358940
2453.44297852,0.12339474
2455.37178589,0.12329054
2457.30059326,0.12310088
2459.22940063,0.12297072
2461.15820801,0.12270650
2463.08701538,0.12248629
2465.01582275,0.12245921
2466.94463013,0.12220313
2468.87343750,0.12205208
2470.80224487,0.12174661
2472.73105225,0.12173605
2474.65985962,0.12164985
2476.58866699,0.12133308
2478.51747437,0.12123217
2480.44628174,0.12096585
2482.37508911,0.12085811
2484.30389648,0.12069899
2486.23270386,0.12054230
2488.16151123,0.12033609
2490.09031860,0.12013555
2492.01912598,0.12008747
2493.94793335,0.12000634
2495.87674072,0.11976564
2497.80554810,0.11947659
2499.73435547,0.11947530
2501.66316284,0.11923288
2503.59197021,0.11913295
2505.52077759,0.11905773
2507.44958496,0.11883508
2509.37839233,0.11861716
2511.30719971,0.11832619
2513.23600708,0.11829844
2515.16481445,0.11799845
2517.09362183,0.11795199
2519.02242920,0.11788884
2520.95123657,0.11757907
2522.88004395,0.11750409
2524.80885132,0.11737467
2526.73765869,0.11724752
2528.66646606,0.11697195
2530.59527344,0.11690860
2532.52408081,0.11670218
2534.45288818,0.11654055
2536.38169556,0.11651030
2538.31050293,0.11626163
2540.23931030,0.11607486
2542.16811768,0.11587398
2544.09692505,0.11587758
2546.02573242,0.11556723
2547.95453979,0.11541387
2549.88334717,0.11528714
2551.81215454,0.11503348
2553.74096191,0.11504133
2555.66976929,0.11466664
2557.59857666,0.11450550
2559.52738403,0.11443657
2561.45619141,0.11437872
2563.38499878,0.11407330
2565.31380615,0.11379324
2567.24261353,0.11387926
2569.17142090,0.11361179
2571.10022827,0.11345205
2573.02903564,0.11321512
2574.95784302,0.11315951
2576.88665039,0.11301582
2578.81545776,0.11277543
2580.74426514,0.11283371
2582.67307251,0.11266199
2584.60187988,0.11251946
2586.53068726,0.11210842
2588.45949463,0.11198130
2590.38830200,0.11203163
2592.31710937,0.11172201
2594.24591675,0.11154155
2596.17472412,0.11146427
2598.10353149,0.11132905
2600.03233887,0.11111425
2601.96114624,0.11105731
2603.88995361,0.11084545
2605.81876099,0.11073432
2607.74756836,0.11058827
2609.67637573,0.11038660
2611.60518311,0.11026904
2613.53399048,0.10988996
2615.46279785,0.10982272
2617.39160522,0.10970125
2619.32041260,0.10952397
2621.24921997,0.10940376
2623.17802734,0.10930476
2625.10683472,0.10914458
2627.03564209,0.10886279
2628.96444946,0.10880783
2630.89325684,0.10855697
2632.82206421,0.10846028
2634.75087158,0.10824933
2636.67967895,0.10803615
2638.60848633,0.10797310
2640.53729370,0.10778682
2642.46610107,0.10770778
2644.39490845,0.10737573
2646.32371582,0.10737178
2648.25252319,0.10722269
2650.18133057,0.10694249
2652.11013794,0.10693695
2654.03894531,0.10670944
2655.96775269,0.10656630
2657.89656006,0.10643597
2659.82536743,0.10623060
2661.75417480,0.10592406
2663.68298218,0.10594784
2665.61178955,0.10577987
2667.54059692,0.10555298
2669.46940430,0.10560489
2671.39821167,0.10526563
2673.32701904,0.10513680
2675.25582642,0.10488967
2677.18463379,0.10475156
2679.11344116,0.10473779
2681.04224854,0.10456124
2682.97105591,0.10445044
2684.89986328,0.10420080
2686.82867065,0.10416163
2688.75747803,0.10389608
2690.68628540,0.10370778
2692.61509277,0.10358790
2694.54390015,0.10337470
2696.47270752,0.10326211
2698.40151489,0.10307619
2700.33032227,0.10301808
2702.25912964,0.10274629
2704.18793701,0.10263106
2706.11674438,0.10244296
2708.04555176,0.10226522
2709.97435913,0.10218533
2711.90316650,0.10188875
2713.83197388,0.10193951
2715.76078125,0.10176657
2717.68958862,0.10149698
2719.61839600,0.10131741
2721.54720337,0.10112191
2723.47601074,0.10107196
2725.40481812,0.10092749
2727.33362549,0.10073543
2729.26243286,0.10055170
2731.19124023,0.10044870
2733.12004761,0.10031062
2735.04885498,0.10017926
2736.97766235,0.09993695
2738.90646973,0.09986046
2740.83527710,0.09968051
2742.76408447,0.09937775
2744.69289185,0.09944330
2746.62169922,0.09912019
2748.55050659,0.09889947
2750.47931396,0.09881079
2752.40812134,0.09860508
2754.33692871,0.09852038
2756.26573608,0.09833056
2758.19454346,0.09829848
2760.12335083,0.09809799
2762.05215820,0.09787083
2763.98096558,0.09771918
2765.90977295,0.09743066
2767.83858032,0.09719778
2769.76738770,0.09717247
2771.69619507,0.09706217
2773.62500244,0.09678933
2775.55380981,0.09670617
2777.48261719,0.09652428
2779.41142456,0.09640907
2781.34023193,0.09619185
2783.26903931,0.09597458
2785.19784668,0.09583340
2787.12665405,0.09559947
2789.05546143,0.09555595
2790.98426880,0.09524456
2792.91307617,0.09505883
2794.84188354,0.09492582
2796.77069092,0.09472828
2798.69949829,0.09464861
2800.62830566,0.09445981
2802.55711304,0.09429871
2804.48592041,0.09398384
2806.41472778,0.09389929
2808.34353516,0.09375541
2810.27234253,0.09349444
2812.20114990,0.09339334
2814.12995728,0.09315731
2816.05876465,0.09292956
2817.98757202,0.09280222
2819.91637939,0.09266469
2821.84518677,0.09237847
2823.77399414,0.09233876
2825.70280151,0.09211394
2827.63160889,0.09183328
2829.56041626,0.09171152
2831.48922363,0.09139299
2833.41803101,0.09131961
2835.34683838,0.09114243
2837.27564575,0.09093510
2839.20445312,0.09064515
2841.13326050,0.09042513
2843.06206787,0.09010763
2844.99087524,0.08960099
2846.91968262,0.08927388
2848.84848999,0.08861545
2850.77729736,0.08850741
2852.70610474,0.08838525
2854.63491211,0.08810350
2856.56371948,0.08820018
2858.49252686,0.08792511
2860.42133423,0.08784052
2862.35014160,0.08779515
2864.27894897,0.08771068
2866.20775635,0.08750980
2868.13656372,0.08727044
2870.06537109,0.08716839
2871.99417847,0.08705567
2873.92298584,0.08700799
2875.85179321,0.08671579
2877.78060059,0.08657568
2879.70940796,0.08645304
2881.63821533,0.08640562
2883.56702270,0.08631976
2885.49583008,0.08619377
2887.42463745,0.08608811
2889.35344482,0.08574212
2891.28225220,0.08562182
2893.21105957,0.08529153
2895.13986694,0.08525839
2897.06867432,0.08505252
2898.99748169,0.08465055
2900.92628906,0.08473766
2902.85509644,0.08432500
2904.78390381,0.08409853
2906.71271118,0.08387223
2908.64151855,0.08356158
2910.57032593,0.08331414
2912.49913330,0.08288324
2914.42794067,0.08252543
2916.35674805,0.08204378
2918.28555542,0.08194032
2920.21436279,0.08178715
2922.14317017,0.08161148
2924.07197754,0.08141273
2926.00078491,0.08126559
2927.92959229,0.08135508
2929.85839966,0.08103728
2931.78720703,0.08106598
2933.71601440,0.08118626
2935.64482178,0.08109525
2937.57362915,0.08106437
2939.50243652,0.08100948
2941.43124390,0.08099361
2943.36005127,0.08089156
2945.28885864,0.08079764
2947.21766602,0.08067618
2949.14647339,0.08069639
2951.07528076,0.08049839
2953.00408813,0.08024103
2954.93289551,0.08000495
2956.86170288,0.07968009
2958.79051025,0.07952671
2960.71931763,0.07919490
2962.64812500,0.07910109
2964.57693237,0.07898875
2966.50573975,0.07887234
2968.43454712,0.07890428
2970.36335449,0.07881975
2972.29216187,0.07893905
2974.22096924,0.07897385
2976.14977661,0.07903685
2978.07858398,0.07892200
2980.00739136,0.07883818
2981.93619873,0.07902099
2983.86500610,0.07896078
2985.79381348,0.07880719
2987.72262085,0.07866637
2989.65142822,0.07862408
2991.58023560,0.07848282
2993.50904297,0.07835659
2995.43785034,0.07828724
2997.36665771,0.07816258
2999.29546509,0.07806697
3001.22427246,0.07793966
3003.15307983,0.07780132
3005.08188721,0.07749034
3007.01069458,0.07746482
3008.93950195,0.07739669
3010.86830933,0.07699612
3012.79711670,0.07683729
3014.72592407,0.07661382
3016.65473145,0.07652703
3018.58353882,0.07658539
3020.51234619,0.07636255
3022.44115356,0.07616927
3024.36996094,0.07600888
3026.29876831,0.07588583
3028.22757568,0.07581580
3030.15638306,0.07545376
3032.08519043,0.07516842
3034.01399780,0.07505041
3035.94280518,0.07497579
3037.87161255,0.07499167
3039.80041992,0.07476046
3041.72922729,0.07460232
3043.65803467,0.07443123
3045.58684204,0.07432104
3047.51564941,0.07419877
3049.44445679,0.07388513
3051.37326416,0.07391027
3053.30207153,0.07363834
3055.23087891,0.07335187
3057.15968628,0.07336479
3059.08849365,0.07328297
3061.01730103,0.07315816
3062.94610840,0.07289343
3064.87491577,0.07274790
3066.80372314,0.07250992
3068.73253052,0.07241219
3070.66133789,0.07237381
3072.59014526,0.07222399
3074.51895264,0.07215334
3076.44776001,0.07191221
3078.37656738,0.07173553
3080.30537476,0.07146482
3082.23418213,0.07135224
3084.16298950,0.07138313
3086.09179687,0.07123977
3088.02060425,0.07112533
3089.94941162,0.07100488
3091.87821899,0.07090136
3093.80702637,0.07063177
3095.73583374,0.07042284
3097.66464111,0.07039510
3099.59344849,0.07024840
3101.52225586,0.06993027
3103.45106323,0.06990099
3105.37987061,0.06988055
3107.30867798,0.06950015
3109.23748535,0.06935792
3111.16629272,0.06919204
3113.09510010,0.06900140
3115.02390747,0.06873009
3116.95271484,0.06851719
3118.88152222,0.06846787
3120.81032959,0.06825292
3122.73913696,0.06819155
3124.66794434,0.06802556
3126.59675171,0.06793793
3128.52555908,0.06780902
3130.45436645,0.06763828
3132.38317383,0.06741895
3134.31198120,0.06715135
3136.24078857,0.06716782
3138.16959595,0.06684446
3140.09840332,0.06673278
3142.02721069,0.06655020
3143.95601807,0.06631605
3145.88482544,0.06622422
3147.81363281,0.06585588
3149.74244019,0.06586316
3151.67124756,0.06551465
3153.60005493,0.06530353
3155.52886230,0.06529792
3157.45766968,0.06506743
3159.38647705,0.06501638
3161.31528442,0.06466623
3163.24409180,0.06456609
3165.17289917,0.06448536
3167.10170654,0.06421355
3169.03051392,0.06396554
3170.95932129,0.06379376
3172.88812866,0.06382185
3174.81693604,0.06359299
3176.74574341,0.06322163
3178.67455078,0.06305562
3180.60335815,0.06309897
3182.53216553,0.06290255
3184.46097290,0.06264161
3186.38978027,0.06250818
3188.31858765,0.06247398
3190.24739502,0.06224562
3192.17620239,0.06190590
3194.10500977,0.06192607
3196.03381714,0.06167892
3197.96262451,0.06151660
3199.89143188,0.06142718
3201.82023926,0.06138173
3203.74904663,0.06124369
3205.67785400,0.06095126
3207.60666138,0.06100620
3209.53546875,0.06070080
3211.46427612,0.06074744
3213.39308350,0.06055271
3215.32189087,0.06020086
3217.25069824,0.06040461
3219.17950562,0.06006528
3221.10831299,0.06005207
3223.03712036,0.05999786
3224.96592773,0.05974533
3226.89473511,0.05970527
3228.82354248,0.05953917
3230.75234985,0.05943531
3232.68115723,0.05930695
3234.60996460,0.05930280
3236.53877197,0.05923440
3238.46757935,0.05912209
3240.39638672,0.05889855
3242.32519409,0.05889220
3244.25400146,0.05874830
3246.18280884,0.05848502
3248.11161621,0.05861674
3250.04042358,0.05847393
3251.96923096,0.05849490
3253.89803833,0.05832122
3255.82684570,0.05817944
3257.75565308,0.05816412
3259.68446045,0.05802470
3261.61326782,0.05817202
3263.54207520,0.05787451
3265.47088257,0.05783227
3267.39968994,0.05789152
3269.32849731,0.05768505
3271.25730469,0.05762401
3273.18611206,0.05750237
3275.11491943,0.05734068
3277.04372681,0.05733226
3278.97253418,0.05751683
3280.90134155,0.05729347
3282.83014893,0.05717869
3284.75895630,0.05711810
3286.68776367,0.05706285
3288.61657104,0.05697945
3290.54537842,0.05671579
3292.47418579,0.05675575
3294.40299316,0.05663379
3296.33180054,0.05667958
3298.26060791,0.05645655
3300.18941528,0.05637668
3302.11822266,0.05644643
3304.04703003,0.05614857
3305.97583740,0.05619602
3307.90464478,0.05595779
3309.83345215,0.05604912
3311.76225952,0.05603679
3313.69106689,0.05589378
3315.61987427,0.05592368
3317.54868164,0.05576326
3319.47748901,0.05590271
3321.40629639,0.05554098
3323.33510376,0.05548551
3325.26391113,0.05543916
3327.19271851,0.05517867
3329.12152588,0.05529354
3331.05033325,0.05518844
3332.97914062,0.05521271
3334.90794800,0.05502236
3336.83675537,0.05483446
3338.76556274,0.05478948
3340.69437012,0.05481763
3342.62317749,0.05476685
3344.55198486,0.05461982
3346.48079224,0.05451276
3348.40959961,0.05430923
3350.33840698,0.05435027
3352.26721436,0.05410780
3354.19602173,0.05395868
3356.12482910,0.05395218
3358.05363647,0.05391481
3359.98244385,0.05380917
3361.91125122,0.05362263
3363.84005859,0.05356088
3365.76886597,0.05324175
3367.69767334,0.05329416
3369.62648071,0.05319175
3371.55528809,0.05319500
3373.48409546,0.05316504
3375.41290283,0.05292092
3377.34171020,0.05306556
3379.27051758,0.05276884
3381.19932495,0.05275612
3383.12813232,0.05253463
3385.05693970,0.05231815
3386.98574707,0.05239607
3388.91455444,0.05233262
3390.84336182,0.05217549
3392.77216919,0.05173948
3394.70097656,0.05199794
3396.62978394,0.05177522
3398.55859131,0.05159969
3400.48739868,0.05156025
3402.41620605,0.05126266
3404.34501343,0.05149370
3406.27382080,0.05124190
3408.20262817,0.05127157
3410.13143555,0.05120728
3412.06024292,0.05104987
3413.98905029,0.05091261
3415.91785767,0.05084421
3417.84666504,0.05096736
3419.77547241,0.05043703
3421.70427979,0.05031838
3423.63308716,0.05035426
3425.56189453,0.05045088
3427.49070190,0.05024084
3429.41950928,0.05006132
3431.34831665,0.05009200
3433.27712402,0.04987265
3435.20593140,0.04992317
3437.13473877,0.04959637
3439.06354614,0.04985144
3440.99235352,0.04952627
3442.92116089,0.04927240
3444.84996826,0.04952700
3446.77877563,0.04868229
3448.70758301,0.04897773
3450.63639038,0.04931552
3452.56519775,0.04915860
3454.49400513,0.04908232
3456.42281250,0.04887890
3458.35161987,0.04896161
3460.28042725,0.04868499
3462.20923462,0.04852585
3464.13804199,0.04861338
3466.06684937,0.04862744
3467.99565674,0.04834134
3469.92446411,0.04847676
3471.85327148,0.04854836
3473.78207886,0.04833965
3475.71088623,0.04824777
3477.63969360,0.04813262
3479.56850098,0.04826964
3481.49730835,0.04760984
3483.42611572,0.04770995
3485.35492310,0.04808050
3487.28373047,0.04767445
3489.21253784,0.04781970
3491.14134521,0.04794491
3493.07015259,0.04799383
3494.99895996,0.04770038
3496.92776733,0.04763281
3498.85657471,0.04775547
3500.78538208,0.04765069
3502.71418945,0.04687383
3504.64299683,0.04682481
3506.57180420,0.04786727
3508.50061157,0.04719473
3510.42941895,0.04704750
3512.35822632,0.04743391
3514.28703369,0.04746512
3516.21584106,0.04764365
3518.14464844,0.04723796
3520.07345581,0.04743760
3522.00226318,0.04700501
3523.93107056,0.04639177
3525.85987793,0.04656596
3527.78868530,0.04653639
3529.71749268,0.04647378
3531.64630005,0.04696065
3533.57510742,0.04738209
3535.50391479,0.04677090
3537.43272217,0.04659103
3539.36152954,0.04717288
3541.29033691,0.04731338
3543.21914429,0.04675185
3545.14795166,0.04579260
3547.07675903,0.04512969
3549.00556641,0.04645098
3550.93437378,0.04689656
3552.86318115,0.04567371
3554.79198853,0.04671313
3556.72079590,0.04691834
3558.64960327,0.04657469
3560.57841064,0.04635082
3562.50721802,0.04598861
3564.43602539,0.04629203
3566.36483276,0.04315430
3568.29364014,0.04199469
3570.22244751,0.04550118
3572.15125488,0.04672404
3574.08006226,0.04611134
3576.00886963,0.04637286
3577.93767700,0.04620383
3579.86648437,0.04609015
3581.79529175,0.04617391
3583.72409912,0.04623650
3585.65290649,0.04533407
3587.58171387,0.04146409
3589.51052124,0.04262341
3591.43932861,0.04650698
3593.36813599,0.04506403
3595.29694336,0.04431773
3597.22575073,0.04522041
3599.15455811,0.04556644
3601.08336548,0.04498955
3603.01217285,0.04544021
3604.94098022,0.04642201
3606.86978760,0.04469011
3608.79859497,0.04206483
3610.72740234,0.04303829
3612.65620972,0.04391303
3614.58501709,0.04255200
3616.51382446,0.04569199
3618.44263184,0.04229495
3620.37143921,0.04073007
3622.30024658,0.04604303
3624.22905395,0.04477804
3626.15786133,0.04678383
3628.08666870,0.03963980
3630.01547607,0.03595178
3631.94428345,0.04545506
3633.87309082,0.04438584
3635.80189819,0.04503906
3637.73070557,0.04597554
3639.65951294,0.04522635
3641.58832031,0.04567198
3643.51712769,0.04503478
3645.44593506,0.04538039
3647.37474243,0.04071481
3649.30354980,0.03725060
3651.23235718,0.03763179
3653.16116455,0.04499942
3655.08997192,0.04451242
3657.01877930,0.03968394
3658.94758667,0.04582622
3660.87639404,0.04479011
3662.80520142,0.04542865
3664.73400879,0.04525300
3666.66281616,0.04470084
3668.59162354,0.04356789
3670.52043091,0.03527226
3672.44923828,0.04281414
3674.37804565,0.04089326
3676.30685303,0.03360214
3678.23566040,0.04252283
3680.16446777,0.04357701
3682.09327515,0.04365097
3684.02208252,0.04489620
3685.95088989,0.04410525
3687.87969727,0.03975150
3689.80850464,0.03631893
3691.73731201,0.04153198
3693.66611938,0.04288903
3695.59492676,0.04395886
3697.52373413,0.04386935
3699.45254150,0.04334384
3701.38134888,0.04226866
3703.31015625,0.04061496
3705.23896362,0.04474599
3707.16777100,0.04256354
3709.09657837,0.04152211
3711.02538574,0.03904296
3712.95419312,0.03648420
3714.88300049,0.04289627
3716.81180786,0.04224459
3718.74061523,0.04263260
3720.66942261,0.04173524
3722.59822998,0.04023012
3724.52703735,0.04170713
3726.45584473,0.03851238
3728.38465210,0.04188187
3730.31345947,0.04147108
3732.24226685,0.03803916
3734.17107422,0.03707207
3736.09988159,0.03512564
3738.02868896,0.03734270
3739.95749634,0.04045381
3741.88630371,0.04240523
3743.81511108,0.03284492
3745.74391846,0.03088022
3747.67272583,0.04035335
3749.60153320,0.03449710
3751.53034058,0.03167628
3753.45914795,0.03661226
3755.38795532,0.03942294
3757.31676270,0.04108509
3759.24557007,0.03796320
3761.17437744,0.03930543
3763.10318481,0.04174927
3765.03199219,0.03893830
3766.96079956,0.03977347
3768.88960693,0.03924522
3770.81841431,0.03744975
3772.74722168,0.04057012
3774.67602905,0.04068016
3776.60483643,0.04068644
3778.53364380,0.03952955
3780.46245117,0.03797475
3782.39125854,0.04055276
3784.32006592,0.03969861
3786.24887329,0.03940088
3788.17768066,0.04017746
3790.10648804,0.04005715
3792.03529541,0.03975739
3793.96410278,0.04035525
3795.89291016,0.03802453
3797.82171753,0.03740792
3799.75052490,0.03955876
3801.67933228,0.03129309
3803.60813965,0.03643797
3805.53694702,0.03982002
3807.46575439,0.03232661
3809.39456177,0.03923509
3811.32336914,0.03858436
3813.25217651,0.03991276
3815.18098389,0.03603739
3817.10979126,0.03136078
3819.03859863,0.03988121
3820.96740601,0.03214322
3822.89621338,0.03377447
3824.82502075,0.03963609
3826.75382812,0.03562922
3828.68263550,0.03850210
3830.61144287,0.03699633
3832.54025024,0.03572146
3834.46905762,0.03649061
3836.39786499,0.03466908
3838.32667236,0.03132418
3840.25547974,0.03379717
3842.18428711,0.03655612
3844.11309448,0.03477296
3846.04190186,0.03768544
3847.97070923,0.03726567
3849.89951660,0.03722383
3851.82832397,0.03345717
3853.75713135,0.02492039
3855.68593872,0.02959764
3857.61474609,0.03732479
3859.54355347,0.03628019
3861.47236084,0.03579225
3863.40116821,0.03507833
3865.32997559,0.03255152
3867.25878296,0.03644607
3869.18759033,0.03323105
3871.11639770,0.03058897
3873.04520508,0.03645565
3874.97401245,0.03343078
3876.90281982,0.03620344
3878.83162720,0.03687961
3880.76043457,0.03142291
3882.68924194,0.03629299
3884.61804932,0.03391616
3886.54685669,0.03109618
3888.47566406,0.03641667
3890.40447144,0.03437362
3892.33327881,0.03217436
3894.26208618,0.03546470
3896.19089355,0.03613820
3898.11970093,0.03424460
3900.04850830,0.03238860
3901.97731567,0.03198101
3903.90612305,0.03166160
3905.83493042,0.03221610
3907.76373779,0.03529844
3909.69254517,0.03522765
3911.62135254,0.03483523
3913.55015991,0.03551107
3915.47896728,0.03429670
3917.40777466,0.03337864
3919.33658203,0.03308818
3921.26538940,0.03432501
3923.19419678,0.03421444
3925.12300415,0.03352311
3927.05181152,0.03406909
3928.98061890,0.03443794
3930.90942627,0.03382510
3932.83823364,0.03252641
3934.76704102,0.03386264
3936.69584839,0.03430188
3938.62465576,0.03402662
3940.55346313,0.03425516
3942.48227051,0.03287920
3944.41107788,0.03322890
3946.33988525,0.03375775
3948.26869263,0.03293679
3950.19750000,0.03294079
3952.12630737,0.03348415
3954.05511475,0.03344368
3955.98392212,0.03335985
3957.91272949,0.03337608
3959.84153687,0.03334137
3961.77034424,0.03307687
3963.69915161,0.03282674
3965.62795898,0.03327248
3967.55676636,0.03295662
3969.48557373,0.03293383
3971.41438110,0.03292305
3973.34318848,0.03266432
3975.27199585,0.03271791
3977.20080322,0.03251781
3979.12961060,0.03292988
3981.05841797,0.03248885
3982.98722534,0.03243653
3984.91603271,0.03252159
3986.84484009,0.03224386
3988.77364746,0.03245006
3990.70245483,0.03203135
3992.63126221,0.03222207
3994.56006958,0.03211301
3996.48887695,0.03202104
3998.41768433,0.03201906
4000.34649170,0.03184367
4002.27529907,0.03188931
4004.20410645,0.03164665
4006.13291382,0.03186955
4008.06172119,0.03154460
4009.99052856,0.03150396
4011.91933594,0.03157047
4013.84814331,0.03140474
4015.77695068,0.03147697
4017.70575806,0.03129400
4019.63456543,0.03129703
4021.56337280,0.03109764
4023.49218018,0.03124530
4025.42098755,0.03101725
4027.34979492,0.03095894
4029.27860229,0.03106168
4031.20740967,0.03071744
4033.13621704,0.03086277
4035.06502441,0.03068104
4036.99383179,0.03071079
4038.92263916,0.03053915
4040.85144653,0.03046414
4042.78025391,0.03055026
4044.70906128,0.03030017
4046.63786865,0.03036119
4048.56667603,0.03019989
4050.49548340,0.03020909
4052.42429077,0.03011094
4054.35309814,0.03007762
4056.28190552,0.03002048
4058.21071289,0.02991502
4060.13952026,0.02993633
4062.06832764,0.02983204
4063.99713501,0.02986875
4065.92594238,0.02960571
4067.85474976,0.02965793
4069.78355713,0.02953449
4071.71236450,0.02941210
4073.64117187,0.02943377
4075.56997925,0.02924652
4077.49878662,0.02931197
4079.42759399,0.02911711
4081.35640137,0.02916934
4083.28520874,0.02903153
4085.21401611,0.02901226
4087.14282349,0.02900999
4089.07163086,0.02875291
4091.00043823,0.02884701
4092.92924561,0.02875060
4094.85805298,0.02879545
4096.78686035,0.02862276
4098.71566772,0.02866314
4100.64447510,0.02861449
4102.57328247,0.02839374
4104.50208984,0.02846667
4106.43089722,0.02820991
4108.35970459,0.02828434
4110.28851196,0.02820848
4112.21731934,0.02810292
4114.14612671,0.02811613
4116.07493408,0.02807714
4118.00374145,0.02801386
4119.93254883,0.02784489
4121.86135620,0.02788201
4123.79016357,0.02777848
4125.71897095,0.02780493
4127.64777832,0.02757331
4129.57658569,0.02753162
4131.50539307,0.02759079
4133.43420044,0.02743194
4135.36300781,0.02748961
4137.29181519,0.02725711
4139.22062256,0.02727295
4141.14942993,0.02717634
4143.07823730,0.02712234
4145.00704468,0.02712310
4146.93585205,0.02697805
4148.86465942,0.02703742
4150.79346680,0.02693218
4152.72227417,0.02688362
4154.65108154,0.02669906
4156.57988892,0.02674894
4158.50869629,0.02670544
4160.43750366,0.02659859
4162.36631103,0.02661974
4164.29511841,0.02647701
4166.22392578,0.02650572
4168.15273315,0.02632473
4170.08154053,0.02635047
4172.01034790,0.02622785
4173.93915527,0.02619311
4175.86796265,0.02625524
4177.79677002,0.02598164
4179.72557739,0.02601060
4181.65438477,0.02594477
4183.58319214,0.02592836
4185.51199951,0.02581312
4187.44080688,0.02580503
4189.36961426,0.02578892
4191.29842163,0.02569320
4193.22722900,0.02569417
4195.15603638,0.02551814
4197.08484375,0.02560060
4199.01365112,0.02541064
4200.94245850,0.02541385
4202.87126587,0.02540259
4204.80007324,0.02521742
4206.72888062,0.02527998
4208.65768799,0.02513473
4210.58649536,0.02513321
4212.51530273,0.02504184
4214.44411011,0.02507177
4216.37291748,0.02498574
4218.30172485,0.02494133
4220.23053223,0.02487947
4222.15933960,0.02465877
4224.08814697,0.02479830
4226.01695435,0.02463295
4227.94576172,0.02466549
4229.87456909,0.02457655
4231.80337646,0.02446127
4233.73218384,0.02447570
4235.66099121,0.02429929
4237.58979858,0.02438346
4239.51860596,0.02422598
4241.44741333,0.02425610
4243.37622070,0.02414953
4245.30502808,0.02405951
4247.23383545,0.02419373
4249.16264282,0.02403785
4251.09145020,0.02394085
4253.02025757,0.02387806
4254.94906494,0.02392361
4256.87787231,0.02376720
4258.80667969,0.02377521
4260.73548706,0.02373717
4262.66429443,0.02364953
4264.59310181,0.02368361
4266.52190918,0.02347492
4268.45071655,0.02350309
4270.37952393,0.02337147
4272.30833130,0.02340576
4274.23713867,0.02337682
4276.16594604,0.02318887
4278.09475342,0.02324306
4280.02356079,0.02312273
4281.95236816,0.02309575
4283.88117554,0.02303502
4285.80998291,0.02301993
4287.73879028,0.02293834
4289.66759766,0.02293045
4291.59640503,0.02285523
4293.52521240,0.02270168
4295.45401978,0.02273507
4297.38282715,0.02260982
4299.31163452,0.02267344
4301.24044189,0.02253266
4303.16924927,0.02250250
4305.09805664,0.02252100
4307.02686401,0.02241066
4308.95567139,0.02250362
4310.88447876,0.02234456
4312.81328613,0.02235862
4314.74209351,0.02223430
4316.67090088,0.02215043
4318.59970825,0.02215087
4320.52851562,0.02204258
4322.45732300,0.02208316
4324.38613037,0.02193921
4326.31493774,0.02197000
4328.24374512,0.02192710
4330.17255249,0.02182138
4332.10135986,0.02172739
4334.03016724,0.02164320
4335.95897461,0.02168557
4337.88778198,0.02162580
4339.81658936,0.02158803
4341.74539673,0.02146574
4343.67420410,0.02153345
4345.60301147,0.02153790
4347.53181885,0.02141985
4349.46062622,0.02138101
4351.38943359,0.02126605
4353.31824097,0.02122564
4355.24704834,0.02116567
4357.17585571,0.02117500
4359.10466309,0.02110983
4361.03347046,0.02103455
4362.96227783,0.02103049
4364.89108520,0.02096090
4366.81989258,0.02082270
4368.74869995,0.02078605
4370.67750732,0.02083614
4372.60631470,0.02073892
4374.53512207,0.02069652
4376.46392944,0.02059959
4378.39273682,0.02062810
4380.32154419,0.02052849
4382.25035156,0.02039136
4384.17915894,0.02049263
4386.10796631,0.02039080
4388.03677368,0.02040397
4389.96558105,0.02033832
4391.89438843,0.02029862
4393.82319580,0.02023596
4395.75200317,0.02012927
4397.68081055,0.02015448
4399.60961792,0.02003120
4401.53842529,0.02003044
4403.46723267,0.01993983
4405.39604004,0.01994757
4407.32484741,0.01986185
4409.25365478,0.01974249
4411.18246216,0.01982935
4413.11126953,0.01974722
4415.04007690,0.01975094
4416.96888428,0.01965657
4418.89769165,0.01961432
4420.82649902,0.01956051
4422.75530640,0.01956178
4424.68411377,0.01950916
4426.61292114,0.01935131
4428.54172852,0.01941948
4430.47053589,0.01925506
4432.39934326,0.01928443
4434.32815063,0.01928260
4436.25695801,0.01923753
4438.18576538,0.01925190
4440.11457275,0.01908363
4442.04338013,0.01910400
4443.97218750,0.01899759
4445.90099487,0.01902150
4447.82980225,0.01893652
4449.75860962,0.01883235
4451.68741699,0.01888452
4453.61622437,0.01874065
4455.54503174,0.01877697
4457.47383911,0.01872899
4459.40264648,0.01862554
4461.33145386,0.01862174
4463.26026123,0.01860433
4465.18906860,0.01849153
4467.11787598,0.01850548
4469.04668335,0.01848104
4470.97549072,0.01828377
4472.90429810,0.01838877
4474.83310547,0.01832804
4476.76191284,0.01827024
4478.69072021,0.01827651
4480.61952759,0.01813639
4482.54833496,0.01810931
4484.47714233,0.01808090
4486.40594971,0.01802685
4488.33475708,0.01794264
4490.26356445,0.01794992
4492.19237183,0.01785575
4494.12117920,0.01787199
4496.04998657,0.01784501
4497.97879395,0.01768780
4499.90760132,0.01771768
4501.83640869,0.01763212
4503.76521606,0.01769252
4505.69402344,0.01761772
4507.62283081,0.01753591
4509.55163818,0.01759900
4511.48044556,0.01748293
4513.40925293,0.01747271
4515.33806030,0.01738863
4517.26686768,0.01731031
4519.19567505,0.01723708
4521.12448242,0.01722043
4523.05328979,0.01722334
4524.98209717,0.01714893
4526.91090454,0.01716224
4528.83971191,0.01708239
4530.76851929,0.01705627
4532.69732666,0.01699993
4534.62613403,0.01687714
4536.55494141,0.01687877
4538.48374878,0.01686862
4540.41255615,0.01678914
4542.34136353,0.01685348
4544.27017090,0.01684560
4546.19897827,0.01666186
4548.12778564,0.01667223
4550.05659302,0.01657894
4551.98540039,0.01652747
4553.91420776,0.01654969
4555.84301514,0.01645397
4557.77182251,0.01648502
4559.70062988,0.01648945
4561.62943726,0.01642147
4563.55824463,0.01630794
4565.48705200,0.01630904
4567.41585937,0.01626792
4569.34466675,0.01620879
4571.27347412,0.01628049
4573.20228149,0.01621391
4575.13108887,0.01612949
4577.05989624,0.01605763
4578.98870361,0.01608380
4580.91751099,0.01611231
4582.84631836,0.01598825
4584.77512573,0.01587972
4586.70393311,0.01587955
4588.63274048,0.01587378
4590.56154785,0.01578473
4592.49035522,0.01578478
4594.41916260,0.01572208
4596.34796997,0.01560505
4598.27677734,0.01558031
4600.20558472,0.01557775
4602.13439209,0.01550364
4604.06319946,0.01552255
4605.99200684,0.01559142
4607.92081421,0.01545139
4609.84962158,0.01542068
4611.77842895,0.01539701
4613.70723633,0.01532922
4615.63604370,0.01529941
4617.56485107,0.01525515
4619.49365845,0.01523692
4621.42246582,0.01517018
4623.35127319,0.01518540
4625.28008057,0.01507528
4627.20888794,0.01501622
4629.13769531,0.01506491
4631.06650269,0.01500328
4632.99531006,0.01495073
4634.92411743,0.01491707
4636.85292480,0.01498131
4638.78173218,0.01492725
4640.71053955,0.01483925
4642.63934692,0.01479253
4644.56815430,0.01474386
4646.49696167,0.01468178
4648.42576904,0.01461675
4650.35457642,0.01466002
4652.28338379,0.01457324
4654.21219116,0.01455469
4656.14099853,0.01452310
4658.06980591,0.01441668
4659.99861328,0.01446497
4661.92742065,0.01450963
4663.85622803,0.01443282
4665.78503540,0.01431363
4667.71384277,0.01435650
4669.64265015,0.01429526
4671.57145752,0.01422365
4673.50026489,0.01424212
4675.42907227,0.01419994
4677.35787964,0.01416919
4679.28668701,0.01407500
4681.21549438,0.01408632
4683.14430176,0.01406547
4685.07310913,0.01394744
4687.00191650,0.01401503
4688.93072388,0.01407017
4690.85953125,0.01386885
4692.78833862,0.01385350
4694.71714600,0.01388569
4696.64595337,0.01377596
4698.57476074,0.01385082
4700.50356812,0.01372599
4702.43237549,0.01371785
4704.36118286,0.01368546
4706.28999023,0.01351100
4708.21879761,0.01366615
4710.14760498,0.01362816
4712.07641235,0.01346156
4714.00521973,0.01340676
4715.93402710,0.01347611
4717.86283447,0.01342631
4719.79164185,0.01337120
4721.72044922,0.01340326
4723.64925659,0.01330187
4725.57806396,0.01330660
4727.50687134,0.01327568
4729.43567871,0.01335881
4731.36448608,0.01325575
4733.29329346,0.01312775
4735.22210083,0.01314952
4737.15090820,0.01306248
4739.07971558,0.01313906
4741.00852295,0.01297148
4742.93733032,0.01297346
4744.86613770,0.01304710
4746.79494507,0.01297353
4748.72375244,0.01297623
4750.65255981,0.01287755
4752.58136719,0.01288853
4754.51017456,0.01277048
4756.43898193,0.01280272
4758.36778931,0.01280558
4760.29659668,0.01276124
4762.22540405,0.01278003
4764.15421143,0.01263913
4766.08301880,0.01264408
4768.01182617,0.01256591
4769.94063354,0.01260994
4771.86944092,0.01259406
4773.79824829,0.01255276
4775.72705566,0.01251416
4777.65586304,0.01239041
4779.58467041,0.01242895
4781.51347778,0.01228248
4783.44228516,0.01232762
4785.37109253,0.01234701
4787.29989990,0.01235492
4789.22870728,0.01231644
4791.15751465,0.01214156
4793.08632202,0.01225763
4795.01512939,0.01213146
4796.94393677,0.01212012
4798.87274414,0.01213449
4800.80155151,0.01205617
4802.73035889,0.01210417
4804.65916626,0.01204347
4806.58797363,0.01205270
4808.51678101,0.01194784
4810.44558838,0.01198868
4812.37439575,0.01202348
4814.30320312,0.01186855
4816.23201050,0.01182060
4818.16081787,0.01179288
4820.08962524,0.01176065
4822.01843262,0.01174294
4823.94723999,0.01177409
4825.87604736,0.01173844
4827.80485474,0.01172138
4829.73366211,0.01164937
4831.66246948,0.01159932
4833.59127686,0.01160707
4835.52008423,0.01151149
4837.44889160,0.01151471
4839.37769897,0.01158848
4841.30650635,0.01155534
4843.23531372,0.01135047
4845.16412109,0.01136169
4847.09292847,0.01142002
4849.02173584,0.01132529
4850.95054321,0.01135454
4852.87935059,0.01133419
4854.80815796,0.01127115
4856.73696533,0.01122171
4858.66577270,0.01122790
4860.59458008,0.01121335
4862.52338745,0.01125023
4864.45219482,0.01121207
4866.38100220,0.01112066
4868.30980957,0.01113741
4870.23861694,0.01103782
4872.16742432,0.01109658
4874.09623169,0.01106588
4876.02503906,0.01096104
4877.95384644,0.01093564
4879.88265381,0.01089899
4881.81146118,0.01091002
4883.74026855,0.01080843
4885.66907593,0.01088336
4887.59788330,0.01083878
4889.52669067,0.01075825
4891.45549805,0.01078808
4893.38430542,0.01070978
4895.31311279,0.01068427
4897.24192017,0.01068707
4899.17072754,0.01074888
4901.09953491,0.01060916
4903.02834228,0.01060178
4904.95714966,0.01063747
4906.88595703,0.01055271
4908.81476440,0.01056119
4910.74357178,0.01046847
4912.67237915,0.01049492
4914.60118652,0.01040324
4916.52999390,0.01042783
4918.45880127,0.01045711
4920.38760864,0.01032189
4922.31641602,0.01035868
4924.24522339,0.01029737
4926.17403076,0.01036078
4928.10283813,0.01029806
4930.03164551,0.01019493
4931.96045288,0.01026702
4933.88926025,0.01021368
4935.81806763,0.01016287
4937.74687500,0.01005321
4939.67568237,0.01000555
4941.60448975,0.01002472
4943.53329712,0.00998311
4945.46210449,0.00994818
4947.39091187,0.00998647
4949.31971924,0.00996491
4951.24852661,0.00989745
4953.17733398,0.00989639
4955.10614136,0.00988930
4957.03494873,0.00988564
4958.96375610,0.00984168
4960.89256348,0.00985334
4962.82137085,0.00978265
4964.75017822,0.00977747
4966.67898560,0.00975022
4968.60779297,0.00959941
4970.53660034,0.00968685
4972.46540771,0.00965435
4974.39421509,0.00961509
4976.32302246,0.00960470
4978.25182983,0.00956677
4980.18063721,0.00954831
4982.10944458,0.00946056
4984.03825195,0.00951867
4985.96705933,0.00944167
4987.89586670,0.00937158
4989.82467407,0.00944039
4991.75348145,0.00944476
4993.68228882,0.00931334
4995.61109619,0.00928435
4997.53990356,0.00935109
4999.46871094,0.00927270
5001.39751831,0.00934995
5003.32632568,0.00922939
5005.25513306,0.00920972
5007.18394043,0.00931759
5009.11274780,0.00915384
5011.04155518,0.00921263
5012.97036255,0.00917740
5014.89916992,0.00913570
5016.82797729,0.00914747
5018.75678467,0.00904048
5020.68559204,0.00903221
5022.61439941,0.00901966
5024.54320679,0.00899220
5026.47201416,0.00894921
5028.40082153,0.00896265
5030.32962891,0.00892590
5032.25843628,0.00888164
5034.18724365,0.00888005
5036.11605103,0.00885804
5038.04485840,0.00883650
5039.97366577,0.00879633
5041.90247314,0.00876188
5043.83128052,0.00866719
5045.76008789,0.00870407
5047.68889526,0.00872412
5049.61770264,0.00868063
5051.54651001,0.00867436
5053.47531738,0.00861073
5055.40412476,0.00864088
5057.33293213,0.00866131
5059.26173950,0.00866681
5061.19054687,0.00860350
5063.11935425,0.00854843
5065.04816162,0.00854761
5066.97696899,0.00848022
5068.90577637,0.00845155
5070.83458374,0.00841598
5072.76339111,0.00845995
5074.69219849,0.00842048
5076.62100586,0.00836406
5078.54981323,0.00842133
5080.47862061,0.00834532
5082.40742798,0.00834785
5084.33623535,0.00833593
5086.26504272,0.00823669
5088.19385010,0.00829848
5090.12265747,0.00828746
5092.05146484,0.00823520
5093.98027222,0.00825187
5095.90907959,0.00812229
5097.83788696,0.00807528
5099.76669434,0.00817406
5101.69550171,0.00817815
5103.62430908,0.00809818
5105.55311645,0.00807826
5107.48192383,0.00805620
5109.41073120,0.00796685
5111.33953857,0.00804011
5113.26834595,0.00802054
5115.19715332,0.00800731
5117.12596069,0.00799387
5119.05476807,0.00785495
5120.98357544,0.00796607
5122.91238281,0.00786584
5124.84119019,0.00781122
5126.76999756,0.00789429
5128.69880493,0.00780290
5130.62761230,0.00784680
5132.55641968,0.00781311
5134.48522705,0.00776099
5136.41403442,0.00766639
5138.34284180,0.00772306
5140.27164917,0.00777435
5142.20045654,0.00760840
5144.12926392,0.00763089
5146.05807129,0.00762739
5147.98687866,0.00763658
5149.91568603,0.00756920
5151.84449341,0.00752938
5153.77330078,0.00752334
5155.70210815,0.00744579
5157.63091553,0.00752281
5159.55972290,0.00746481
5161.48853027,0.00745561
5163.41733765,0.00738881
5165.34614502,0.00735034
5167.27495239,0.00749206
5169.20375977,0.00736450
5171.13256714,0.00731372
5173.06137451,0.00743544
5174.99018188,0.00744928
5176.91898926,0.00731960
5178.84779663,0.00724357
5180.77660400,0.00728351
5182.70541138,0.00725408
5184.63421875,0.00724559
5186.56302612,0.00724152
5188.49183350,0.00721710
5190.42064087,0.00720645
5192.34944824,0.00717392
5194.27825562,0.00718469
5196.20706299,0.00714406
5198.13587036,0.00703807
5200.06467773,0.00712453
5201.99348511,0.00713945
5203.92229248,0.00704136
5205.85109985,0.00693177
5207.77990723,0.00675098
5209.70871460,0.00691700
5211.63752197,0.00702326
5213.56632935,0.00697289
5215.49513672,0.00700855
5217.42394409,0.00693964
5219.35275146,0.00690543
5221.28155884,0.00684001
5223.21036621,0.00687207
5225.13917358,0.00674981
5227.06798096,0.00670070
5228.99678833,0.00688213
5230.92559570,0.00680062
5232.85440308,0.00681170
5234.78321045,0.00679096
5236.71201782,0.00675366
5238.64082520,0.00674566
5240.56963257,0.00673428
5242.49843994,0.00673405
5244.42724731,0.00658892
5246.35605469,0.00666437
5248.28486206,0.00651216
5250.21366943,0.00648201
5252.14247681,0.00676042
5254.07128418,0.00652717
5256.00009155,0.00643029
5257.92889893,0.00658313
5259.85770630,0.00661850
5261.78651367,0.00657990
5263.71532104,0.00635736
5265.64412842,0.00631290
5267.57293579,0.00649020
5269.50174316,0.00647327
5271.43055054,0.00642087
5273.35935791,0.00646087
5275.28816528,0.00640756
5277.21697266,0.00647396
5279.14578003,0.00644465
5281.07458740,0.00631147
5283.00339478,0.00639661
5284.93220215,0.00633001
5286.86100952,0.00626303
5288.78981689,0.00627304
5290.71862427,0.00622913
5292.64743164,0.00627915
5294.57623901,0.00624600
5296.50504639,0.00624371
5298.43385376,0.00623748
5300.36266113,0.00620453
5302.29146851,0.00623939
5304.22027588,0.00621997
5306.14908325,0.00616978
5308.07789062,0.00608494
5310.00669800,0.00618964
5311.93550537,0.00617107
5313.86431274,0.00603798
5315.79312012,0.00609198
5317.72192749,0.00603945
5319.65073486,0.00615816
5321.57954224,0.00609742
5323.50834961,0.00599468
5325.43715698,0.00608650
5327.36596436,0.00586996
5329.29477173,0.00590810
5331.22357910,0.00592140
5333.15238647,0.00581102
5335.08119385,0.00594381
5337.01000122,0.00581338
5338.93880859,0.00560710
5340.86761597,0.00581379
5342.79642334,0.00588546
5344.72523071,0.00559420
5346.65403809,0.00577988
5348.58284546,0.00583572
5350.51165283,0.00571885
5352.44046020,0.00577807
5354.36926758,0.00555278
5356.29807495,0.00567727
5358.22688232,0.00573772
5360.15568970,0.00572693
5362.08449707,0.00573550
5364.01330444,0.00559527
5365.94211182,0.00573596
5367.87091919,0.00563233
5369.79972656,0.00567544
5371.72853394,0.00574082
5373.65734131,0.00565013
5375.58614868,0.00562499
5377.51495605,0.00541885
5379.44376343,0.00555876
5381.37257080,0.00567771
5383.30137817,0.00560719
5385.23018555,0.00555479
5387.15899292,0.00545426
5389.08780029,0.00550227
5391.01660767,0.00553503
5392.94541504,0.00542218
5394.87422241,0.00534630
5396.80302978,0.00543475
5398.73183716,0.00540254
5400.66064453,0.00540843
5402.58945190,0.00540861
5404.51825928,0.00534415
5406.44706665,0.00541701
5408.37587402,0.00532386
5410.30468140,0.00527496
5412.23348877,0.00523276
5414.16229614,0.00513040
5416.09110352,0.00522232
5418.01991089,0.00529497
5419.94871826,0.00525702
5421.87752563,0.00529228
5423.80633301,0.00525863
5425.73514038,0.00515868
5427.66394775,0.00518251
5429.59275513,0.00501904
5431.52156250,0.00511585
5433.45036987,0.00523916
5435.37917725,0.00496126
5437.30798462,0.00512757
5439.23679199,0.00520759
5441.16559936,0.00500293
5443.09440674,0.00506495
5445.02321411,0.00500351
5446.95202148,0.00495616
5448.88082886,0.00505602
5450.80963623,0.00493074
5452.73844360,0.00498751
5454.66725098,0.00509170
5456.59605835,0.00490835
5458.52486572,0.00503112
5460.45367310,0.00495372
5462.38248047,0.00484010
5464.31128784,0.00497880
5466.24009521,0.00487515
5468.16890259,0.00490657
5470.09770996,0.00486145
5472.02651733,0.00491561
5473.95532471,0.00489153
5475.88413208,0.00468756
5477.81293945,0.00479424
5479.74174683,0.00484023
5481.67055420,0.00487485
5483.59936157,0.00479373
5485.52816895,0.00489203
5487.45697632,0.00492876
5489.38578369,0.00473097
5491.31459106,0.00484706
5493.24339844,0.00467650
5495.17220581,0.00464714
5497.10101318,0.00478129
5499.02982056,0.00464687
5500.95862793,0.00470528
5502.88743530,0.00473649
5504.81624268,0.00467045
5506.74505005,0.00458155
5508.67385742,0.00460357
5510.60266479,0.00466414
5512.53147217,0.00461597
5514.46027954,0.00462179
5516.38908691,0.00458818
5518.31789429,0.00455368
5520.24670166,0.00455449
5522.17550903,0.00452818
5524.10431641,0.00451369
5526.03312378,0.00456577
5527.96193115,0.00457258
5529.89073853,0.00453458
5531.81954590,0.00454768
5533.74835327,0.00447031
5535.67716064,0.00444377
5537.60596802,0.00450413
5539.53477539,0.00443146
5541.46358276,0.00437167
5543.39239014,0.00444442
5545.32119751,0.00448161
5547.25000488,0.00443817
5549.17881226,0.00438506
5551.10761963,0.00432849
5553.03642700,0.00435873
5554.96523437,0.00441825
5556.89404175,0.00437972
5558.82284912,0.00436900
5560.75165649,0.00434757
5562.68046387,0.00434486
5564.60927124,0.00440471
5566.53807861,0.00433161
5568.46688599,0.00432779
5570.39569336,0.00435582
5572.32450073,0.00428856
5574.25330811,0.00427676
5576.18211548,0.00425348
5578.11092285,0.00426261
5580.03973022,0.00418806
5581.96853760,0.00421253
5583.89734497,0.00430649
5585.82615234,0.00416878
5587.75495972,0.00417176
5589.68376709,0.00421166
5591.61257446,0.00415698
5593.54138184,0.00413713
5595.47018921,0.00412710
5597.39899658,0.00414046
5599.32780395,0.00412044
5601.25661133,0.00411453
5603.18541870,0.00410469
5605.11422607,0.00409141
5607.04303345,0.00403788
5608.97184082,0.00406180
5610.90064819,0.00409226
5612.82945557,0.00399892
5614.75826294,0.00400137
5616.68707031,0.00399626
5618.61587769,0.00398994
5620.54468506,0.00402414
5622.47349243,0.00402196
5624.40229980,0.00397886
5626.33110718,0.00398947
5628.25991455,0.00399746
5630.18872192,0.00394010
5632.11752930,0.00401956
5634.04633667,0.00396818
5635.97514404,0.00394156
5637.90395142,0.00395427
5639.83275879,0.00377054
5641.76156616,0.00382029
5643.69037353,0.00383618
5645.61918091,0.00375320
5647.54798828,0.00387731
5649.47679565,0.00390939
5651.40560303,0.00379636
5653.33441040,0.00379355
5655.26321777,0.00384394
5657.19202515,0.00381283
5659.12083252,0.00377213
5661.04963989,0.00374741
5662.97844727,0.00378041
5664.90725464,0.00378011
5666.83606201,0.00374596
5668.76486938,0.00374470
5670.69367676,0.00373261
5672.62248413,0.00368922
5674.55129150,0.00366591
5676.48009888,0.00373370
5678.40890625,0.00372038
5680.33771362,0.00371588
5682.26652100,0.00366176
5684.19532837,0.00358507
5686.12413574,0.00363086
5688.05294311,0.00358348
5689.98175049,0.00357939
5691.91055786,0.00357555
5693.83936523,0.00361475
5695.76817261,0.00363341
5697.69697998,0.00358505
5699.62578735,0.00363504
5701.55459473,0.00356934
5703.48340210,0.00357972
5705.41220947,0.00355288
5707.34101685,0.00348714
5709.26982422,0.00355129
5711.19863159,0.00346796
5713.12743896,0.00341230
5715.05624634,0.00346701
5716.98505371,0.00344245
5718.91386108,0.00336441
5720.84266846,0.00344651
5722.77147583,0.00347369
5724.70028320,0.00341089
5726.62909058,0.00345401
5728.55789795,0.00339850
5730.48670532,0.00342400
5732.41551270,0.00343506
5734.34432007,0.00337279
5736.27312744,0.00341946
5738.20193481,0.00338057
5740.13074219,0.00333308
5742.05954956,0.00333432
5743.98835693,0.00333801
5745.91716431,0.00333167
5747.84597168,0.00328232
5749.77477905,0.00329657
5751.70358643,0.00331587
5753.63239380,0.00324515
5755.56120117,0.00327969
5757.49000854,0.00332124
5759.41881592,0.00327165
5761.34762329,0.00329211
5763.27643066,0.00327024
5765.20523804,0.00329166
5767.13404541,0.00325074
5769.06285278,0.00316063
5770.99166016,0.00324473
5772.92046753,0.00316744
5774.84927490,0.00311437
5776.77808228,0.00325366
5778.70688965,0.00319180
5780.63569702,0.00309857
5782.56450439,0.00315295
5784.49331177,0.00311575
5786.42211914,0.00309731
5788.35092651,0.00313835
5790.27973389,0.00310360
5792.20854126,0.00310338
5794.13734863,0.00310567
5796.06615601,0.00309832
5797.99496338,0.00304261
5799.92377075,0.00303845
5801.85257812,0.00311256
5803.78138550,0.00308670
5805.71019287,0.00305484
5807.63900024,0.00300030
5809.56780762,0.00300224
5811.49661499,0.00304052
5813.42542236,0.00302954
5815.35422974,0.00301284
5817.28303711,0.00300411
5819.21184448,0.00298842
5821.14065186,0.00290825
5823.06945923,0.00296707
5824.99826660,0.00294902
5826.92707397,0.00288685
5828.85588135,0.00297528
5830.78468872,0.00295092
5832.71349609,0.00294498
5834.64230347,0.00292215
5836.57111084,0.00290907
5838.49991821,0.00292501
5840.42872559,0.00288843
5842.35753296,0.00286961
5844.28634033,0.00285952
5846.21514770,0.00290318
5848.14395508,0.00284036
5850.07276245,0.00283889
5852.00156982,0.00287826
5853.93037720,0.00282188
5855.85918457,0.00288133
5857.78799194,0.00285044
5859.71679932,0.00278732
5861.64560669,0.00284590
5863.57441406,0.00282592
5865.50322144,0.00273961
5867.43202881,0.00275892
5869.36083618,0.00278095
5871.28964355,0.00270126
5873.21845093,0.00271261
5875.14725830,0.00274586
5877.07606567,0.00274129
5879.00487305,0.00278482
5880.93368042,0.00272630
5882.86248779,0.00267290
5884.79129517,0.00272204
5886.72010254,0.00264551
5888.64890991,0.00263625
5890.57771728,0.00271921
5892.50652466,0.00268976
5894.43533203,0.00269351
5896.36413940,0.00263677
5898.29294678,0.00258738
5900.22175415,0.00258355
5902.15056152,0.00257497
5904.07936890,0.00266048
5906.00817627,0.00263304
5907.93698364,0.00260849
5909.86579102,0.00266414
5911.79459839,0.00261133
5913.72340576,0.00256284
5915.65221313,0.00258664
5917.58102051,0.00256682
5919.50982788,0.00252549
5921.43863525,0.00255626
5923.36744263,0.00255304
5925.29625000,0.00254009
5927.22505737,0.00258056
5929.15386475,0.00255094
5931.08267212,0.00249817
5933.01147949,0.00251340
5934.94028686,0.00247902
5936.86909424,0.00249215
5938.79790161,0.00252856
5940.72670898,0.00244345
5942.65551636,0.00250104
5944.58432373,0.00251989
5946.51313110,0.00246531
5948.44193848,0.00249178
5950.37074585,0.00242200
5952.29955322,0.00244065
5954.22836060,0.00245981
5956.15716797,0.00241853
5958.08597534,0.00244019
5960.01478271,0.00240899
5961.94359009,0.00235134
5963.87239746,0.00238148
5965.80120483,0.00238167
5967.73001221,0.00233127
5969.65881958,0.00238696
5971.58762695,0.00232061
5973.51643433,0.00233029
5975.44524170,0.00241180
5977.37404907,0.00233567
5979.30285645,0.00235968
5981.23166382,0.00232529
5983.16047119,0.00233403
5985.08927856,0.00234402
5987.01808594,0.00230246
5988.94689331,0.00233689
5990.87570068,0.00226275
5992.80450806,0.00226147
5994.73331543,0.00228334
5996.66212280,0.00229492
5998.59093018,0.00235512
6000.51973755,0.00234464
