399.26312622,0.00210056
401.19193359,0.00329548
403.12074097,0.00368333
405.04954834,0.00327912
406.97835571,0.00392588
408.90716309,0.00424319
410.83597046,0.00418044
412.76477783,0.00395344
414.69358521,0.00413543
416.62239258,0.00424476
418.55119995,0.00327391
420.48000732,0.00391171
422.40881470,0.00450608
424.33762207,0.00388857
426.26642944,0.00459182
428.19523682,0.00489409
430.12404419,0.00474150
432.05285156,0.00509412
433.98165894,0.00492666
435.91046631,0.00494425
437.83927368,0.00513925
439.76808105,0.00483887
441.69688843,0.00445779
443.62569580,0.00399885
445.55450317,0.00369656
447.48331055,0.00396298
449.41211792,0.00404185
451.34092529,0.00354795
453.26973267,0.00349356
455.19854004,0.00346206
457.12734741,0.00272035
459.05615479,0.00276318
460.98496216,0.00273989
462.91376953,0.00240452
464.84257690,0.00263852
466.77138428,0.00213912
468.70019165,0.00211246
470.62899902,0.00216221
472.55780640,0.00164882
474.48661377,0.00146302
476.41542114,0.00147389
478.34422852,0.00139378
480.27303589,0.00059048
482.20184326,0.00128089
484.13065063,0.00129828
486.05945801,0.00010171
487.98826538,0.00075829
489.91707275,0.00102311
491.84588013,0.00061998
493.77468750,0.00056879
495.70349487,0.00082463
497.63230225,0.00041810
499.56110962,0.00078143
501.48991699,0.00115200
503.41872437,0.00044550
505.34753174,0.00054759
507.27633911,0.00030941
509.20514648,0.00089178
511.13395386,0.00092534
513.06276123,0.00051093
514.99156860,0.00096631
516.92037598,0.00071947
518.84918335,0.00070280
520.77799072,0.00057506
522.70679810,0.00039396
524.63560547,0.00073628
526.56441284,0.00080954
528.49322021,0.00067040
530.42202759,0.00109259
532.35083496,0.00108111
534.27964233,0.00054513
536.20844971,0.00073118
538.13725708,0.00091491
540.06606445,0.00058455
541.99487183,0.00044936
543.92367920,0.00101775
545.85248657,0.00050892
547.78129395,0.00018515
549.71010132,0.00119156
551.63890869,0.00082473
553.56771606,0.00041663
555.49652344,0.00083352
557.42533081,0.00112728
559.35413818,0.00077179
561.28294556,0.00019485
563.21175293,0.00032596
565.14056030,0.00093419
567.06936768,0.00109365
568.99817505,0.00035057
570.92698242,0.00088524
572.85578979,0.00106639
574.78459717,0.00076702
576.71340454,0.00107482
578.64221191,0.00008425
580.57101929,0.00032726
582.49982666,0.00076519
584.42863403,0.00051657
586.35744141,0.00085934
588.28624878,0.00043414
590.21505615,0.00066669
592.14386353,0.00116916
594.07267090,0.00060330
596.00147827,0.00013805
597.93028564,0.00058416
599.85909302,0.00075885
601.78790039,0.00051519
603.71670776,0.00063793
605.64551514,0.00050536
607.57432251,0.00051018
609.50312988,0.00048242
611.43193726,0.00037598
613.36074463,0.00028653
615.28955200,0.00035027
617.21835938,0.00014026
619.14716675,-0.00004055
621.07597412,0.00054811
623.00478149,0.00004814
624.93358887,-0.00041291
626.86239624,0.00014558
628.79120361,0.00003971
630.72001099,0.00107778
632.64881836,0.00233809
634.57762573,0.00268943
636.50643311,0.00317133
638.43524048,0.00314823
640.36404785,0.00334352
642.29285522,0.00393984
644.22166260,0.00453428
646.15046997,0.00488581
648.07927734,0.00502431
650.00808472,0.00540139
651.93689209,0.00567349
653.86569946,0.00590320
655.79450684,0.00630062
657.72331421,0.00619353
659.65212158,0.00633668
661.58092896,0.00680692
663.50973633,0.00712703
665.43854370,0.00738892
667.36735107,0.00650153
669.29615845,0.00745301
671.22496582,0.00896916
673.15377319,0.00844511
675.08258057,0.00898743
677.01138794,0.00918047
678.94019531,0.00924114
680.86900269,0.00939045
682.79781006,0.00916517
684.72661743,0.00919386
686.65542480,0.00874818
688.58423218,0.00895653
690.51303955,0.00922002
692.44184692,0.01008603
694.37065430,0.01072653
696.29946167,0.01167042
698.22826904,0.01403622
700.15707642,0.01491048
702.08588379,0.01460595
704.01469116,0.01341937
705.94349854,0.01200179
707.87230591,0.01024821
709.80111328,0.00799541
711.72992065,0.00578478
713.65872803,0.00330406
715.58753540,0.00165236
717.51634277,0.00098058
719.44515015,0.00129256
721.37395752,0.00073913
723.30276489,0.00035543
725.23157227,0.00071742
727.16037964,0.00039001
729.08918701,0.00053355
731.01799438,-0.00007668
732.94680176,-0.00024916
734.87560913,0.00022662
736.80441650,0.00009736
738.73322388,-0.00006406
740.66203125,0.00004528
742.59083862,0.00044792
744.51964600,0.00009677
746.44845337,0.00008141
748.37726074,0.00016820
750.30606812,0.00039439
752.23487549,0.00076384
754.16368286,0.00025491
756.09249023,0.00053690
758.02129761,0.00072879
759.95010498,0.00058055
761.87891235,0.00058059
763.80771973,0.00038588
765.73652710,0.00081310
767.66533447,0.00060216
769.59414185,0.00025423
771.52294922,0.00081842
773.45175659,0.00120687
775.38056396,0.00073112
777.30937134,0.00068358
779.23817871,0.00061169
781.16698608,0.00058971
783.09579346,0.00087888
785.02460083,0.00047598
786.95340820,0.00063645
788.88221558,0.00083206
790.81102295,0.00081627
792.73983032,0.00106225
794.66863770,0.00119222
796.59744507,0.00113328
798.52625244,0.00150304
800.45505981,0.00204179
802.38386719,0.00142510
804.31267456,0.00139090
806.24148193,0.00144483
808.17028931,0.00098846
810.09909668,0.00094313
812.02790405,0.00093276
813.95671143,0.00086350
815.88551880,0.00048781
817.81432617,0.00063138
819.74313354,0.00069723
821.67194092,0.00092688
823.60074829,0.00092125
825.52955566,0.00081332
827.45836304,0.00155123
829.38717041,0.00143381
831.31597778,0.00185363
833.24478516,0.00248616
835.17359253,0.00263276
837.10239990,0.00296868
839.03120728,0.00282611
840.96001465,0.00273282
842.88882202,0.00266573
844.81762939,0.00267369
846.74643677,0.00219331
848.67524414,0.00184300
850.60405151,0.00188181
852.53285889,0.00172257
854.46166626,0.00165534
856.39047363,0.00141529
858.31928101,0.00147678
860.24808838,0.00132154
862.17689575,0.00106964
864.10570313,0.00096164
866.03451050,0.00093403
867.96331787,0.00092164
869.89212524,0.00061655
871.82093262,0.00084777
873.74973999,0.00073711
875.67854736,0.00032196
877.60735474,0.00040441
879.53616211,0.00062450
881.46496948,0.00053604
883.39377686,0.00020980
885.32258423,0.00037820
887.25139160,0.00054147
889.18019897,0.00068489
891.10900635,0.00062695
893.03781372,0.00052468
894.96662109,0.00074923
896.89542847,0.00067349
898.82423584,0.00067329
900.75304321,0.00069033
902.68185059,0.00077978
904.61065796,0.00081596
906.53946533,0.00072466
908.46827271,0.00104906
910.39708008,0.00113459
912.32588745,0.00098622
914.25469482,0.00141118
916.18350220,0.00168327
918.11230957,0.00147466
920.04111694,0.00194067
921.96992432,0.00242124
923.89873169,0.00224911
925.82753906,0.00236639
927.75634644,0.00295545
929.68515381,0.00316833
931.61396118,0.00319040
933.54276855,0.00349247
935.47157593,0.00360632
937.40038330,0.00397348
939.32919067,0.00419557
941.25799805,0.00442437
943.18680542,0.00473061
945.11561279,0.00447733
947.04442017,0.00441024
948.97322754,0.00415985
950.90203491,0.00419010
952.83084229,0.00432510
954.75964966,0.00410443
956.68845703,0.00430520
958.61726440,0.00418287
960.54607178,0.00414182
962.47487915,0.00448217
964.40368652,0.00435411
966.33249390,0.00433255
968.26130127,0.00463571
970.19010864,0.00471202
972.11891602,0.00510169
974.04772339,0.00551464
975.97653076,0.00591141
977.90533813,0.00657047
979.83414551,0.00683180
981.76295288,0.00771332
983.69176025,0.00869597
985.62056763,0.00950897
987.54937500,0.01072849
989.47818237,0.01171336
991.40698975,0.01320055
993.33579712,0.01443111
995.26460449,0.01534782
997.19341187,0.01694073
999.12221924,0.01838297
1001.05102661,0.01961784
1002.97983398,0.02101639
1004.90864136,0.02234813
1006.83744873,0.02387754
1008.76625610,0.02547989
1010.69506348,0.02675294
1012.62387085,0.02831748
1014.55267822,0.02973036
1016.48148560,0.03122550
1018.41029297,0.03277472
1020.33910034,0.03410147
1022.26790771,0.03599535
1024.19671509,0.03718032
1026.12552246,0.03835821
1028.05432983,0.03975893
1029.98313721,0.04077786
1031.91194458,0.04214383
1033.84075195,0.04273067
1035.76955933,0.04324705
1037.69836670,0.04391818
1039.62717407,0.04409263
1041.55598145,0.04419690
1043.48478882,0.04371794
1045.41359619,0.04308234
1047.34240356,0.04248125
1049.27121094,0.04177185
1051.20001831,0.04139539
1053.12882568,0.04061529
1055.05763306,0.03963140
1056.98644043,0.03888977
1058.91524780,0.03761758
1060.84405518,0.03671909
1062.77286255,0.03578712
1064.70166992,0.03445812
1066.63047729,0.03333618
1068.55928467,0.03158521
1070.48809204,0.03021859
1072.41689941,0.02903828
1074.34570679,0.02766418
1076.27451416,0.02648275
1078.20332153,0.02508244
1080.13212891,0.02396213
1082.06093628,0.02281266
1083.98974365,0.02168298
1085.91855103,0.02069179
1087.84735840,0.01982444
1089.77616577,0.01881954
1091.70497314,0.01786404
1093.63378052,0.01720065
1095.56258789,0.01648445
1097.49139526,0.01622637
1099.42020264,0.01568307
1101.34901001,0.01517242
1103.27781738,0.01483569
1105.20662476,0.01444711
1107.13543213,0.01447739
1109.06423950,0.01414781
1110.99304687,0.01384449
1112.92185425,0.01377623
1114.85066162,0.01359633
1116.77946899,0.01332095
1118.70827637,0.01346978
1120.63708374,0.01346107
1122.56589111,0.01350419
1124.49469849,0.01407229
1126.42350586,0.01382919
1128.35231323,0.01408332
1130.28112061,0.01465414
1132.20992798,0.01507360
1134.13873535,0.01549195
1136.06754272,0.01578641
1137.99635010,0.01697263
1139.92515747,0.01797837
1141.85396484,0.01926753
1143.78277222,0.02056162
1145.71157959,0.02163396
1147.64038696,0.02307727
1149.56919434,0.02424876
1151.49800171,0.02556887
1153.42680908,0.02663633
1155.35561646,0.02785244
1157.28442383,0.02895173
1159.21323120,0.03017473
1161.14203857,0.03164349
1163.07084595,0.03250232
1164.99965332,0.03374290
1166.92846069,0.03506663
1168.85726807,0.03646096
1170.78607544,0.03782425
1172.71488281,0.03909380
1174.64369019,0.04060032
1176.57249756,0.04214390
1178.50130493,0.04378982
1180.43011230,0.04541069
1182.35891968,0.04745819
1184.28772705,0.04955506
1186.21653442,0.05174783
1188.14534180,0.05406381
1190.07414917,0.05654030
1192.00295654,0.05918454
1193.93176392,0.06156239
1195.86057129,0.06459539
1197.78937866,0.06775478
1199.71818604,0.07081579
1201.64699341,0.07393949
1203.57580078,0.07681555
1205.50460815,0.07994076
1207.43341553,0.08299034
1209.36222290,0.08560629
1211.29103027,0.08806565
1213.21983765,0.09066522
1215.14864502,0.09278401
1217.07745239,0.09461704
1219.00625977,0.09664274
1220.93506714,0.09821201
1222.86387451,0.09915847
1224.79268188,0.09991477
1226.72148926,0.10082346
1228.65029663,0.10153309
1230.57910400,0.10188828
1232.50791138,0.10195159
1234.43671875,0.10201104
1236.36552612,0.10196261
1238.29433350,0.10183494
1240.22314087,0.10177736
1242.15194824,0.10130757
1244.08075562,0.10078244
1246.00956299,0.10018043
1247.93837036,0.09956783
1249.86717773,0.09889802
1251.79598511,0.09817898
1253.72479248,0.09724773
1255.65359985,0.09584661
1257.58240723,0.09473726
1259.51121460,0.09316704
1261.44002197,0.09157534
1263.36882935,0.09048570
1265.29763672,0.08922891
1267.22644409,0.08813070
1269.15525146,0.08695823
1271.08405884,0.08564317
1273.01286621,0.08411795
1274.94167358,0.08270346
1276.87048096,0.08110468
1278.79928833,0.07920045
1280.72809570,0.07771647
1282.65690308,0.07638106
1284.58571045,0.07514143
1286.51451782,0.07354876
1288.44332520,0.07200567
1290.37213257,0.07119137
1292.30093994,0.07042180
1294.22974731,0.06984534
1296.15855469,0.06958301
1298.08736206,0.06926605
1300.01616943,0.06944966
1301.94497681,0.06987266
1303.87378418,0.07030279
1305.80259155,0.07118279
1307.73139893,0.07194635
1309.66020630,0.07312813
1311.58901367,0.07425674
1313.51782104,0.07551446
1315.44662842,0.07773949
1317.37543579,0.07920017
1319.30424316,0.08110396
1321.23305054,0.08409929
1323.16185791,0.08660536
1325.09066528,0.08894606
1327.01947266,0.09164405
1328.94828003,0.09399345
1330.87708740,0.09618493
1332.80589478,0.09869201
1334.73470215,0.10026155
1336.66350952,0.10120864
1338.59231689,0.10037202
1340.52112427,0.10143049
1342.44993164,0.10589398
1344.37873901,0.10643473
1346.30754639,0.10635269
1348.23635376,0.10633432
1350.16516113,0.10533303
1352.09396851,0.10569435
1354.02277588,0.10390149
1355.95158325,0.10312967
1357.88039062,0.10281852
1359.80919800,0.10084319
1361.73800537,0.09630309
1363.66681274,0.09466434
1365.59562012,0.09977965
1367.52442749,0.09737560
1369.45323486,0.09624222
1371.38204224,0.09798710
1373.31084961,0.09231222
1375.23965698,0.09318107
1377.16846436,0.09567907
1379.09727173,0.09532370
1381.02607910,0.09552643
1382.95488647,0.09522260
1384.88369385,0.09512889
1386.81250122,0.09045106
1388.74130859,0.09182334
1390.67011597,0.09986969
1392.59892334,0.09690110
1394.52773071,0.09040804
1396.45653809,0.09537295
1398.38534546,0.09505655
1400.31415283,0.09468501
1402.24296021,0.10256921
1404.17176758,0.09636919
1406.10057495,0.09713330
1408.02938232,0.10113711
1409.95818970,0.09726237
1411.88699707,0.09950149
1413.81580444,0.09586817
1415.74461182,0.09742272
1417.67341919,0.08745335
1419.60222656,0.07817423
1421.53103394,0.09078769
1423.45984131,0.08759548
1425.38864868,0.08485883
1427.31745605,0.08625168
1429.24626343,0.07954407
1431.17507080,0.07735013
1433.10387817,0.07861096
1435.03268555,0.07161996
1436.96149292,0.06010460
1438.89030029,0.06861047
1440.81910767,0.07054628
1442.74791504,0.06519719
1444.67672241,0.06860977
1446.60552979,0.06250378
1448.53433716,0.06361856
1450.46314453,0.06573965
1452.39195190,0.06697474
1454.32075928,0.06963899
1456.24956665,0.05650388
1458.17837402,0.05927597
1460.10718140,0.07980388
1462.03598877,0.08488496
1463.96479614,0.08406815
1465.89360352,0.08756993
1467.82241089,0.10054675
1469.75121826,0.10786909
1471.68002563,0.09537686
1473.60883301,0.10081005
1475.53764038,0.11534680
1477.46644775,0.12430003
1479.39525513,0.13697341
1481.32406250,0.13883343
1483.25286987,0.14777756
1485.18167725,0.15266033
1487.11048462,0.14971836
1489.03929199,0.14882937
1490.96809937,0.15020427
1492.89690674,0.17567675
1494.82571411,0.17104307
1496.75452148,0.15328205
1498.68332886,0.17427722
1500.61213623,0.17971760
1502.54094360,0.19322990
1504.46975098,0.18200016
1506.39855835,0.13084894
1508.32736572,0.16136794
1510.25617310,0.19032404
1512.18498047,0.18435174
1514.11378784,0.20016211
1516.04259521,0.17962530
1517.97140259,0.18773490
1519.90020996,0.18090278
1521.82901733,0.15608926
1523.75782471,0.19251323
1525.68663208,0.18859839
1527.61543945,0.18822363
1529.54424683,0.20894381
1531.47305420,0.20026313
1533.40186157,0.18288679
1535.33066895,0.19451901
1537.25947632,0.20867915
1539.18828369,0.14737347
1541.11709106,0.15469882
1543.04589844,0.18648824
1544.97470581,0.17851292
1546.90351318,0.21271028
1548.83232056,0.19764142
1550.76112793,0.20431155
1552.68993530,0.20288467
1554.61874268,0.18352903
1556.54755005,0.19701679
1558.47635742,0.13674383
1560.40516479,0.14878456
1562.33397217,0.21410143
1564.26277954,0.20181125
1566.19158691,0.20797993
1568.12039429,0.20531011
1570.04920166,0.18125373
1571.97800903,0.21054637
1573.90681641,0.21266881
1575.83562378,0.16708961
1577.76443115,0.19034204
1579.69323853,0.21561328
1581.62204590,0.20591301
1583.55085327,0.21160032
1585.47966064,0.20822342
1587.40846802,0.20980611
1589.33727539,0.20775229
1591.26608276,0.20782734
1593.19489014,0.20817475
1595.12369751,0.20536089
1597.05250488,0.20836006
1598.98131226,0.20690531
1600.91011963,0.20821013
1602.83892700,0.20444417
1604.76773437,0.20795497
1606.69654175,0.20466980
1608.62534912,0.20427512
1610.55415649,0.20403785
1612.48296387,0.20542037
1614.41177124,0.20821291
1616.34057861,0.16873872
1618.26938599,0.18410440
1620.19819336,0.21516323
1622.12700073,0.18963438
1624.05580811,0.19084176
1625.98461548,0.20070718
1627.91342285,0.19948137
1629.84223022,0.19828627
1631.77103760,0.21245196
1633.69984497,0.19470857
1635.62865234,0.15940876
1637.55745972,0.18731625
1639.48626709,0.20649949
1641.41507446,0.20136958
1643.34388184,0.20703678
1645.27268921,0.18552877
1647.20149658,0.16207215
1649.13030396,0.20367447
1651.05911133,0.19205035
1652.98791870,0.12082049
1654.91672607,0.16767636
1656.84553345,0.21155816
1658.77434082,0.20187992
1660.70314819,0.20785150
1662.63195557,0.18791999
1664.56076294,0.19903079
1666.48957031,0.21402338
1668.41837769,0.18534382
1670.34718506,0.18031058
1672.27599243,0.20547798
1674.20479980,0.18868950
1676.13360718,0.18083480
1678.06241455,0.20943010
1679.99122192,0.20128484
1681.92002930,0.19876143
1683.84883667,0.16002589
1685.77764404,0.15896335
1687.70645142,0.22015837
1689.63525879,0.18975648
1691.56406616,0.20988777
1693.49287354,0.21318929
1695.42168091,0.15390046
1697.35048828,0.19183245
1699.27929565,0.16709490
1701.20810303,0.15038408
1703.13691040,0.20717928
1705.06571777,0.18895355
1706.99452515,0.19089441
1708.92333252,0.20807546
1710.85213989,0.19966277
1712.78094727,0.20306721
1714.70975464,0.18767186
1716.63856201,0.16762069
1718.56736938,0.16499738
1720.49617676,0.19717529
1722.42498413,0.20453781
1724.35379150,0.18953279
1726.28259888,0.20684859
1728.21140625,0.19006342
1730.14021362,0.19188982
1732.06902100,0.18649343
1733.99782837,0.14049572
1735.92663574,0.17697093
1737.85544312,0.19586116
1739.78425049,0.17346261
1741.71305786,0.18952855
1743.64186523,0.19195002
1745.57067261,0.19241977
1747.49947998,0.19396085
1749.42828735,0.18506831
1751.35709473,0.17686480
1753.28590210,0.19681221
1755.21470947,0.20592853
1757.14351685,0.18722050
1759.07232422,0.20670812
1761.00113159,0.19342428
1762.92993896,0.18675750
1764.85874634,0.21467458
1766.78755371,0.19208676
1768.71636108,0.19412859
1770.64516846,0.19256213
1772.57397583,0.17229968
1774.50278320,0.19346578
1776.43159058,0.20468417
1778.36039795,0.20162386
1780.28920532,0.19886707
1782.21801270,0.20041677
1784.14682007,0.20016050
1786.07562744,0.19606884
1788.00443481,0.20669574
1789.93324219,0.20110402
1791.86204956,0.18102011
1793.79085693,0.18933441
1795.71966431,0.20375223
1797.64847168,0.20081687
1799.57727905,0.19759414
1801.50608643,0.19415164
1803.43489380,0.20064892
1805.36370117,0.20510593
1807.29250854,0.20239019
1809.22131592,0.20284390
1811.15012329,0.19717404
1813.07893066,0.20384717
1815.00773804,0.20454609
1816.93654541,0.20202947
1818.86535278,0.20380580
1820.79416016,0.20284349
1822.72296753,0.20580876
1824.65177490,0.19180442
1826.58058228,0.19913864
1828.50938965,0.19915009
1830.43819702,0.18629184
1832.36700439,0.20372346
1834.29581177,0.20230758
1836.22461914,0.20203188
1838.15342651,0.20119724
1840.08223389,0.20241019
1842.01104126,0.20244278
1843.93984863,0.17883903
1845.86865601,0.19135994
1847.79746338,0.20216024
1849.72627075,0.19763871
1851.65507812,0.20355064
1853.58388550,0.19933809
1855.51269287,0.20150927
1857.44150024,0.20002824
1859.37030762,0.19886997
1861.29911499,0.20024353
1863.22792236,0.19781250
1865.15672974,0.20002112
1867.08553711,0.19281946
1869.01434448,0.18465769
1870.94315186,0.19242406
1872.87195923,0.19981056
1874.80076660,0.19643825
1876.72957397,0.19755387
1878.65838135,0.19680239
1880.58718872,0.19574139
1882.51599609,0.19732639
1884.44480347,0.19398427
1886.37361084,0.19713268
1888.30241821,0.19229680
1890.23122559,0.18847103
1892.16003296,0.19581339
1894.08884033,0.19279832
1896.01764771,0.19187054
1897.94645508,0.19400811
1899.87526245,0.19323179
1901.80406982,0.19353709
1903.73287720,0.19214326
1905.66168457,0.19301504
1907.59049194,0.19104473
1909.51929932,0.18978164
1911.44810669,0.19081140
1913.37691406,0.19126722
1915.30572144,0.19290547
1917.23452881,0.18401375
1919.16333618,0.18431434
1921.09214355,0.19153905
1923.02095093,0.18511771
1924.94975830,0.18903868
1926.87856567,0.19114666
1928.80737305,0.18857212
1930.73618042,0.19097088
1932.66498779,0.18807712
1934.59379517,0.19000609
1936.52260254,0.18846014
1938.45140991,0.18896303
1940.38021729,0.18914573
1942.30902466,0.18247104
1944.23783203,0.18613023
1946.16663940,0.18809313
1948.09544678,0.18760785
1950.02425415,0.18859990
1951.95306152,0.18788595
1953.88186890,0.18790919
1955.81067627,0.18693244
1957.73948364,0.18774351
1959.66829102,0.18724263
1961.59709839,0.18684727
1963.52590576,0.18741587
1965.45471313,0.18607873
1967.38352051,0.18431213
1969.31232788,0.18560719
1971.24113525,0.18687555
1973.16994263,0.18561362
1975.09875000,0.18632525
1977.02755737,0.18534079
1978.95636475,0.18541878
1980.88517212,0.18539634
1982.81397949,0.18447834
1984.74278687,0.18526755
1986.67159424,0.18348534
1988.60040161,0.18392611
1990.52920898,0.18232188
1992.45801636,0.17998224
1994.38682373,0.18271452
1996.31563110,0.18307161
1998.24443848,0.18199238
2000.17324585,0.18199703
2002.10205322,0.18163003
2004.03086060,0.18135452
2005.95966797,0.18108585
2007.88847534,0.18040627
2009.81728271,0.18026327
2011.74609009,0.17968568
2013.67489746,0.17944182
2015.60370483,0.17857799
2017.53251221,0.17686163
2019.46131958,0.17802006
2021.39012695,0.17784023
2023.31893433,0.17718741
2025.24774170,0.17710376
2027.17654907,0.17633507
2029.10535645,0.17658244
2031.03416382,0.17569876
2032.96297119,0.17550787
2034.89177856,0.17512953
2036.82058594,0.17453018
2038.74939331,0.17443588
2040.67820068,0.17334715
2042.60700806,0.17300285
2044.53581543,0.17297253
2046.46462280,0.17289358
2048.39343018,0.17237446
2050.32223755,0.17188317
2052.25104492,0.17153563
2054.17985229,0.17103845
2056.10865967,0.17085503
2058.03746704,0.17049126
2059.96627441,0.17004801
2061.89508179,0.16974041
2063.82388916,0.16908237
2065.75269653,0.16824090
2067.68150391,0.16875386
2069.61031128,0.16858506
2071.53911865,0.16803589
2073.46792603,0.16784701
2075.39673340,0.16712391
2077.32554077,0.16725248
2079.25434814,0.16668254
2081.18315552,0.16641860
2083.11196289,0.16625434
2085.04077026,0.16575906
2086.96957764,0.16550042
2088.89838501,0.16464855
2090.82719238,0.16468219
2092.75599976,0.16452178
2094.68480713,0.16423401
2096.61361450,0.16395822
2098.54242187,0.16362545
2100.47122925,0.16337305
2102.40003662,0.16293024
2104.32884399,0.16264671
2106.25765137,0.16206941
2108.18645874,0.16211680
2110.11526611,0.16173740
2112.04407349,0.16134644
2113.97288086,0.16109858
2115.90168823,0.16082190
2117.83049561,0.16087595
2119.75930298,0.16026896
2121.68811035,0.16021982
2123.61691772,0.15984739
2125.54572510,0.15957461
2127.47453247,0.15945916
2129.40333984,0.15915459
2131.33214722,0.15910541
2133.26095459,0.15863666
2135.18976196,0.15855806
2137.11856934,0.15823339
2139.04737671,0.15820897
2140.97618408,0.15795490
2142.90499146,0.15756743
2144.83379883,0.15745309
2146.76260620,0.15703282
2148.69141357,0.15710047
2150.62022095,0.15671109
2152.54902832,0.15654972
2154.47783569,0.15621121
2156.40664307,0.15594794
2158.33545044,0.15600649
2160.26425781,0.15561473
2162.19306519,0.15539782
2164.12187256,0.15501818
2166.05067993,0.15511546
2167.97948730,0.15487896
2169.90829468,0.15467238
2171.83710205,0.15447630
2173.76590942,0.15410572
2175.69471680,0.15414304
2177.62352417,0.15381242
2179.55233154,0.15380496
2181.48113892,0.15338795
2183.40994629,0.15313977
2185.33875366,0.15311410
2187.26756104,0.15284483
2189.19636841,0.15269315
2191.12517578,0.15242442
2193.05398315,0.15233262
2194.98279053,0.15201253
2196.91159790,0.15195958
2198.84040527,0.15152538
2200.76921265,0.15142339
2202.69802002,0.15127078
2204.62682739,0.15084919
2206.55563477,0.15102729
2208.48444214,0.15048063
2210.41324951,0.15058142
2212.34205688,0.15029284
2214.27086426,0.14989462
2216.19967163,0.15002811
2218.12847900,0.14956626
2220.05728638,0.14943059
2221.98609375,0.14910591
2223.91490112,0.14903051
2225.84370850,0.14871797
2227.77251587,0.14850624
2229.70132324,0.14834574
2231.63013062,0.14795059
2233.55893799,0.14786869
2235.48774536,0.14739275
2237.41655273,0.14726517
2239.34536011,0.14700103
2241.27416748,0.14685011
2243.20297485,0.14660002
2245.13178223,0.14623943
2247.06058960,0.14614226
2248.98939697,0.14576736
2250.91820435,0.14555265
2252.84701172,0.14514852
2254.77581909,0.14519119
2256.70462646,0.14490348
2258.63343384,0.14455789
2260.56224121,0.14441752
2262.49104858,0.14405200
2264.41985596,0.14411950
2266.34866333,0.14363515
2268.27747070,0.14348015
2270.20627808,0.14335278
2272.13508545,0.14304990
2274.06389282,0.14289616
2275.99270020,0.14269313
2277.92150757,0.14269088
2279.85031494,0.14246413
2281.77912231,0.14243998
2283.70792969,0.14208831
2285.63673706,0.14185958
2287.56554443,0.14150038
2289.49435181,0.14112163
2291.42315918,0.14085838
2293.35196655,0.14019805
2295.28077393,0.14006907
2297.20958130,0.13940115
2299.13838867,0.13880688
2301.06719604,0.13838232
2302.99600342,0.13762826
2304.92481079,0.13695751
2306.85361816,0.13603437
2308.78242554,0.13501376
2310.71123291,0.13373394
2312.64004028,0.13244608
2314.56884766,0.13088369
2316.49765503,0.12944625
2318.42646240,0.12760371
2320.35526978,0.12580931
2322.28407715,0.12409332
2324.21288452,0.12197113
2326.14169189,0.12091627
2328.07049927,0.11936771
2329.99930664,0.11779943
2331.92811401,0.11679581
2333.85692139,0.11627529
2335.78572876,0.11593984
2337.71453613,0.11543977
2339.64334351,0.11550814
2341.57215088,0.11570409
2343.50095825,0.11761027
2345.42976562,0.11978953
2347.35857300,0.12494165
2349.28738037,0.12953472
2351.21618774,0.12459078
2353.14499512,0.11796559
2355.07380249,0.11357540
2357.00260986,0.10980375
2358.93141724,0.10762638
2360.86022461,0.10639020
2362.78903198,0.10626021
2364.71783936,0.10672566
2366.64664673,0.10846531
2368.57545410,0.11058682
2370.50426147,0.11337209
2372.43306885,0.11682460
2374.36187622,0.12016104
2376.29068359,0.12361227
2378.21949097,0.12643906
2380.14829834,0.12881114
2382.07710571,0.13015141
2384.00591309,0.13104677
2385.93472046,0.13150330
2387.86352783,0.13156983
2389.79233521,0.13160282
2391.72114258,0.13137257
2393.64994995,0.13132259
2395.57875732,0.13090584
2397.50756470,0.13078655
2399.43637207,0.13060465
2401.36517944,0.13035221
2403.29398682,0.13027638
2405.22279419,0.13002509
2407.15160156,0.12998146
2409.08040894,0.12967962
2411.00921631,0.12954366
2412.93802368,0.12930021
2414.86683105,0.12907630
2416.79563843,0.12900093
2418.72444580,0.12876529
2420.65325317,0.12854633
2422.58206055,0.12823832
2424.51086792,0.12815413
2426.43967529,0.12800503
2428.36848267,0.12788887
2430.29729004,0.12765232
2432.22609741,0.12746328
2434.15490479,0.12726296
2436.08371216,0.12700900
2438.01251953,0.12696229
2439.94132690,0.12666345
2441.87013428,0.12659559
2443.79894165,0.12629399
2445.72774902,0.12605445
2447.65655640,0.12605935
2449.58536377,0.12580056
2451.51417114,0.12566838
2453.44297852,0.12554240
2455.37178589,0.12535343
2457.30059326,0.12499247
2459.22940063,0.12495305
2461.15820801,0.12473904
2463.08701538,0.12446190
2465.01582275,0.12445818
2466.94463013,0.12423992
2468.87343750,0.12408824
2470.80224487,0.12377351
2472.73105225,0.12368117
2474.65985962,0.12349059
2476.58866699,0.12331674
2478.51747437,0.12319385
2480.44628174,0.12283963
2482.37508911,0.12282744
2484.30389648,0.12268234
2486.23270386,0.12244596
2488.16151123,0.12215483
2490.09031860,0.12206030
2492.01912598,0.12193193
2493.94793335,0.12171175
2495.87674072,0.12158494
2497.80554810,0.12130661
2499.73435547,0.12118953
2501.66316284,0.12094750
2503.59197021,0.12085959
2505.52077759,0.12058994
2507.44958496,0.12046419
2509.37839233,0.12039272
2511.30719971,0.12006033
2513.23600708,0.12004381
2515.16481445,0.11969982
2517.09362183,0.11969773
2519.02242920,0.11957306
2520.95123657,0.11932843
2522.88004395,0.11919993
2524.80885132,0.11885048
2526.73765869,0.11881119
2528.66646606,0.11850777
2530.59527344,0.11848576
2532.52408081,0.11837660
2534.45288818,0.11813581
2536.38169556,0.11790606
2538.31050293,0.11767632
2540.23931030,0.11775753
2542.16811768,0.11745341
2544.09692505,0.11729879
2546.02573242,0.11702612
2547.95453979,0.11688302
2549.88334717,0.11671994
2551.81215454,0.11652319
2553.74096191,0.11647347
2555.66976929,0.11612847
2557.59857666,0.11618270
2559.52738403,0.11586399
2561.45619141,0.11581579
2563.38499878,0.11566788
2565.31380615,0.11521278
2567.24261353,0.11530770
2569.17142090,0.11501818
2571.10022827,0.11496583
2573.02903564,0.11479853
2574.95784302,0.11456186
2576.88665039,0.11443345
2578.81545776,0.11426648
2580.74426514,0.11407986
2582.67307251,0.11373319
2584.60187988,0.11375851
2586.53068726,0.11354636
2588.45949463,0.11347044
2590.38830200,0.11322276
2592.31710937,0.11291293
2594.24591675,0.11289395
2596.17472412,0.11259912
2598.10353149,0.11247168
2600.03233887,0.11230078
2601.96114624,0.11223990
2603.88995361,0.11197165
2605.81876099,0.11182169
2607.74756836,0.11173545
2609.67637573,0.11147252
2611.60518311,0.11150447
2613.53399048,0.11116296
2615.46279785,0.11097774
2617.39160522,0.11083817
2619.32041260,0.11064330
2621.24921997,0.11054202
2623.17802734,0.11034484
2625.10683472,0.11019456
2627.03564209,0.11000355
2628.96444946,0.10988086
2630.89325684,0.10956611
2632.82206421,0.10951869
2634.75087158,0.10936098
2636.67967895,0.10909878
2638.60848633,0.10902093
2640.53729370,0.10882384
2642.46610107,0.10874464
2644.39490845,0.10846955
2646.32371582,0.10839771
2648.25252319,0.10822704
2650.18133057,0.10799877
2652.11013794,0.10785521
2654.03894531,0.10769349
2655.96775269,0.10759959
2657.89656006,0.10717711
2659.82536743,0.10715008
2661.75417480,0.10694870
2663.68298218,0.10668202
2665.61178955,0.10672909
2667.54059692,0.10661593
2669.46940430,0.10647793
2671.39821167,0.10613434
2673.32701904,0.10599220
2675.25582642,0.10578559
2677.18463379,0.10563044
2679.11344116,0.10547984
2681.04224854,0.10526817
2682.97105591,0.10519251
2684.89986328,0.10491588
2686.82867065,0.10481121
2688.75747803,0.10463348
2690.68628540,0.10451730
2692.61509277,0.10436437
2694.54390015,0.10413243
2696.47270752,0.10399313
2698.40151489,0.10377314
2700.33032227,0.10364989
2702.25912964,0.10341956
2704.18793701,0.10333547
2706.11674438,0.10317951
2708.04555176,0.10298674
2709.97435913,0.10283362
2711.90316650,0.10269266
2713.83197388,0.10258490
2715.76078125,0.10229065
2717.68958862,0.10215172
2719.61839600,0.10193710
2721.54720337,0.10191908
2723.47601074,0.10174754
2725.40481812,0.10143124
2727.33362549,0.10132609
2729.26243286,0.10110229
2731.19124023,0.10100758
2733.12004761,0.10075620
2735.04885498,0.10071936
2736.97766235,0.10054957
2738.90646973,0.10037046
2740.83527710,0.10023811
2742.76408447,0.09979513
2744.69289185,0.09989090
2746.62169922,0.09968391
2748.55050659,0.09937498
2750.47931396,0.09928959
2752.40812134,0.09911774
2754.33692871,0.09898528
2756.26573608,0.09868488
2758.19454346,0.09862512
2760.12335083,0.09849270
2762.05215820,0.09823784
2763.98096558,0.09805186
2765.90977295,0.09798020
2767.83858032,0.09776010
2769.76738770,0.09752761
2771.69619507,0.09749772
2773.62500244,0.09719327
2775.55380981,0.09699498
2777.48261719,0.09680644
2779.41142456,0.09676881
2781.34023193,0.09665932
2783.26903931,0.09630852
2785.19784668,0.09621077
2787.12665405,0.09603330
2789.05546143,0.09582195
2790.98426880,0.09561506
2792.91307617,0.09546947
2794.84188354,0.09515578
2796.77069092,0.09494002
2798.69949829,0.09491016
2800.62830566,0.09470503
2802.55711304,0.09453842
2804.48592041,0.09427551
2806.41472778,0.09418115
2808.34353516,0.09391967
2810.27234253,0.09363150
2812.20114990,0.09359609
2814.12995728,0.09338793
2816.05876465,0.09314343
2817.98757202,0.09295601
2819.91637939,0.09287293
2821.84518677,0.09259556
2823.77399414,0.09242652
2825.70280151,0.09234650
2827.63160889,0.09214552
2829.56041626,0.09190615
2831.48922363,0.09169164
2833.41803101,0.09155902
2835.34683838,0.09117684
2837.27564575,0.09099687
2839.20445312,0.09071258
2841.13326050,0.09048943
2843.06206787,0.09031156
2844.99087524,0.08975721
2846.91968262,0.08928841
2848.84848999,0.08865776
2850.77729736,0.08851300
2852.70610474,0.08849675
2854.63491211,0.08829349
2856.56371948,0.08821459
2858.49252686,0.08799711
2860.42133423,0.08791545
2862.35014160,0.08772946
2864.27894897,0.08760799
2866.20775635,0.08741736
2868.13656372,0.08730527
2870.06537109,0.08721367
2871.99417847,0.08701491
2873.92298584,0.08695657
2875.85179321,0.08676431
2877.78060059,0.08666351
2879.70940796,0.08634903
2881.63821533,0.08629085
2883.56702270,0.08624426
2885.49583008,0.08598702
2887.42463745,0.08592695
2889.35344482,0.08560108
2891.28225220,0.08550083
2893.21105957,0.08529985
2895.13986694,0.08518020
2897.06867432,0.08497447
2898.99748169,0.08448942
2900.92628906,0.08442267
2902.85509644,0.08420768
2904.78390381,0.08389334
2906.71271118,0.08362070
2908.64151855,0.08344381
2910.57032593,0.08300825
2912.49913330,0.08256631
2914.42794067,0.08227310
2916.35674805,0.08177382
2918.28555542,0.08161198
2920.21436279,0.08134654
2922.14317017,0.08117774
2924.07197754,0.08110610
2926.00078491,0.08105513
2927.92959229,0.08104783
2929.85839966,0.08083121
2931.78720703,0.08090036
2933.71601440,0.08083670
2935.64482178,0.08082664
2937.57362915,0.08086050
2939.50243652,0.08081877
2941.43124390,0.08075833
2943.36005127,0.08060756
2945.28885864,0.08060312
2947.21766602,0.08032534
2949.14647339,0.08022258
2951.07528076,0.08012627
2953.00408813,0.07991333
2954.93289551,0.07976244
2956.86170288,0.07938802
2958.79051025,0.07919112
2960.71931763,0.07900743
2962.64812500,0.07884452
2964.57693237,0.07863994
2966.50573975,0.07844979
2968.43454712,0.07848312
2970.36335449,0.07861459
2972.29216187,0.07869533
2974.22096924,0.07860470
2976.14977661,0.07865931
2978.07858398,0.07866681
2980.00739136,0.07862602
2981.93619873,0.07863902
2983.86500610,0.07857595
2985.79381348,0.07842726
2987.72262085,0.07833324
2989.65142822,0.07835470
2991.58023560,0.07815547
2993.50904297,0.07799793
2995.43785034,0.07791153
2997.36665771,0.07771697
2999.29546509,0.07759776
3001.22427246,0.07762334
3003.15307983,0.07740940
3005.08188721,0.07717202
3007.01069458,0.07725800
3008.93950195,0.07693082
3010.86830933,0.07657778
3012.79711670,0.07638627
3014.72592407,0.07621931
3016.65473145,0.07624316
3018.58353882,0.07604658
3020.51234619,0.07587217
3022.44115356,0.07575564
3024.36996094,0.07555069
3026.29876831,0.07537274
3028.22757568,0.07528014
3030.15638306,0.07494549
3032.08519043,0.07465105
3034.01399780,0.07458425
3035.94280518,0.07445405
3037.87161255,0.07451153
3039.80041992,0.07420647
3041.72922729,0.07402727
3043.65803467,0.07392912
3045.58684204,0.07360192
3047.51564941,0.07360573
3049.44445679,0.07336970
3051.37326416,0.07332516
3053.30207153,0.07322355
3055.23087891,0.07287782
3057.15968628,0.07266532
3059.08849365,0.07257044
3061.01730103,0.07266077
3062.94610840,0.07231516
3064.87491577,0.07208973
3066.80372314,0.07202153
3068.73253052,0.07195381
3070.66133789,0.07189046
3072.59014526,0.07166800
3074.51895264,0.07166319
3076.44776001,0.07140709
3078.37656738,0.07117586
3080.30537476,0.07094379
3082.23418213,0.07073915
3084.16298950,0.07076123
3086.09179687,0.07062470
3088.02060425,0.07060419
3089.94941162,0.07038273
3091.87821899,0.07022785
3093.80702637,0.07016535
3095.73583374,0.06984405
3097.66464111,0.06972027
3099.59344849,0.06949814
3101.52225586,0.06927065
3103.45106323,0.06925976
3105.37987061,0.06910899
3107.30867798,0.06889337
3109.23748535,0.06868372
3111.16629272,0.06859465
3113.09510010,0.06848765
3115.02390747,0.06809291
3116.95271484,0.06785475
3118.88152222,0.06774476
3120.81032959,0.06765056
3122.73913696,0.06758874
3124.66794434,0.06742273
3126.59675171,0.06726445
3128.52555908,0.06698304
3130.45436645,0.06684230
3132.38317383,0.06662294
3134.31198120,0.06644848
3136.24078857,0.06638435
3138.16959595,0.06605610
3140.09840332,0.06598122
3142.02721069,0.06570464
3143.95601807,0.06553537
3145.88482544,0.06553026
3147.81363281,0.06528325
3149.74244019,0.06515321
3151.67124756,0.06480435
3153.60005493,0.06467077
3155.52886230,0.06452207
3157.45766968,0.06430651
3159.38647705,0.06420249
3161.31528442,0.06396987
3163.24409180,0.06382700
3165.17289917,0.06361138
3167.10170654,0.06353088
3169.03051392,0.06327083
3170.95932129,0.06307511
3172.88812866,0.06297848
3174.81693604,0.06272191
3176.74574341,0.06255721
3178.67455078,0.06219495
3180.60335815,0.06217187
3182.53216553,0.06217340
3184.46097290,0.06189681
3186.38978027,0.06174242
3188.31858765,0.06162962
3190.24739502,0.06139820
3192.17620239,0.06122082
3194.10500977,0.06124794
3196.03381714,0.06092244
3197.96262451,0.06069533
3199.89143188,0.06057197
3201.82023926,0.06048227
3203.74904663,0.06042021
3205.67785400,0.06015473
3207.60666138,0.06002793
3209.53546875,0.05974767
3211.46427612,0.05978176
3213.39308350,0.05960703
3215.32189087,0.05938835
3217.25069824,0.05954760
3219.17950562,0.05918539
3221.10831299,0.05903979
3223.03712036,0.05897743
3224.96592773,0.05892785
3226.89473511,0.05880839
3228.82354248,0.05854886
3230.75234985,0.05856704
3232.68115723,0.05835554
3234.60996460,0.05830148
3236.53877197,0.05826314
3238.46757935,0.05807123
3240.39638672,0.05805948
3242.32519409,0.05801899
3244.25400146,0.05782588
3246.18280884,0.05776634
3248.11161621,0.05772718
3250.04042358,0.05754587
3251.96923096,0.05756705
3253.89803833,0.05725548
3255.82684570,0.05719935
3257.75565308,0.05729927
3259.68446045,0.05698706
3261.61326782,0.05707728
3263.54207520,0.05698768
3265.47088257,0.05685790
3267.39968994,0.05689257
3269.32849731,0.05672932
3271.25730469,0.05661003
3273.18611206,0.05646204
3275.11491943,0.05635704
3277.04372681,0.05638318
3278.97253418,0.05642164
3280.90134155,0.05629869
3282.83014893,0.05625169
3284.75895630,0.05616029
3286.68776367,0.05601071
3288.61657104,0.05596362
3290.54537842,0.05577007
3292.47418579,0.05558765
3294.40299316,0.05566745
3296.33180054,0.05574089
3298.26060791,0.05547102
3300.18941528,0.05539853
3302.11822266,0.05536918
3304.04703003,0.05525208
3305.97583740,0.05519306
3307.90464478,0.05492795
3309.83345215,0.05481570
3311.76225952,0.05482229
3313.69106689,0.05491656
3315.61987427,0.05480463
3317.54868164,0.05474550
3319.47748901,0.05477185
3321.40629639,0.05455000
3323.33510376,0.05452201
3325.26391113,0.05432777
3327.19271851,0.05419385
3329.12152588,0.05418946
3331.05033325,0.05420560
3332.97914062,0.05405889
3334.90794800,0.05376860
3336.83675537,0.05368902
3338.76556274,0.05358503
3340.69437012,0.05371831
3342.62317749,0.05353196
3344.55198486,0.05339869
3346.48079224,0.05340327
3348.40959961,0.05319639
3350.33840698,0.05315114
3352.26721436,0.05296195
3354.19602173,0.05294893
3356.12482910,0.05271448
3358.05363647,0.05265772
3359.98244385,0.05271070
3361.91125122,0.05253439
3363.84005859,0.05242773
3365.76886597,0.05215605
3367.69767334,0.05210564
3369.62648071,0.05192101
3371.55528809,0.05209295
3373.48409546,0.05199517
3375.41290283,0.05174265
3377.34171020,0.05186286
3379.27051758,0.05152112
3381.19932495,0.05154806
3383.12813232,0.05140847
3385.05693970,0.05123205
3386.98574707,0.05112806
3388.91455444,0.05114236
3390.84336182,0.05094386
3392.77216919,0.05050433
3394.70097656,0.05080035
3396.62978394,0.05044709
3398.55859131,0.05042256
3400.48739868,0.05031215
3402.41620605,0.05001562
3404.34501343,0.05028084
3406.27382080,0.05000648
3408.20262817,0.05013953
3410.13143555,0.04990426
3412.06024292,0.04984195
3413.98905029,0.04986640
3415.91785767,0.04967510
3417.84666504,0.04972788
3419.77547241,0.04919872
3421.70427979,0.04915210
3423.63308716,0.04915442
3425.56189453,0.04926486
3427.49070190,0.04918464
3429.41950928,0.04894037
3431.34831665,0.04890684
3433.27712402,0.04863046
3435.20593140,0.04868858
3437.13473877,0.04846862
3439.06354614,0.04858923
3440.99235352,0.04830155
3442.92116089,0.04798133
3444.84996826,0.04820407
3446.77877563,0.04756501
3448.70758301,0.04759582
3450.63639038,0.04804602
3452.56519775,0.04797389
3454.49400513,0.04774847
3456.42281250,0.04766337
3458.35161987,0.04760472
3460.28042725,0.04753900
3462.20923462,0.04743516
3464.13804199,0.04729561
3466.06684937,0.04734628
3467.99565674,0.04704420
3469.92446411,0.04715369
3471.85327148,0.04712663
3473.78207886,0.04701553
3475.71088623,0.04702958
3477.63969360,0.04690272
3479.56850098,0.04689405
3481.49730835,0.04621233
3483.42611572,0.04656168
3485.35492310,0.04685153
3487.28373047,0.04648067
3489.21253784,0.04652630
3491.14134521,0.04648133
3493.07015259,0.04673981
3494.99895996,0.04643735
3496.92776733,0.04634609
3498.85657471,0.04643517
3500.78538208,0.04628828
3502.71418945,0.04553337
3504.64299683,0.04548756
3506.57180420,0.04659338
3508.50061157,0.04586389
3510.42941895,0.04571808
3512.35822632,0.04616714
3514.28703369,0.04622030
3516.21584106,0.04633508
3518.14464844,0.04587986
3520.07345581,0.04613855
3522.00226318,0.04559974
3523.93107056,0.04499086
3525.85987793,0.04528147
3527.78868530,0.04523604
3529.71749268,0.04524226
3531.64630005,0.04574814
3533.57510742,0.04608220
3535.50391479,0.04547781
3537.43272217,0.04535692
3539.36152954,0.04578482
3541.29033691,0.04580127
3543.21914429,0.04538962
3545.14795166,0.04434760
3547.07675903,0.04368520
3549.00556641,0.04515665
3550.93437378,0.04551938
3552.86318115,0.04433714
3554.79198853,0.04526664
3556.72079590,0.04544576
3558.64960327,0.04523215
3560.57841064,0.04489243
3562.50721802,0.04462515
3564.43602539,0.04495196
3566.36483276,0.04181949
3568.29364014,0.04086242
3570.22244751,0.04425293
3572.15125488,0.04537128
3574.08006226,0.04483366
3576.00886963,0.04500083
3577.93767700,0.04479395
3579.86648437,0.04473307
3581.79529175,0.04484158
3583.72409912,0.04490499
3585.65290649,0.04385237
3587.58171387,0.04017901
3589.51052124,0.04147445
3591.43932861,0.04507638
3593.36813599,0.04374293
3595.29694336,0.04301860
3597.22575073,0.04375118
3599.15455811,0.04413377
3601.08336548,0.04367428
3603.01217285,0.04413278
3604.94098022,0.04495876
3606.86978760,0.04326804
3608.79859497,0.04061358
3610.72740234,0.04159571
3612.65620972,0.04257343
3614.58501709,0.04124250
3616.51382446,0.04434874
3618.44263184,0.04086868
3620.37143921,0.03945947
3622.30024658,0.04464587
3624.22905395,0.04328794
3626.15786133,0.04536041
3628.08666870,0.03832492
3630.01547607,0.03489901
3631.94428345,0.04401784
3633.87309082,0.04280358
3635.80189819,0.04359647
3637.73070557,0.04439221
3639.65951294,0.04379917
3641.58832031,0.04424792
3643.51712769,0.04351926
3645.44593506,0.04390130
3647.37474243,0.03932178
3649.30354980,0.03608936
3651.23235718,0.03648238
3653.16116455,0.04344872
3655.08997192,0.04298244
3657.01877930,0.03845181
3658.94758667,0.04434477
3660.87639404,0.04329170
3662.80520142,0.04391479
3664.73400879,0.04371714
3666.66281616,0.04325380
3668.59162354,0.04198997
3670.52043091,0.03413016
3672.44923828,0.04156229
3674.37804565,0.03933310
3676.30685303,0.03241426
3678.23566040,0.04120332
3680.16446777,0.04210403
3682.09327515,0.04213950
3684.02208252,0.04338541
3685.95088989,0.04258925
3687.87969727,0.03827245
3689.80850464,0.03513777
3691.73731201,0.04013512
3693.66611938,0.04129422
3695.59492676,0.04233981
3697.52373413,0.04225917
3699.45254150,0.04189115
3701.38134888,0.04079491
3703.31015625,0.03917374
3705.23896362,0.04315534
3707.16777100,0.04097809
3709.09657837,0.03998892
3711.02538574,0.03755204
3712.95419312,0.03520501
3714.88300049,0.04137295
3716.81180786,0.04062663
3718.74061523,0.04098928
3720.66942261,0.04015414
3722.59822998,0.03879905
3724.52703735,0.04018594
3726.45584473,0.03713328
3728.38465210,0.04036612
3730.31345947,0.03987218
3732.24226685,0.03655761
3734.17107422,0.03576356
3736.09988159,0.03389291
3738.02868896,0.03583618
3739.95749634,0.03903081
3741.88630371,0.04094343
3743.81511108,0.03158401
3745.74391846,0.02970070
3747.67272583,0.03873073
3749.60153320,0.03319825
3751.53034058,0.03052632
3753.45914795,0.03519439
3755.38795532,0.03792203
3757.31676270,0.03962069
3759.24557007,0.03658041
3761.17437744,0.03781013
3763.10318481,0.04022787
3765.03199219,0.03739638
3766.96079956,0.03825569
3768.88960693,0.03775222
3770.81841431,0.03601015
3772.74722168,0.03916004
3774.67602905,0.03911132
3776.60483643,0.03913205
3778.53364380,0.03793100
3780.46245117,0.03630839
3782.39125854,0.03901413
3784.32006592,0.03818863
3786.24887329,0.03783856
3788.17768066,0.03861865
3790.10648804,0.03842895
3792.03529541,0.03818879
3793.96410278,0.03878704
3795.89291016,0.03640837
3797.82171753,0.03597270
3799.75052490,0.03797098
3801.67933228,0.02988902
3803.60813965,0.03504337
3805.53694702,0.03814916
3807.46575439,0.03104345
3809.39456177,0.03776216
3811.32336914,0.03689897
3813.25217651,0.03813463
3815.18098389,0.03444781
3817.10979126,0.03015648
3819.03859863,0.03820271
3820.96740601,0.03073963
3822.89621338,0.03242211
3824.82502075,0.03790720
3826.75382812,0.03418392
3828.68263550,0.03690020
3830.61144287,0.03539160
3832.54025024,0.03423217
3834.46905762,0.03496807
3836.39786499,0.03319769
3838.32667236,0.02994971
3840.25547974,0.03243345
3842.18428711,0.03507751
3844.11309448,0.03339697
3846.04190186,0.03612815
3847.97070923,0.03561513
3849.89951660,0.03568117
3851.82832397,0.03198417
3853.75713135,0.02377957
3855.68593872,0.02834865
3857.61474609,0.03568357
3859.54355347,0.03466197
3861.47236084,0.03428541
3863.40116821,0.03362437
3865.32997559,0.03110099
3867.25878296,0.03477842
3869.18759033,0.03173411
3871.11639770,0.02926423
3873.04520508,0.03486902
3874.97401245,0.03190584
3876.90281982,0.03455106
3878.83162720,0.03524743
3880.76043457,0.03004712
3882.68924194,0.03464805
3884.61804932,0.03238025
3886.54685669,0.02971159
3888.47566406,0.03467291
3890.40447144,0.03276329
3892.33327881,0.03084769
3894.26208618,0.03384024
3896.19089355,0.03441222
3898.11970093,0.03271594
3900.04850830,0.03091301
3901.97731567,0.03051849
3903.90612305,0.03020456
3905.83493042,0.03079309
3907.76373779,0.03376845
3909.69254517,0.03369569
3911.62135254,0.03334738
3913.55015991,0.03392692
3915.47896728,0.03270335
3917.40777466,0.03175707
3919.33658203,0.03156228
3921.26538940,0.03285046
3923.19419678,0.03267077
3925.12300415,0.03183493
3927.05181152,0.03234702
3928.98061890,0.03286840
3930.90942627,0.03219282
3932.83823364,0.03100961
3934.76704102,0.03242283
3936.69584839,0.03264254
3938.62465576,0.03230400
3940.55346313,0.03263143
3942.48227051,0.03129661
3944.41107788,0.03156327
3946.33988525,0.03218331
3948.26869263,0.03137886
3950.19750000,0.03127460
3952.12630737,0.03183836
3954.05511475,0.03187340
3955.98392212,0.03185181
3957.91272949,0.03173040
3959.84153687,0.03160889
3961.77034424,0.03142769
3963.69915161,0.03128471
3965.62795898,0.03177606
3967.55676636,0.03138131
3969.48557373,0.03127509
3971.41438110,0.03128841
3973.34318848,0.03108396
3975.27199585,0.03109615
3977.20080322,0.03081133
3979.12961060,0.03110308
3981.05841797,0.03077826
3982.98722534,0.03088041
3984.91603271,0.03094839
3986.84484009,0.03072602
3988.77364746,0.03078331
3990.70245483,0.03031422
3992.63126221,0.03062671
3994.56006958,0.03041750
3996.48887695,0.03034566
3998.41768433,0.03048958
4000.34649170,0.03025434
4002.27529907,0.03025911
4004.20410645,0.03002243
4006.13291382,0.03016659
4008.06172119,0.02995463
4009.99052856,0.02993624
4011.91933594,0.02989495
4013.84814331,0.02972746
4015.77695068,0.02985050
4017.70575806,0.02973078
4019.63456543,0.02967791
4021.56337280,0.02948430
4023.49218018,0.02956541
4025.42098755,0.02936789
4027.34979492,0.02927729
4029.27860229,0.02926608
4031.20740967,0.02912383
4033.13621704,0.02917455
4035.06502441,0.02900302
4036.99383179,0.02908628
4038.92263916,0.02890462
4040.85144653,0.02902302
4042.78025391,0.02894623
4044.70906128,0.02869371
4046.63786865,0.02879394
4048.56667603,0.02866130
4050.49548340,0.02873875
4052.42429077,0.02845237
4054.35309814,0.02842264
4056.28190552,0.02837923
4058.21071289,0.02828121
4060.13952026,0.02826491
4062.06832764,0.02814013
4063.99713501,0.02825181
4065.92594238,0.02798796
4067.85474976,0.02808254
4069.78355713,0.02794634
4071.71236450,0.02785396
4073.64117187,0.02779219
4075.56997925,0.02757572
4077.49878662,0.02776891
4079.42759399,0.02752118
4081.35640137,0.02754858
4083.28520874,0.02746818
4085.21401611,0.02744939
4087.14282349,0.02737632
4089.07163086,0.02720257
4091.00043823,0.02730423
4092.92924561,0.02704810
4094.85805298,0.02713339
4096.78686035,0.02704688
4098.71566772,0.02703358
4100.64447510,0.02688540
4102.57328247,0.02677608
4104.50208984,0.02688799
4106.43089722,0.02657958
4108.35970459,0.02669753
4110.28851196,0.02662706
4112.21731934,0.02663973
4114.14612671,0.02657267
4116.07493408,0.02637764
4118.00374145,0.02638836
4119.93254883,0.02628884
4121.86135620,0.02625669
4123.79016357,0.02605709
4125.71897095,0.02617971
4127.64777832,0.02604483
4129.57658569,0.02601599
4131.50539307,0.02599663
4133.43420044,0.02578930
4135.36300781,0.02588420
4137.29181519,0.02568053
4139.22062256,0.02575313
4141.14942993,0.02563358
4143.07823730,0.02557613
4145.00704468,0.02550334
4146.93585205,0.02540116
4148.86465942,0.02548566
4150.79346680,0.02523364
4152.72227417,0.02539192
4154.65108154,0.02522044
4156.57988892,0.02510194
4158.50869629,0.02511937
4160.43750366,0.02501895
4162.36631103,0.02506313
4164.29511841,0.02485952
4166.22392578,0.02484736
4168.15273315,0.02473098
4170.08154053,0.02481517
4172.01034790,0.02470393
4173.93915527,0.02459202
4175.86796265,0.02463984
4177.79677002,0.02441299
4179.72557739,0.02445333
4181.65438477,0.02431590
4183.58319214,0.02439677
4185.51199951,0.02440530
4187.44080688,0.02420883
4189.36961426,0.02407860
4191.29842163,0.02403130
4193.22722900,0.02410694
4195.15603638,0.02392890
4197.08484375,0.02400262
4199.01365112,0.02388902
4200.94245850,0.02379154
4202.87126587,0.02383862
4204.80007324,0.02368483
4206.72888062,0.02353645
4208.65768799,0.02354804
4210.58649536,0.02360575
4212.51530273,0.02336440
4214.44411011,0.02348373
4216.37291748,0.02338371
4218.30172485,0.02326854
4220.23053223,0.02329757
4222.15933960,0.02316243
4224.08814697,0.02323123
4226.01695435,0.02298039
4227.94576172,0.02307843
4229.87456909,0.02306431
4231.80337646,0.02295813
4233.73218384,0.02296858
4235.66099121,0.02271948
4237.58979858,0.02280384
4239.51860596,0.02270504
4241.44741333,0.02262402
4243.37622070,0.02263507
4245.30502808,0.02259902
4247.23383545,0.02242864
4249.16264282,0.02234397
4251.09145020,0.02244440
4253.02025757,0.02232105
4254.94906494,0.02230839
4256.87787231,0.02224869
4258.80667969,0.02227106
4260.73548706,0.02212235
4262.66429443,0.02203523
4264.59310181,0.02202735
4266.52190918,0.02195212
4268.45071655,0.02205384
4270.37952393,0.02184645
4272.30833130,0.02190975
4274.23713867,0.02184666
4276.16594604,0.02173425
4278.09475342,0.02173617
4280.02356079,0.02166041
4281.95236816,0.02167981
4283.88117554,0.02144751
4285.80998291,0.02157306
4287.73879028,0.02144507
4289.66759766,0.02131424
4291.59640503,0.02133475
4293.52521240,0.02116787
4295.45401978,0.02122046
4297.38282715,0.02109032
4299.31163452,0.02115610
4301.24044189,0.02108713
4303.16924927,0.02104710
4305.09805664,0.02108650
4307.02686401,0.02093680
4308.95567139,0.02081667
4310.88447876,0.02073647
4312.81328613,0.02080672
4314.74209351,0.02062149
4316.67090088,0.02070626
4318.59970825,0.02066429
4320.52851562,0.02055828
4322.45732300,0.02055147
4324.38613037,0.02031640
4326.31493774,0.02043693
4328.24374512,0.02034641
4330.17255249,0.02033950
4332.10135986,0.02029532
4334.03016724,0.02021355
4335.95897461,0.02027405
4337.88778198,0.02009315
4339.81658936,0.01998889
4341.74539673,0.01992726
4343.67420410,0.02006662
4345.60301147,0.01991779
4347.53181885,0.01983092
4349.46062622,0.01984726
4351.38943359,0.01975680
4353.31824097,0.01979840
4355.24704834,0.01960759
4357.17585571,0.01965160
4359.10466309,0.01959338
4361.03347046,0.01958901
4362.96227783,0.01954973
4364.89108520,0.01940088
4366.81989258,0.01945627
4368.74869995,0.01931862
4370.67750732,0.01930420
4372.60631470,0.01917740
4374.53512207,0.01921162
4376.46392944,0.01918451
4378.39273682,0.01910628
4380.32154419,0.01917472
4382.25035156,0.01894028
4384.17915894,0.01896340
4386.10796631,0.01895327
4388.03677368,0.01890866
4389.96558105,0.01882821
4391.89438843,0.01879436
4393.82319580,0.01880021
4395.75200317,0.01860768
4397.68081055,0.01864944
4399.60961792,0.01856744
4401.53842529,0.01851192
4403.46723267,0.01850391
4405.39604004,0.01849938
4407.32484741,0.01850347
4409.25365478,0.01840058
4411.18246216,0.01833118
4413.11126953,0.01822448
4415.04007690,0.01823708
4416.96888428,0.01814515
4418.89769165,0.01814508
4420.82649902,0.01808469
4422.75530640,0.01800681
4424.68411377,0.01805700
4426.61292114,0.01797961
4428.54172852,0.01800287
4430.47053589,0.01784117
4432.39934326,0.01783181
4434.32815063,0.01780649
4436.25695801,0.01773092
4438.18576538,0.01780215
4440.11457275,0.01764710
4442.04338013,0.01764210
4443.97218750,0.01753576
4445.90099487,0.01746987
4447.82980225,0.01754588
4449.75860962,0.01747157
4451.68741699,0.01741471
4453.61622437,0.01733659
4455.54503174,0.01728003
4457.47383911,0.01731066
4459.40264648,0.01722757
4461.33145386,0.01704517
4463.26026123,0.01720346
4465.18906860,0.01719112
4467.11787598,0.01699903
4469.04668335,0.01698508
4470.97549072,0.01697162
4472.90429810,0.01702941
4474.83310547,0.01691114
4476.76191284,0.01685794
4478.69072021,0.01675058
4480.61952759,0.01668287
4482.54833496,0.01678132
4484.47714233,0.01671799
4486.40594971,0.01668868
4488.33475708,0.01658243
4490.26356445,0.01651722
4492.19237183,0.01643648
4494.12117920,0.01645014
4496.04998657,0.01649097
4497.97879395,0.01634810
4499.90760132,0.01632212
4501.83640869,0.01629762
4503.76521606,0.01631428
4505.69402344,0.01628320
4507.62283081,0.01617314
4509.55163818,0.01608345
4511.48044556,0.01611969
4513.40925293,0.01610339
4515.33806030,0.01598844
4517.26686768,0.01603398
4519.19567505,0.01594275
4521.12448242,0.01588269
4523.05328979,0.01584177
4524.98209717,0.01579809
4526.91090454,0.01577401
4528.83971191,0.01567413
4530.76851929,0.01568184
4532.69732666,0.01563109
4534.62613403,0.01558595
4536.55494141,0.01551110
4538.48374878,0.01542313
4540.41255615,0.01540761
4542.34136353,0.01545532
4544.27017090,0.01537591
4546.19897827,0.01531213
4548.12778564,0.01540285
4550.05659302,0.01526531
4551.98540039,0.01523767
4553.91420776,0.01518297
4555.84301514,0.01510827
4557.77182251,0.01506282
4559.70062988,0.01501438
4561.62943726,0.01509939
4563.55824463,0.01496712
4565.48705200,0.01499023
4567.41585937,0.01491903
4569.34466675,0.01485739
4571.27347412,0.01490449
4573.20228149,0.01479506
4575.13108887,0.01482199
4577.05989624,0.01472857
4578.98870361,0.01466590
4580.91751099,0.01460335
4582.84631836,0.01465352
4584.77512573,0.01460066
4586.70393311,0.01452667
4588.63274048,0.01462275
4590.56154785,0.01444415
4592.49035522,0.01447329
4594.41916260,0.01436739
4596.34796997,0.01430091
4598.27677734,0.01434798
4600.20558472,0.01420588
4602.13439209,0.01425914
4604.06319946,0.01419414
4605.99200684,0.01415724
4607.92081421,0.01407005
4609.84962158,0.01400910
4611.77842895,0.01404848
4613.70723633,0.01405500
4615.63604370,0.01400628
4617.56485107,0.01390135
4619.49365845,0.01392933
4621.42246582,0.01383219
4623.35127319,0.01387903
4625.28008057,0.01384509
4627.20888794,0.01373071
4629.13769531,0.01374706
4631.06650269,0.01374303
4632.99531006,0.01377302
4634.92411743,0.01360337
4636.85292480,0.01360513
4638.78173218,0.01353832
4640.71053955,0.01347619
4642.63934692,0.01343713
4644.56815430,0.01331771
4646.49696167,0.01348965
4648.42576904,0.01341582
4650.35457642,0.01337520
4652.28338379,0.01334196
4654.21219116,0.01325682
4656.14099853,0.01326719
4658.06980591,0.01318093
4659.99861328,0.01316378
4661.92742065,0.01312119
4663.85622803,0.01321421
4665.78503540,0.01312262
4667.71384277,0.01302123
4669.64265015,0.01305424
4671.57145752,0.01295790
4673.50026489,0.01297946
4675.42907227,0.01287817
4677.35787964,0.01284353
4679.28668701,0.01286070
4681.21549438,0.01271463
4683.14430176,0.01269966
4685.07310913,0.01272107
4687.00191650,0.01260515
4688.93072388,0.01265754
4690.85953125,0.01272917
4692.78833862,0.01262552
4694.71714600,0.01264534
4696.64595337,0.01253984
4698.57476074,0.01246927
4700.50356812,0.01245656
4702.43237549,0.01242197
4704.36118286,0.01246480
4706.28999023,0.01237263
4708.21879761,0.01235628
4710.14760498,0.01230909
4712.07641235,0.01227295
4714.00521973,0.01231328
4715.93402710,0.01231807
4717.86283447,0.01224688
4719.79164185,0.01217303
4721.72044922,0.01214255
4723.64925659,0.01206026
4725.57806396,0.01209043
4727.50687134,0.01196890
4729.43567871,0.01194979
4731.36448608,0.01199321
4733.29329346,0.01196502
4735.22210083,0.01203702
4737.15090820,0.01191119
4739.07971558,0.01185518
4741.00852295,0.01175192
4742.93733032,0.01180233
4744.86613770,0.01184483
4746.79494507,0.01174677
4748.72375244,0.01177045
4750.65255981,0.01160262
4752.58136719,0.01160903
4754.51017456,0.01152781
4756.43898193,0.01155027
4758.36778931,0.01163987
4760.29659668,0.01151574
4762.22540405,0.01156975
4764.15421143,0.01145056
4766.08301880,0.01147033
4768.01182617,0.01146465
4769.94063354,0.01133320
4771.86944092,0.01133469
4773.79824829,0.01133175
4775.72705566,0.01137356
4777.65586304,0.01131776
4779.58467041,0.01130277
4781.51347778,0.01117786
4783.44228516,0.01113361
4785.37109253,0.01115681
4787.29989990,0.01109543
4789.22870728,0.01114590
4791.15751465,0.01110904
4793.08632202,0.01109747
4795.01512939,0.01099140
4796.94393677,0.01093090
4798.87274414,0.01097447
4800.80155151,0.01096723
4802.73035889,0.01097178
4804.65916626,0.01083460
4806.58797363,0.01080923
4808.51678101,0.01085935
4810.44558838,0.01080364
4812.37439575,0.01077623
4814.30320312,0.01073107
4816.23201050,0.01066303
4818.16081787,0.01067605
4820.08962524,0.01061242
4822.01843262,0.01058421
4823.94723999,0.01061491
4825.87604736,0.01050484
4827.80485474,0.01057285
4829.73366211,0.01047954
4831.66246948,0.01033741
4833.59127686,0.01048321
4835.52008423,0.01043539
4837.44889160,0.01038112
4839.37769897,0.01037913
4841.30650635,0.01034284
4843.23531372,0.01033617
4845.16412109,0.01028361
4847.09292847,0.01022580
4849.02173584,0.01015287
4850.95054321,0.01009131
4852.87935059,0.01014721
4854.80815796,0.01015804
4856.73696533,0.01006230
4858.66577270,0.01012462
4860.59458008,0.01012435
4862.52338745,0.01007089
4864.45219482,0.01002274
4866.38100220,0.00995449
4868.30980957,0.00997278
4870.23861694,0.00993274
4872.16742432,0.00994184
4874.09623169,0.00990349
4876.02503906,0.00991708
4877.95384644,0.00984147
4879.88265381,0.00969180
4881.81146118,0.00976955
4883.74026855,0.00973484
4885.66907593,0.00969930
4887.59788330,0.00966803
4889.52669067,0.00970421
4891.45549805,0.00967976
4893.38430542,0.00954271
4895.31311279,0.00959490
4897.24192017,0.00955503
4899.17072754,0.00953674
4901.09953491,0.00951010
4903.02834228,0.00947890
4904.95714966,0.00951334
4906.88595703,0.00945695
4908.81476440,0.00938703
4910.74357178,0.00936331
4912.67237915,0.00936364
4914.60118652,0.00925303
4916.52999390,0.00926960
4918.45880127,0.00934026
4920.38760864,0.00927785
4922.31641602,0.00920483
4924.24522339,0.00927442
4926.17403076,0.00930151
4928.10283813,0.00912015
4930.03164551,0.00911128
4931.96045288,0.00905358
4933.88926025,0.00907041
4935.81806763,0.00915263
4937.74687500,0.00910485
4939.67568237,0.00911634
4941.60448975,0.00897519
4943.53329712,0.00892161
4945.46210449,0.00894198
4947.39091187,0.00894381
4949.31971924,0.00885245
4951.24852661,0.00879882
4953.17733398,0.00886515
4955.10614136,0.00879259
4957.03494873,0.00882956
4958.96375610,0.00877719
4960.89256348,0.00874213
4962.82137085,0.00874559
4964.75017822,0.00874003
4966.67898560,0.00877628
4968.60779297,0.00868099
4970.53660034,0.00867707
4972.46540771,0.00857490
4974.39421509,0.00856592
4976.32302246,0.00852799
4978.25182983,0.00847796
4980.18063721,0.00855655
4982.10944458,0.00847340
4984.03825195,0.00853518
4985.96705933,0.00842857
4987.89586670,0.00836015
4989.82467407,0.00843800
4991.75348145,0.00839437
4993.68228882,0.00842737
4995.61109619,0.00836701
4997.53990356,0.00830898
4999.46871094,0.00824481
5001.39751831,0.00825381
5003.32632568,0.00824290
5005.25513306,0.00818244
5007.18394043,0.00814910
5009.11274780,0.00810872
5011.04155518,0.00821761
5012.97036255,0.00819475
5014.89916992,0.00814726
5016.82797729,0.00807420
5018.75678467,0.00801981
5020.68559204,0.00809345
5022.61439941,0.00800242
5024.54320679,0.00794164
5026.47201416,0.00796721
5028.40082153,0.00797714
5030.32962891,0.00792035
5032.25843628,0.00790801
5034.18724365,0.00791687
5036.11605103,0.00782369
5038.04485840,0.00777228
5039.97366577,0.00776471
5041.90247314,0.00777298
5043.83128052,0.00777894
5045.76008789,0.00780996
5047.68889526,0.00772125
5049.61770264,0.00772067
5051.54651001,0.00775850
5053.47531738,0.00758117
5055.40412476,0.00764599
5057.33293213,0.00768537
5059.26173950,0.00757882
5061.19054687,0.00757273
5063.11935425,0.00753238
5065.04816162,0.00755300
5066.97696899,0.00751794
5068.90577637,0.00749930
5070.83458374,0.00751539
5072.76339111,0.00742403
5074.69219849,0.00747874
5076.62100586,0.00749676
5078.54981323,0.00737645
5080.47862061,0.00740321
5082.40742798,0.00736165
5084.33623535,0.00729274
5086.26504272,0.00735268
5088.19385010,0.00731175
5090.12265747,0.00724314
5092.05146484,0.00729118
5093.98027222,0.00728202
5095.90907959,0.00715878
5097.83788696,0.00721253
5099.76669434,0.00720554
5101.69550171,0.00709613
5103.62430908,0.00718836
5105.55311645,0.00713277
5107.48192383,0.00704163
5109.41073120,0.00706762
5111.33953857,0.00704539
5113.26834595,0.00703909
5115.19715332,0.00700453
5117.12596069,0.00692276
5119.05476807,0.00695332
5120.98357544,0.00701170
5122.91238281,0.00691915
5124.84119019,0.00692199
5126.76999756,0.00689974
5128.69880493,0.00687184
5130.62761230,0.00688983
5132.55641968,0.00683791
5134.48522705,0.00689889
5136.41403442,0.00682735
5138.34284180,0.00680020
5140.27164917,0.00679354
5142.20045654,0.00670302
5144.12926392,0.00672535
5146.05807129,0.00668647
5147.98687866,0.00670753
5149.91568603,0.00665688
5151.84449341,0.00657915
5153.77330078,0.00657808
5155.70210815,0.00659355
5157.63091553,0.00662241
5159.55972290,0.00661177
5161.48853027,0.00660501
5163.41733765,0.00647642
5165.34614502,0.00650104
5167.27495239,0.00656340
5169.20375977,0.00653881
5171.13256714,0.00655022
5173.06137451,0.00641932
5174.99018188,0.00637599
5176.91898926,0.00642913
5178.84779663,0.00641389
5180.77660400,0.00634903
5182.70541138,0.00639437
5184.63421875,0.00635739
5186.56302612,0.00631154
5188.49183350,0.00640648
5190.42064087,0.00626678
5192.34944824,0.00633500
5194.27825562,0.00645066
5196.20706299,0.00625630
5198.13587036,0.00620408
5200.06467773,0.00622694
5201.99348511,0.00620202
5203.92229248,0.00619031
5205.85109985,0.00613548
5207.77990723,0.00605436
5209.70871460,0.00608802
5211.63752197,0.00610522
5213.56632935,0.00612128
5215.49513672,0.00613159
5217.42394409,0.00608523
5219.35275146,0.00605278
5221.28155884,0.00606042
5223.21036621,0.00612679
5225.13917358,0.00587406
5227.06798096,0.00585639
5228.99678833,0.00602397
5230.92559570,0.00590403
5232.85440308,0.00596425
5234.78321045,0.00589573
5236.71201782,0.00593521
5238.64082520,0.00589722
5240.56963257,0.00582840
5242.49843994,0.00599663
5244.42724731,0.00575807
5246.35605469,0.00579942
5248.28486206,0.00578692
5250.21366943,0.00562709
5252.14247681,0.00587033
5254.07128418,0.00573430
5256.00009155,0.00564763
5257.92889893,0.00575967
5259.85770630,0.00572831
5261.78651367,0.00573044
5263.71532104,0.00559800
5265.64412842,0.00556937
5267.57293579,0.00565926
5269.50174316,0.00563651
5271.43055054,0.00567237
5273.35935791,0.00567809
5275.28816528,0.00557436
5277.21697266,0.00559184
5279.14578003,0.00560558
5281.07458740,0.00558004
5283.00339478,0.00564882
5284.93220215,0.00555564
5286.86100952,0.00549484
5288.78981689,0.00557809
5290.71862427,0.00546196
5292.64743164,0.00542177
5294.57623901,0.00550905
5296.50504639,0.00548454
5298.43385376,0.00549371
5300.36266113,0.00546706
5302.29146851,0.00536579
5304.22027588,0.00537501
5306.14908325,0.00537582
5308.07789062,0.00526984
5310.00669800,0.00528653
5311.93550537,0.00529494
5313.86431274,0.00531489
5315.79312012,0.00538513
5317.72192749,0.00524573
5319.65073486,0.00524263
5321.57954224,0.00527699
5323.50834961,0.00526370
5325.43715698,0.00524282
5327.36596436,0.00506003
5329.29477173,0.00511173
5331.22357910,0.00515860
5333.15238647,0.00512912
5335.08119385,0.00516618
5337.01000122,0.00506996
5338.93880859,0.00493440
5340.86761597,0.00501846
5342.79642334,0.00516189
5344.72523071,0.00497102
5346.65403809,0.00495722
5348.58284546,0.00500837
5350.51165283,0.00501200
5352.44046020,0.00500565
5354.36926758,0.00478793
5356.29807495,0.00492876
5358.22688232,0.00501310
5360.15568970,0.00496028
5362.08449707,0.00493623
5364.01330444,0.00488812
5365.94211182,0.00491528
5367.87091919,0.00487829
5369.79972656,0.00501157
5371.72853394,0.00489285
5373.65734131,0.00482354
5375.58614868,0.00478447
5377.51495605,0.00464384
5379.44376343,0.00483998
5381.37257080,0.00481717
5383.30137817,0.00482057
5385.23018555,0.00473950
5387.15899292,0.00465442
5389.08780029,0.00475630
5391.01660767,0.00470279
5392.94541504,0.00470107
5394.87422241,0.00462119
5396.80302978,0.00471159
5398.73183716,0.00471690
5400.66064453,0.00466255
5402.58945190,0.00469994
5404.51825928,0.00459630
5406.44706665,0.00467119
5408.37587402,0.00458960
5410.30468140,0.00457687
5412.23348877,0.00455508
5414.16229614,0.00434982
5416.09110352,0.00451275
5418.01991089,0.00462383
5419.94871826,0.00453502
5421.87752563,0.00452112
5423.80633301,0.00449564
5425.73514038,0.00448585
5427.66394775,0.00448846
5429.59275513,0.00433170
5431.52156250,0.00437856
5433.45036987,0.00452391
5435.37917725,0.00434082
5437.30798462,0.00439310
5439.23679199,0.00445078
5441.16559936,0.00427871
5443.09440674,0.00432625
5445.02321411,0.00433568
5446.95202148,0.00428065
5448.88082886,0.00427336
5450.80963623,0.00422428
5452.73844360,0.00430025
5454.66725098,0.00432684
5456.59605835,0.00427293
5458.52486572,0.00431664
5460.45367310,0.00426707
5462.38248047,0.00424833
5464.31128784,0.00424017
5466.24009521,0.00426013
5468.16890259,0.00424944
5470.09770996,0.00410541
5472.02651733,0.00419972
5473.95532471,0.00418536
5475.88413208,0.00409568
5477.81293945,0.00412201
5479.74174683,0.00413350
5481.67055420,0.00418633
5483.59936157,0.00414299
5485.52816895,0.00417546
5487.45697632,0.00403801
5489.38578369,0.00402013
5491.31459106,0.00416201
5493.24339844,0.00395986
5495.17220581,0.00396885
5497.10101318,0.00403327
5499.02982056,0.00400083
5500.95862793,0.00406589
5502.88743530,0.00406987
5504.81624268,0.00405718
5506.74505005,0.00402516
5508.67385742,0.00402995
5510.60266479,0.00397079
5512.53147217,0.00391106
5514.46027954,0.00397117
5516.38908691,0.00394609
5518.31789429,0.00388497
5520.24670166,0.00384952
5522.17550903,0.00373690
5524.10431641,0.00378717
5526.03312378,0.00387842
5527.96193115,0.00383088
5529.89073853,0.00385738
5531.81954590,0.00386093
5533.74835327,0.00394283
5535.67716064,0.00388224
5537.60596802,0.00376564
5539.53477539,0.00383510
5541.46358276,0.00376025
5543.39239014,0.00378233
5545.32119751,0.00378755
5547.25000488,0.00376058
5549.17881226,0.00377238
5551.10761963,0.00374892
5553.03642700,0.00379250
5554.96523437,0.00370862
5556.89404175,0.00371819
5558.82284912,0.00371719
5560.75165649,0.00368530
5562.68046387,0.00372996
5564.60927124,0.00370380
5566.53807861,0.00368676
5568.46688599,0.00362665
5570.39569336,0.00364269
5572.32450073,0.00364459
5574.25330811,0.00363024
5576.18211548,0.00363888
5578.11092285,0.00362479
5580.03973022,0.00359821
5581.96853760,0.00356580
5583.89734497,0.00363852
5585.82615234,0.00357978
5587.75495972,0.00361056
5589.68376709,0.00361889
5591.61257446,0.00347264
5593.54138184,0.00355654
5595.47018921,0.00351182
5597.39899658,0.00346001
5599.32780395,0.00350382
5601.25661133,0.00341808
5603.18541870,0.00344735
5605.11422607,0.00349632
5607.04303345,0.00346197
5608.97184082,0.00347695
5610.90064819,0.00347907
5612.82945557,0.00343473
5614.75826294,0.00346348
5616.68707031,0.00347942
5618.61587769,0.00339828
5620.54468506,0.00337852
5622.47349243,0.00342569
5624.40229980,0.00341636
5626.33110718,0.00341073
5628.25991455,0.00337678
5630.18872192,0.00333622
5632.11752930,0.00337104
5634.04633667,0.00334651
5635.97514404,0.00332810
5637.90395142,0.00327386
5639.83275879,0.00325912
5641.76156616,0.00329381
5643.69037353,0.00321920
5645.61918091,0.00323777
5647.54798828,0.00326463
5649.47679565,0.00327326
5651.40560303,0.00324671
5653.33441040,0.00321529
5655.26321777,0.00322873
5657.19202515,0.00317892
5659.12083252,0.00319789
5661.04963989,0.00320926
5662.97844727,0.00319873
5664.90725464,0.00312726
5666.83606201,0.00315221
5668.76486938,0.00318847
5670.69367676,0.00309902
5672.62248413,0.00320112
5674.55129150,0.00317692
5676.48009888,0.00314203
5678.40890625,0.00315847
5680.33771362,0.00308102
5682.26652100,0.00307562
5684.19532837,0.00305340
5686.12413574,0.00310970
5688.05294311,0.00302800
5689.98175049,0.00298655
5691.91055786,0.00304441
5693.83936523,0.00299269
5695.76817261,0.00301783
5697.69697998,0.00299272
5699.62578735,0.00299243
5701.55459473,0.00293296
5703.48340210,0.00294228
5705.41220947,0.00302670
5707.34101685,0.00294490
5709.26982422,0.00299965
5711.19863159,0.00300090
5713.12743896,0.00292928
5715.05624634,0.00292997
5716.98505371,0.00294039
5718.91386108,0.00296288
5720.84266846,0.00285570
5722.77147583,0.00288516
5724.70028320,0.00294657
5726.62909058,0.00285361
5728.55789795,0.00286603
5730.48670532,0.00285869
5732.41551270,0.00285311
5734.34432007,0.00283953
5736.27312744,0.00279024
5738.20193481,0.00284507
5740.13074219,0.00287745
5742.05954956,0.00286463
5743.98835693,0.00275647
5745.91716431,0.00278286
5747.84597168,0.00286073
5749.77477905,0.00274902
5751.70358643,0.00280896
5753.63239380,0.00278546
5755.56120117,0.00269266
5757.49000854,0.00266118
5759.41881592,0.00262933
5761.34762329,0.00274833
5763.27643066,0.00273093
5765.20523804,0.00275755
5767.13404541,0.00269934
5769.06285278,0.00261484
5770.99166016,0.00276179
5772.92046753,0.00266115
5774.84927490,0.00263697
5776.77808228,0.00270835
5778.70688965,0.00263498
5780.63569702,0.00265308
5782.56450439,0.00265385
5784.49331177,0.00264196
5786.42211914,0.00265747
5788.35092651,0.00261480
5790.27973389,0.00252041
5792.20854126,0.00256030
5794.13734863,0.00262944
5796.06615601,0.00257729
5797.99496338,0.00257696
5799.92377075,0.00255175
5801.85257812,0.00253134
5803.78138550,0.00254670
5805.71019287,0.00250818
5807.63900024,0.00253885
5809.56780762,0.00252088
5811.49661499,0.00246967
5813.42542236,0.00252230
5815.35422974,0.00249998
5817.28303711,0.00249781
5819.21184448,0.00252028
5821.14065186,0.00248563
5823.06945923,0.00246217
5824.99826660,0.00242391
5826.92707397,0.00244321
5828.85588135,0.00243374
5830.78468872,0.00246208
5832.71349609,0.00245168
5834.64230347,0.00242505
5836.57111084,0.00249208
5838.49991821,0.00233183
5840.42872559,0.00231848
5842.35753296,0.00244566
5844.28634033,0.00240082
5846.21514770,0.00237872
5848.14395508,0.00230607
5850.07276245,0.00230679
5852.00156982,0.00237774
5853.93037720,0.00236975
5855.85918457,0.00233495
5857.78799194,0.00232764
5859.71679932,0.00229873
5861.64560669,0.00231587
5863.57441406,0.00232672
5865.50322144,0.00222470
5867.43202881,0.00229361
5869.36083618,0.00235715
5871.28964355,0.00230139
5873.21845093,0.00223970
5875.14725830,0.00222720
5877.07606567,0.00230741
5879.00487305,0.00231613
5880.93368042,0.00229366
5882.86248779,0.00223165
5884.79129517,0.00225159
5886.72010254,0.00219132
5888.64890991,0.00214792
5890.57771728,0.00227056
5892.50652466,0.00214605
5894.43533203,0.00215652
5896.36413940,0.00225856
5898.29294678,0.00216010
5900.22175415,0.00213244
5902.15056152,0.00214121
5904.07936890,0.00214496
5906.00817627,0.00218644
5907.93698364,0.00215244
5909.86579102,0.00210001
5911.79459839,0.00216087
5913.72340576,0.00208749
5915.65221313,0.00212777
5917.58102051,0.00214680
5919.50982788,0.00204685
5921.43863525,0.00215277
5923.36744263,0.00205418
5925.29625000,0.00209068
5927.22505737,0.00213766
5929.15386475,0.00205124
5931.08267212,0.00212455
5933.01147949,0.00208294
5934.94028686,0.00215083
5936.86909424,0.00207214
5938.79790161,0.00200009
5940.72670898,0.00211454
5942.65551636,0.00204561
5944.58432373,0.00198934
5946.51313110,0.00204391
5948.44193848,0.00208270
5950.37074585,0.00197480
5952.29955322,0.00202865
5954.22836060,0.00203906
5956.15716797,0.00195046
5958.08597534,0.00199679
5960.01478271,0.00193581
5961.94359009,0.00202307
5963.87239746,0.00203232
5965.80120483,0.00196378
5967.73001221,0.00202303
5969.65881958,0.00197950
5971.58762695,0.00194523
5973.51643433,0.00193008
5975.44524170,0.00196643
5977.37404907,0.00198008
5979.30285645,0.00197210
5981.23166382,0.00194234
5983.16047119,0.00189008
5985.08927856,0.00191182
5987.01808594,0.00186336
5988.94689331,0.00188137
5990.87570068,0.00197372
5992.80450806,0.00194895
5994.73331543,0.00189548
5996.66212280,0.00187668
5998.59093018,0.00183279
6000.51973755,0.00184583
