399.26312622,0.00304812
401.19193359,0.00329341
403.12074097,0.00395172
405.04954834,0.00414294
406.97835571,0.00454285
408.90716309,0.00423321
410.83597046,0.00426664
412.76477783,0.00478745
414.69358521,0.00430484
416.62239258,0.00520844
418.55119995,0.00418132
420.48000732,0.00414069
422.40881470,0.00536023
424.33762207,0.00453470
426.26642944,0.00546239
428.19523682,0.00481972
430.12404419,0.00477799
432.05285156,0.00591748
433.98165894,0.00479265
435.91046631,0.00472748
437.83927368,0.00502295
439.76808105,0.00487849
441.69688843,0.00418563
443.62569580,0.00373752
445.55450317,0.00406097
447.48331055,0.00371410
449.41211792,0.00362763
451.34092529,0.00410641
453.26973267,0.00402330
455.19854004,0.00347799
457.12734741,0.00328012
459.05615479,0.00300076
460.98496216,0.00259672
462.91376953,0.00260970
464.84257690,0.00297779
466.77138428,0.00277730
468.70019165,0.00254955
470.62899902,0.00245806
472.55780640,0.00188975
474.48661377,0.00189101
476.41542114,0.00171207
478.34422852,0.00164765
480.27303589,0.00145054
482.20184326,0.00120787
484.13065063,0.00130656
486.05945801,0.00073355
487.98826538,0.00114600
489.91707275,0.00158733
491.84588013,0.00134438
493.77468750,0.00117893
495.70349487,0.00098164
497.63230225,0.00095257
499.56110962,0.00095610
501.48991699,0.00069462
503.41872437,0.00117951
505.34753174,0.00076902
507.27633911,0.00074536
509.20514648,0.00085150
511.13395386,0.00068868
513.06276123,0.00105101
514.99156860,0.00123238
516.92037598,0.00139180
518.84918335,0.00100939
520.77799072,0.00070492
522.70679810,0.00105360
524.63560547,0.00117775
526.56441284,0.00103376
528.49322021,0.00123794
530.42202759,0.00127519
532.35083496,0.00069150
534.27964233,0.00096452
536.20844971,0.00090639
538.13725708,0.00065920
540.06606445,0.00089153
541.99487183,0.00043578
543.92367920,0.00074582
545.85248657,0.00093332
547.78129395,0.00061079
549.71010132,0.00056702
551.63890869,0.00107284
553.56771606,0.00133541
555.49652344,0.00040500
557.42533081,0.00095085
559.35413818,0.00109577
561.28294556,0.00057583
563.21175293,0.00115972
565.14056030,0.00086151
567.06936768,0.00086652
568.99817505,0.00082867
570.92698242,0.00070625
572.85578979,0.00117148
574.78459717,0.00139185
576.71340454,0.00110130
578.64221191,0.00055982
580.57101929,0.00102293
582.49982666,0.00113469
584.42863403,0.00103905
586.35744141,0.00107277
588.28624878,0.00076136
590.21505615,0.00098772
592.14386353,0.00086147
594.07267090,0.00071329
596.00147827,0.00068628
597.93028564,0.00086842
599.85909302,0.00119381
601.78790039,0.00104482
603.71670776,0.00095572
605.64551514,0.00095217
607.57432251,0.00100263
609.50312988,0.00065218
611.43193726,0.00053213
613.36074463,0.00054109
615.28955200,0.00052871
617.21835938,0.00067890
619.14716675,0.00029301
621.07597412,0.00027610
623.00478149,0.00031911
624.93358887,0.00024398
626.86239624,0.00058967
628.79120361,0.00035897
630.72001099,0.00090938
632.64881836,0.00215783
634.57762573,0.00315904
636.50643311,0.00375343
638.43524048,0.00350917
640.36404785,0.00361560
642.29285522,0.00395128
644.22166260,0.00480125
646.15046997,0.00531067
648.07927734,0.00535215
650.00808472,0.00582951
651.93689209,0.00548615
653.86569946,0.00588301
655.79450684,0.00649577
657.72331421,0.00641521
659.65212158,0.00685367
661.58092896,0.00699253
663.50973633,0.00736672
665.43854370,0.00749442
667.36735107,0.00683894
669.29615845,0.00728796
671.22496582,0.00818947
673.15377319,0.00839251
675.08258057,0.00887698
677.01138794,0.00935399
678.94019531,0.00942033
680.86900269,0.00949695
682.79781006,0.00949043
684.72661743,0.00930891
686.65542480,0.00909058
688.58423218,0.00916765
690.51303955,0.00937848
692.44184692,0.01013373
694.37065430,0.01106887
696.29946167,0.01202025
698.22826904,0.01397293
700.15707642,0.01488258
702.08588379,0.01413905
704.01469116,0.01350303
705.94349854,0.01219344
707.87230591,0.00999072
709.80111328,0.00814618
711.72992065,0.00597651
713.65872803,0.00346243
715.58753540,0.00216113
717.51634277,0.00139461
719.44515015,0.00108093
721.37395752,0.00116566
723.30276489,0.00059438
725.23157227,0.00035035
727.16037964,0.00032858
729.08918701,0.00011199
731.01799438,0.00013665
732.94680176,0.00023545
734.87560913,0.00046820
736.80441650,0.00036205
738.73322388,0.00011528
740.66203125,0.00018980
742.59083862,0.00025332
744.51964600,0.00035836
746.44845337,0.00045717
748.37726074,0.00054334
750.30606812,0.00046838
752.23487549,0.00073692
754.16368286,0.00036300
756.09249023,0.00057992
758.02129761,0.00093926
759.95010498,0.00057584
761.87891235,0.00055260
763.80771973,0.00052216
765.73652710,0.00103938
767.66533447,0.00096980
769.59414185,0.00072931
771.52294922,0.00089637
773.45175659,0.00067894
775.38056396,0.00096786
777.30937134,0.00086971
779.23817871,0.00080278
781.16698608,0.00104069
783.09579346,0.00052273
785.02460083,0.00062971
786.95340820,0.00099856
788.88221558,0.00105841
790.81102295,0.00097752
792.73983032,0.00091587
794.66863770,0.00127135
796.59744507,0.00139329
798.52625244,0.00188420
800.45505981,0.00222460
802.38386719,0.00188475
804.31267456,0.00159037
806.24148193,0.00153076
808.17028931,0.00166727
810.09909668,0.00121317
812.02790405,0.00100769
813.95671143,0.00094198
815.88551880,0.00101487
817.81432617,0.00114553
819.74313354,0.00076489
821.67194092,0.00117302
823.60074829,0.00122220
825.52955566,0.00113319
827.45836304,0.00144507
829.38717041,0.00175317
831.31597778,0.00230646
833.24478516,0.00261576
835.17359253,0.00321348
837.10239990,0.00299385
839.03120728,0.00311603
840.96001465,0.00351549
842.88882202,0.00264146
844.81762939,0.00257509
846.74643677,0.00246957
848.67524414,0.00228178
850.60405151,0.00220193
852.53285889,0.00159891
854.46166626,0.00157838
856.39047363,0.00182142
858.31928101,0.00183844
860.24808838,0.00114372
862.17689575,0.00080542
864.10570313,0.00108707
866.03451050,0.00077642
867.96331787,0.00074488
869.89212524,0.00080604
871.82093262,0.00066228
873.74973999,0.00097016
875.67854736,0.00091993
877.60735474,0.00060782
879.53616211,0.00073206
881.46496948,0.00071227
883.39377686,0.00053716
885.32258423,0.00056866
887.25139160,0.00076064
889.18019897,0.00073118
891.10900635,0.00058565
893.03781372,0.00076574
894.96662109,0.00095747
896.89542847,0.00090541
898.82423584,0.00060330
900.75304321,0.00065648
902.68185059,0.00096986
904.61065796,0.00090177
906.53946533,0.00098607
908.46827271,0.00103930
910.39708008,0.00099646
912.32588745,0.00118445
914.25469482,0.00144343
916.18350220,0.00159404
918.11230957,0.00179211
920.04111694,0.00222825
921.96992432,0.00215312
923.89873169,0.00234722
925.82753906,0.00281295
927.75634644,0.00283812
929.68515381,0.00307601
931.61396118,0.00326104
933.54276855,0.00370940
935.47157593,0.00397678
937.40038330,0.00389607
939.32919067,0.00418737
941.25799805,0.00446102
943.18680542,0.00459771
945.11561279,0.00450482
947.04442017,0.00448592
948.97322754,0.00438767
950.90203491,0.00422847
952.83084229,0.00435602
954.75964966,0.00432765
956.68845703,0.00432690
958.61726440,0.00440163
960.54607178,0.00438547
962.47487915,0.00445805
964.40368652,0.00455532
966.33249390,0.00463190
968.26130127,0.00481232
970.19010864,0.00481099
972.11891602,0.00497581
974.04772339,0.00569088
975.97653076,0.00605330
977.90533813,0.00637441
979.83414551,0.00715118
981.76295288,0.00787438
983.69176025,0.00852846
985.62056763,0.00948461
987.54937500,0.01070037
989.47818237,0.01162805
991.40698975,0.01292267
993.33579712,0.01446092
995.26460449,0.01555078
997.19341187,0.01694745
999.12221924,0.01824799
1001.05102661,0.01940206
1002.97983398,0.02096924
1004.90864136,0.02250300
1006.83744873,0.02385509
1008.76625610,0.02519616
1010.69506348,0.02677096
1012.62387085,0.02814990
1014.55267822,0.02957805
1016.48148560,0.03118024
1018.41029297,0.03250579
1020.33910034,0.03418987
1022.26790771,0.03574976
1024.19671509,0.03721227
1026.12552246,0.03841982
1028.05432983,0.03942581
1029.98313721,0.04104990
1031.91194458,0.04178707
1033.84075195,0.04249737
1035.76955933,0.04362449
1037.69836670,0.04383182
1039.62717407,0.04392181
1041.55598145,0.04393382
1043.48478882,0.04363203
1045.41359619,0.04305537
1047.34240356,0.04262080
1049.27121094,0.04202015
1051.20001831,0.04115948
1053.12882568,0.04041854
1055.05763306,0.03940971
1056.98644043,0.03858233
1058.91524780,0.03758732
1060.84405518,0.03662939
1062.77286255,0.03545272
1064.70166992,0.03408278
1066.63047729,0.03316949
1068.55928467,0.03163952
1070.48809204,0.03031883
1072.41689941,0.02911186
1074.34570679,0.02756538
1076.27451416,0.02636858
1078.20332153,0.02500727
1080.13212891,0.02374787
1082.06093628,0.02275100
1083.98974365,0.02163283
1085.91855103,0.02054250
1087.84735840,0.01973114
1089.77616577,0.01868768
1091.70497314,0.01780188
1093.63378052,0.01733946
1095.56258789,0.01671387
1097.49139526,0.01618043
1099.42020264,0.01559822
1101.34901001,0.01521265
1103.27781738,0.01493534
1105.20662476,0.01458933
1107.13543213,0.01421610
1109.06423950,0.01378477
1110.99304687,0.01357466
1112.92185425,0.01348927
1114.85066162,0.01345754
1116.77946899,0.01320640
1118.70827637,0.01350898
1120.63708374,0.01382999
1122.56589111,0.01374935
1124.49469849,0.01400517
1126.42350586,0.01379963
1128.35231323,0.01394357
1130.28112061,0.01464302
1132.20992798,0.01518839
1134.13873535,0.01548519
1136.06754272,0.01585172
1137.99635010,0.01685391
1139.92515747,0.01786987
1141.85396484,0.01908610
1143.78277222,0.02038924
1145.71157959,0.02154422
1147.64038696,0.02285336
1149.56919434,0.02411123
1151.49800171,0.02531887
1153.42680908,0.02667078
1155.35561646,0.02803237
1157.28442383,0.02917676
1159.21323120,0.03037102
1161.14203857,0.03133419
1163.07084595,0.03231014
1164.99965332,0.03364482
1166.92846069,0.03504151
1168.85726807,0.03620646
1170.78607544,0.03750641
1172.71488281,0.03920040
1174.64369019,0.04044767
1176.57249756,0.04205613
1178.50130493,0.04369946
1180.43011230,0.04523134
1182.35891968,0.04737085
1184.28772705,0.04909294
1186.21653442,0.05134598
1188.14534180,0.05400710
1190.07414917,0.05623332
1192.00295654,0.05887738
1193.93176392,0.06183109
1195.86057129,0.06457523
1197.78937866,0.06751452
1199.71818604,0.07066979
1201.64699341,0.07348593
1203.57580078,0.07645147
1205.50460815,0.07948689
1207.43341553,0.08247279
1209.36222290,0.08516779
1211.29103027,0.08776050
1213.21983765,0.09046374
1215.14864502,0.09253404
1217.07745239,0.09436049
1219.00625977,0.09610972
1220.93506714,0.09793451
1222.86387451,0.09900314
1224.79268188,0.09968512
1226.72148926,0.10058047
1228.65029663,0.10097694
1230.57910400,0.10154917
1232.50791138,0.10146192
1234.43671875,0.10150776
1236.36552612,0.10173652
1238.29433350,0.10143672
1240.22314087,0.10135210
1242.15194824,0.10065419
1244.08075562,0.10032181
1246.00956299,0.09991375
1247.93837036,0.09909207
1249.86717773,0.09863831
1251.79598511,0.09785912
1253.72479248,0.09690748
1255.65359985,0.09562388
1257.58240723,0.09418389
1259.51121460,0.09267402
1261.44002197,0.09126302
1263.36882935,0.09018148
1265.29763672,0.08908445
1267.22644409,0.08782312
1269.15525146,0.08667885
1271.08405884,0.08552660
1273.01286621,0.08390398
1274.94167358,0.08237426
1276.87048096,0.08078390
1278.79928833,0.07916525
1280.72809570,0.07746839
1282.65690308,0.07596977
1284.58571045,0.07477009
1286.51451782,0.07317577
1288.44332520,0.07203625
1290.37213257,0.07107379
1292.30093994,0.07050715
1294.22974731,0.06997643
1296.15855469,0.06901948
1298.08736206,0.06896222
1300.01616943,0.06907052
1301.94497681,0.06947551
1303.87378418,0.07043643
1305.80259155,0.07091422
1307.73139893,0.07148860
1309.66020630,0.07303336
1311.58901367,0.07418859
1313.51782104,0.07517222
1315.44662842,0.07733788
1317.37543579,0.07901664
1319.30424316,0.08079652
1321.23305054,0.08355221
1323.16185791,0.08621623
1325.09066528,0.08876814
1327.01947266,0.09129465
1328.94828003,0.09359464
1330.87708740,0.09588307
1332.80589478,0.09836835
1334.73470215,0.10011572
1336.66350952,0.10097136
1338.59231689,0.09989274
1340.52112427,0.10112527
1342.44993164,0.10577522
1344.37873901,0.10604820
1346.30754639,0.10588800
1348.23635376,0.10630838
1350.16516113,0.10511075
1352.09396851,0.10515392
1354.02277588,0.10361542
1355.95158325,0.10288785
1357.88039062,0.10229999
1359.80919800,0.10026447
1361.73800537,0.09605092
1363.66681274,0.09438249
1365.59562012,0.09950143
1367.52442749,0.09720818
1369.45323486,0.09584843
1371.38204224,0.09773308
1373.31084961,0.09218040
1375.23965698,0.09300821
1377.16846436,0.09555240
1379.09727173,0.09511470
1381.02607910,0.09521106
1382.95488647,0.09489267
1384.88369385,0.09471403
1386.81250122,0.09011923
1388.74130859,0.09168302
1390.67011597,0.09949441
1392.59892334,0.09675315
1394.52773071,0.09016618
1396.45653809,0.09478532
1398.38534546,0.09481423
1400.31415283,0.09414218
1402.24296021,0.10220958
1404.17176758,0.09619316
1406.10057495,0.09668124
1408.02938232,0.10097264
1409.95818970,0.09693507
1411.88699707,0.09934571
1413.81580444,0.09564740
1415.74461182,0.09708484
1417.67341919,0.08748645
1419.60222656,0.07760727
1421.53103394,0.09028135
1423.45984131,0.08765331
1425.38864868,0.08483346
1427.31745605,0.08620663
1429.24626343,0.07914011
1431.17507080,0.07698869
1433.10387817,0.07848965
1435.03268555,0.07103190
1436.96149292,0.05968539
1438.89030029,0.06860100
1440.81910767,0.07039514
1442.74791504,0.06503049
1444.67672241,0.06844904
1446.60552979,0.06233237
1448.53433716,0.06324890
1450.46314453,0.06527589
1452.39195190,0.06662003
1454.32075928,0.06946027
1456.24956665,0.05666310
1458.17837402,0.05922282
1460.10718140,0.07956508
1462.03598877,0.08462760
1463.96479614,0.08370423
1465.89360352,0.08723413
1467.82241089,0.10017936
1469.75121826,0.10762037
1471.68002563,0.09503396
1473.60883301,0.10048822
1475.53764038,0.11503197
1477.46644775,0.12394099
1479.39525513,0.13669652
1481.32406250,0.13825376
1483.25286987,0.14729217
1485.18167725,0.15220812
1487.11048462,0.14935970
1489.03929199,0.14857878
1490.96809937,0.14936455
1492.89690674,0.17493048
1494.82571411,0.17070243
1496.75452148,0.15286404
1498.68332886,0.17366892
1500.61213623,0.17910776
1502.54094360,0.19277176
1504.46975098,0.18154323
1506.39855835,0.13025670
1508.32736572,0.16071394
1510.25617310,0.18978277
1512.18498047,0.18372768
1514.11378784,0.19981118
1516.04259521,0.17915046
1517.97140259,0.18695630
1519.90020996,0.18060604
1521.82901733,0.15535244
1523.75782471,0.19180512
1525.68663208,0.18832567
1527.61543945,0.18743558
1529.54424683,0.20839617
1531.47305420,0.20000477
1533.40186157,0.18246481
1535.33066895,0.19407107
1537.25947632,0.20831388
1539.18828369,0.14680561
1541.11709106,0.15395141
1543.04589844,0.18601593
1544.97470581,0.17788500
1546.90351318,0.21224889
1548.83232056,0.19726028
1550.76112793,0.20367542
1552.68993530,0.20259267
1554.61874268,0.18318230
1556.54755005,0.19653046
1558.47635742,0.13617818
1560.40516479,0.14802554
1562.33397217,0.21347265
1564.26277954,0.20132193
1566.19158691,0.20757526
1568.12039429,0.20494688
1570.04920166,0.18068613
1571.97800903,0.20978679
1573.90681641,0.21239632
1575.83562378,0.16676071
1577.76443115,0.18991260
1579.69323853,0.21593761
1581.62204590,0.20577705
1583.55085327,0.21094273
1585.47966064,0.20781040
1587.40846802,0.20956185
1589.33727539,0.20762213
1591.26608276,0.20738333
1593.19489014,0.20780519
1595.12369751,0.20506230
1597.05250488,0.20797816
1598.98131226,0.20664027
1600.91011963,0.20773965
1602.83892700,0.20392433
1604.76773437,0.20749301
1606.69654175,0.20418715
1608.62534912,0.20384166
1610.55415649,0.20365426
1612.48296387,0.20499694
1614.41177124,0.20786041
1616.34057861,0.16840050
1618.26938599,0.18366933
1620.19819336,0.21484496
1622.12700073,0.18919986
1624.05580811,0.19029537
1625.98461548,0.20009276
1627.91342285,0.19902414
1629.84223022,0.19791083
1631.77103760,0.21180308
1633.69984497,0.19445536
1635.62865234,0.15897848
1637.55745972,0.18650773
1639.48626709,0.20614144
1641.41507446,0.20106584
1643.34388184,0.20669332
1645.27268921,0.18527736
1647.20149658,0.16166307
1649.13030396,0.20297119
1651.05911133,0.19165564
1652.98791870,0.12045591
1654.91672607,0.16679576
1656.84553345,0.21115506
1658.77434082,0.20164222
1660.70314819,0.20749524
1662.63195557,0.18763128
1664.56076294,0.19836208
1666.48957031,0.21371850
1668.41837769,0.18530303
1670.34718506,0.17979668
1672.27599243,0.20507365
1674.20479980,0.18858409
1676.13360718,0.18052824
1678.06241455,0.20907712
1679.99122192,0.20099358
1681.92002930,0.19840404
1683.84883667,0.15975788
1685.77764404,0.15851939
1687.70645142,0.21972823
1689.63525879,0.18933459
1691.56406616,0.20942906
1693.49287354,0.21321565
1695.42168091,0.15348732
1697.35048828,0.19125673
1699.27929565,0.16698410
1701.20810303,0.14981999
1703.13691040,0.20690107
1705.06571777,0.18889508
1706.99452515,0.19043076
1708.92333252,0.20771162
1710.85213989,0.19924164
1712.78094727,0.20281613
1714.70975464,0.18745238
1716.63856201,0.16730343
1718.56736938,0.16460949
1720.49617676,0.19665936
1722.42498413,0.20437284
1724.35379150,0.18912330
1726.28259888,0.20645051
1728.21140625,0.18999812
1730.14021362,0.19161409
1732.06902100,0.18631853
1733.99782837,0.14000276
1735.92663574,0.17647773
1737.85544312,0.19576141
1739.78425049,0.17317346
1741.71305786,0.18932198
1743.64186523,0.19177750
1745.57067261,0.19210964
1747.49947998,0.19354236
1749.42828735,0.18450192
1751.35709473,0.17633481
1753.28590210,0.19654971
1755.21470947,0.20583811
1757.14351685,0.18685298
1759.07232422,0.20630157
1761.00113159,0.19312689
1762.92993896,0.18637127
1764.85874634,0.21428552
1766.78755371,0.19177756
1768.71636108,0.19407280
1770.64516846,0.19254035
1772.57397583,0.17209686
1774.50278320,0.19311407
1776.43159058,0.20428121
1778.36039795,0.20141771
1780.28920532,0.19877534
1782.21801270,0.20035383
1784.14682007,0.20000583
1786.07562744,0.19586226
1788.00443481,0.20669684
1789.93324219,0.20108163
1791.86204956,0.18075168
1793.79085693,0.18892275
1795.71966431,0.20346132
1797.64847168,0.20069629
1799.57727905,0.19739409
1801.50608643,0.19381446
1803.43489380,0.20038566
1805.36370117,0.20497578
1807.29250854,0.20213194
1809.22131592,0.20265457
1811.15012329,0.19708024
1813.07893066,0.20362188
1815.00773804,0.20430487
1816.93654541,0.20160453
1818.86535278,0.20346484
1820.79416016,0.20275676
1822.72296753,0.20576185
1824.65177490,0.19168392
1826.58058228,0.19886649
1828.50938965,0.19909808
1830.43819702,0.18623073
1832.36700439,0.20350471
1834.29581177,0.20224226
1836.22461914,0.20195873
1838.15342651,0.20095652
1840.08223389,0.20229813
1842.01104126,0.20258224
1843.93984863,0.17858917
1845.86865601,0.19104105
1847.79746338,0.20191941
1849.72627075,0.19730787
1851.65507812,0.20355383
1853.58388550,0.19918269
1855.51269287,0.20144400
1857.44150024,0.19997786
1859.37030762,0.19857924
1861.29911499,0.20018180
1863.22792236,0.19758812
1865.15672974,0.19992048
1867.08553711,0.19283158
1869.01434448,0.18433611
1870.94315186,0.19211081
1872.87195923,0.19979617
1874.80076660,0.19646099
1876.72957397,0.19748399
1878.65838135,0.19690573
1880.58718872,0.19568795
1882.51599609,0.19728148
1884.44480347,0.19392310
1886.37361084,0.19693850
1888.30241821,0.19215548
1890.23122559,0.18821765
1892.16003296,0.19580136
1894.08884033,0.19269305
1896.01764771,0.19184962
1897.94645508,0.19412740
1899.87526245,0.19307932
1901.80406982,0.19363149
1903.73287720,0.19224364
1905.66168457,0.19312851
1907.59049194,0.19104499
1909.51929932,0.18976709
1911.44810669,0.19087280
1913.37691406,0.19094911
1915.30572144,0.19279829
1917.23452881,0.18386444
1919.16333618,0.18409857
1921.09214355,0.19152609
1923.02095093,0.18500282
1924.94975830,0.18904319
1926.87856567,0.19116977
1928.80737305,0.18850087
1930.73618042,0.19086778
1932.66498779,0.18820888
1934.59379517,0.19007486
1936.52260254,0.18850999
1938.45140991,0.18921013
1940.38021729,0.18907170
1942.30902466,0.18269426
1944.23783203,0.18647583
1946.16663940,0.18827733
1948.09544678,0.18784249
1950.02425415,0.18836941
1951.95306152,0.18772870
1953.88186890,0.18796888
1955.81067627,0.18693450
1957.73948364,0.18779531
1959.66829102,0.18729745
1961.59709839,0.18683931
1963.52590576,0.18737768
1965.45471313,0.18621482
1967.38352051,0.18430290
1969.31232788,0.18574128
1971.24113525,0.18710798
1973.16994263,0.18547074
1975.09875000,0.18635684
1977.02755737,0.18535280
1978.95636475,0.18536001
1980.88517212,0.18554325
1982.81397949,0.18452737
1984.74278687,0.18521833
1986.67159424,0.18350908
1988.60040161,0.18402073
1990.52920898,0.18237127
1992.45801636,0.18016060
1994.38682373,0.18283406
1996.31563110,0.18314528
1998.24443848,0.18225670
2000.17324585,0.18215936
2002.10205322,0.18176344
2004.03086060,0.18133785
2005.95966797,0.18106031
2007.88847534,0.18049300
2009.81728271,0.18034208
2011.74609009,0.17996517
2013.67489746,0.17956737
2015.60370483,0.17862970
2017.53251221,0.17690444
2019.46131958,0.17808822
2021.39012695,0.17804572
2023.31893433,0.17721587
2025.24774170,0.17735712
2027.17654907,0.17651837
2029.10535645,0.17647362
2031.03416382,0.17584693
2032.96297119,0.17570919
2034.89177856,0.17528221
2036.82058594,0.17472360
2038.74939331,0.17462200
2040.67820068,0.17347887
2042.60700806,0.17327628
2044.53581543,0.17322305
2046.46462280,0.17287171
2048.39343018,0.17253330
2050.32223755,0.17216684
2052.25104492,0.17183480
2054.17985229,0.17141080
2056.10865967,0.17106923
2058.03746704,0.17068645
2059.96627441,0.17033941
2061.89508179,0.17001182
2063.82388916,0.16940120
2065.75269653,0.16855174
2067.68150391,0.16899243
2069.61031128,0.16887645
2071.53911865,0.16821256
2073.46792603,0.16807461
2075.39673340,0.16739982
2077.32554077,0.16734800
2079.25434814,0.16694394
2081.18315552,0.16664991
2083.11196289,0.16640595
2085.04077026,0.16603959
2086.96957764,0.16582851
2088.89838501,0.16493908
2090.82719238,0.16481066
2092.75599976,0.16473439
2094.68480713,0.16443536
2096.61361450,0.16413023
2098.54242187,0.16387054
2100.47122925,0.16347042
2102.40003662,0.16304013
2104.32884399,0.16297883
2106.25765137,0.16254249
2108.18645874,0.16240785
2110.11526611,0.16210489
2112.04407349,0.16195850
2113.97288086,0.16143203
2115.90168823,0.16096151
2117.83049561,0.16115057
2119.75930298,0.16056302
2121.68811035,0.16044375
2123.61691772,0.16023558
2125.54572510,0.16002738
2127.47453247,0.15983444
2129.40333984,0.15948737
2131.33214722,0.15933239
2133.26095459,0.15896642
2135.18976196,0.15891361
2137.11856934,0.15841267
2139.04737671,0.15826851
2140.97618408,0.15822014
2142.90499146,0.15801457
2144.83379883,0.15774709
2146.76260620,0.15740326
2148.69141357,0.15744954
2150.62022095,0.15698558
2152.54902832,0.15699735
2154.47783569,0.15676449
2156.40664307,0.15640682
2158.33545044,0.15631780
2160.26425781,0.15598923
2162.19306519,0.15572551
2164.12187256,0.15535642
2166.05067993,0.15553591
2167.97948730,0.15518799
2169.90829468,0.15497726
2171.83710205,0.15489411
2173.76590942,0.15452901
2175.69471680,0.15446505
2177.62352417,0.15417632
2179.55233154,0.15404879
2181.48113892,0.15370888
2183.40994629,0.15363857
2185.33875366,0.15327099
2187.26756104,0.15309682
2189.19636841,0.15311185
2191.12517578,0.15273881
2193.05398315,0.15273798
2194.98279053,0.15228003
2196.91159790,0.15223327
2198.84040527,0.15189083
2200.76921265,0.15171480
2202.69802002,0.15174049
2204.62682739,0.15125450
2206.55563477,0.15123677
2208.48444214,0.15087438
2210.41324951,0.15084079
2212.34205688,0.15060446
2214.27086426,0.15052842
2216.19967163,0.15031320
2218.12847900,0.14987911
2220.05728638,0.14996067
2221.98609375,0.14934681
2223.91490112,0.14943862
2225.84370850,0.14929473
2227.77251587,0.14877714
2229.70132324,0.14867818
2231.63013062,0.14844617
2233.55893799,0.14818364
2235.48774536,0.14782561
2237.41655273,0.14773780
2239.34536011,0.14727920
2241.27416748,0.14716679
2243.20297485,0.14689720
2245.13178223,0.14672799
2247.06058960,0.14663959
2248.98939697,0.14602542
2250.91820435,0.14610469
2252.84701172,0.14575720
2254.77581909,0.14553736
2256.70462646,0.14526251
2258.63343384,0.14493012
2260.56224121,0.14494149
2262.49104858,0.14450772
2264.41985596,0.14433569
2266.34866333,0.14412360
2268.27747070,0.14396887
2270.20627808,0.14370108
2272.13508545,0.14354041
2274.06389282,0.14333886
2275.99270020,0.14308336
2277.92150757,0.14296329
2279.85031494,0.14275752
2281.77912231,0.14278032
2283.70792969,0.14247701
2285.63673706,0.14242485
2287.56554443,0.14192951
2289.49435181,0.14149877
2291.42315918,0.14127375
2293.35196655,0.14065303
2295.28077393,0.14045407
2297.20958130,0.13982245
2299.13838867,0.13949828
2301.06719604,0.13888520
2302.99600342,0.13812999
2304.92481079,0.13744897
2306.85361816,0.13639289
2308.78242554,0.13549335
2310.71123291,0.13401178
2312.64004028,0.13285136
2314.56884766,0.13145182
2316.49765503,0.12981078
2318.42646240,0.12801005
2320.35526978,0.12620354
2322.28407715,0.12452811
2324.21288452,0.12253919
2326.14169189,0.12133171
2328.07049927,0.11961550
2329.99930664,0.11805290
2331.92811401,0.11709745
2333.85692139,0.11656302
2335.78572876,0.11612490
2337.71453613,0.11575921
2339.64334351,0.11599254
2341.57215088,0.11609626
2343.50095825,0.11805992
2345.42976562,0.12033960
2347.35857300,0.12538731
2349.28738037,0.12986566
2351.21618774,0.12497649
2353.14499512,0.11829939
2355.07380249,0.11371823
2357.00260986,0.11004911
2358.93141724,0.10799447
2360.86022461,0.10659844
2362.78903198,0.10654004
2364.71783936,0.10720687
2366.64664673,0.10874600
2368.57545410,0.11088967
2370.50426147,0.11384049
2372.43306885,0.11727215
2374.36187622,0.12058398
2376.29068359,0.12391108
2378.21949097,0.12685305
2380.14829834,0.12920715
2382.07710571,0.13060953
2384.00591309,0.13158487
2385.93472046,0.13192344
2387.86352783,0.13214928
2389.79233521,0.13200663
2391.72114258,0.13172588
2393.64994995,0.13173553
2395.57875732,0.13140243
2397.50756470,0.13134223
2399.43637207,0.13098603
2401.36517944,0.13099313
2403.29398682,0.13078269
2405.22279419,0.13052109
2407.15160156,0.13055161
2409.08040894,0.13009855
2411.00921631,0.13013470
2412.93802368,0.12975371
2414.86683105,0.12966467
2416.79563843,0.12951846
2418.72444580,0.12914604
2420.65325317,0.12903595
2422.58206055,0.12873679
2424.51086792,0.12876593
2426.43967529,0.12828209
2428.36848267,0.12827510
2430.29729004,0.12817162
2432.22609741,0.12791468
2434.15490479,0.12790456
2436.08371216,0.12753448
2438.01251953,0.12750399
2439.94132690,0.12714586
2441.87013428,0.12713362
2443.79894165,0.12695231
2445.72774902,0.12663311
2447.65655640,0.12649673
2449.58536377,0.12623951
2451.51417114,0.12619901
2453.44297852,0.12584910
2455.37178589,0.12581114
2457.30059326,0.12551373
2459.22940063,0.12541357
2461.15820801,0.12529302
2463.08701538,0.12498768
2465.01582275,0.12503116
2466.94463013,0.12464000
2468.87343750,0.12450968
2470.80224487,0.12420514
2472.73105225,0.12416060
2474.65985962,0.12405431
2476.58866699,0.12373805
2478.51747437,0.12365960
2480.44628174,0.12338355
2482.37508911,0.12335489
2484.30389648,0.12295015
2486.23270386,0.12298270
2488.16151123,0.12283446
2490.09031860,0.12243608
2492.01912598,0.12237662
2493.94793335,0.12213401
2495.87674072,0.12217899
2497.80554810,0.12180249
2499.73435547,0.12176602
2501.66316284,0.12156932
2503.59197021,0.12126424
2505.52077759,0.12130433
2507.44958496,0.12102032
2509.37839233,0.12098752
2511.30719971,0.12064528
2513.23600708,0.12062830
2515.16481445,0.12041549
2517.09362183,0.12004201
2519.02242920,0.12015460
2520.95123657,0.11982385
2522.88004395,0.11962442
2524.80885132,0.11951482
2526.73765869,0.11932053
2528.66646606,0.11908960
2530.59527344,0.11901869
2532.52408081,0.11891800
2534.45288818,0.11871966
2536.38169556,0.11860603
2538.31050293,0.11840193
2540.23931030,0.11828599
2542.16811768,0.11801457
2544.09692505,0.11791079
2546.02573242,0.11770728
2547.95453979,0.11749280
2549.88334717,0.11737762
2551.81215454,0.11715108
2553.74096191,0.11707351
2555.66976929,0.11685504
2557.59857666,0.11664103
2559.52738403,0.11630803
2561.45619141,0.11636297
2563.38499878,0.11631817
2565.31380615,0.11592080
2567.24261353,0.11581685
2569.17142090,0.11561982
2571.10022827,0.11555003
2573.02903564,0.11531974
2574.95784302,0.11521289
2576.88665039,0.11504390
2578.81545776,0.11479850
2580.74426514,0.11469169
2582.67307251,0.11443608
2584.60187988,0.11442112
2586.53068726,0.11408564
2588.45949463,0.11388144
2590.38830200,0.11373231
2592.31710937,0.11352546
2594.24591675,0.11344373
2596.17472412,0.11320974
2598.10353149,0.11321934
2600.03233887,0.11295275
2601.96114624,0.11276495
2603.88995361,0.11269467
2605.81876099,0.11252018
2607.74756836,0.11227111
2609.67637573,0.11205880
2611.60518311,0.11202444
2613.53399048,0.11170217
2615.46279785,0.11157385
2617.39160522,0.11138584
2619.32041260,0.11124180
2621.24921997,0.11118700
2623.17802734,0.11097720
2625.10683472,0.11082789
2627.03564209,0.11057137
2628.96444946,0.11045399
2630.89325684,0.11023162
2632.82206421,0.11007748
2634.75087158,0.10995445
2636.67967895,0.10983671
2638.60848633,0.10965876
2640.53729370,0.10943346
2642.46610107,0.10931975
2644.39490845,0.10899825
2646.32371582,0.10899980
2648.25252319,0.10877786
2650.18133057,0.10856692
2652.11013794,0.10847535
2654.03894531,0.10812253
2655.96775269,0.10804418
2657.89656006,0.10791451
2659.82536743,0.10780247
2661.75417480,0.10745111
2663.68298218,0.10745098
2665.61178955,0.10747711
2667.54059692,0.10710335
2669.46940430,0.10700456
2671.39821167,0.10673487
2673.32701904,0.10665457
2675.25582642,0.10642894
2677.18463379,0.10624436
2679.11344116,0.10617493
2681.04224854,0.10598658
2682.97105591,0.10589325
2684.89986328,0.10555032
2686.82867065,0.10550352
2688.75747803,0.10534086
2690.68628540,0.10508219
2692.61509277,0.10492965
2694.54390015,0.10479042
2696.47270752,0.10465799
2698.40151489,0.10439341
2700.33032227,0.10438110
2702.25912964,0.10414331
2704.18793701,0.10396740
2706.11674438,0.10386492
2708.04555176,0.10368223
2709.97435913,0.10347917
2711.90316650,0.10328504
2713.83197388,0.10324886
2715.76078125,0.10288433
2717.68958862,0.10282880
2719.61839600,0.10272065
2721.54720337,0.10242883
2723.47601074,0.10238013
2725.40481812,0.10216749
2727.33362549,0.10199425
2729.26243286,0.10178889
2731.19124023,0.10156405
2733.12004761,0.10130146
2735.04885498,0.10127271
2736.97766235,0.10118715
2738.90646973,0.10100023
2740.83527710,0.10087720
2742.76408447,0.10053580
2744.69289185,0.10052191
2746.62169922,0.10043906
2748.55050659,0.10020071
2750.47931396,0.09990335
2752.40812134,0.09969371
2754.33692871,0.09967178
2756.26573608,0.09946360
2758.19454346,0.09935808
2760.12335083,0.09909126
2762.05215820,0.09892640
2763.98096558,0.09885658
2765.90977295,0.09867028
2767.83858032,0.09850976
2769.76738770,0.09825595
2771.69619507,0.09798115
2773.62500244,0.09777801
2775.55380981,0.09786760
2777.48261719,0.09748860
2779.41142456,0.09711757
2781.34023193,0.09718975
2783.26903931,0.09691821
2785.19784668,0.09670866
2787.12665405,0.09652489
2789.05546143,0.09641010
2790.98426880,0.09626617
2792.91307617,0.09594978
2794.84188354,0.09589367
2796.77069092,0.09577756
2798.69949829,0.09548169
2800.62830566,0.09537117
2802.55711304,0.09520657
2804.48592041,0.09495798
2806.41472778,0.09481303
2808.34353516,0.09451263
2810.27234253,0.09436116
2812.20114990,0.09414147
2814.12995728,0.09398055
2816.05876465,0.09400325
2817.98757202,0.09368227
2819.91637939,0.09352297
2821.84518677,0.09335628
2823.77399414,0.09317655
2825.70280151,0.09289502
2827.63160889,0.09261398
2829.56041626,0.09255362
2831.48922363,0.09211908
2833.41803101,0.09192218
2835.34683838,0.09186193
2837.27564575,0.09168597
2839.20445312,0.09145269
2841.13326050,0.09114429
2843.06206787,0.09088056
2844.99087524,0.09036811
2846.91968262,0.08994712
2848.84848999,0.08936992
2850.77729736,0.08905753
2852.70610474,0.08911190
2854.63491211,0.08882608
2856.56371948,0.08875506
2858.49252686,0.08866324
2860.42133423,0.08850458
2862.35014160,0.08850504
2864.27894897,0.08828002
2866.20775635,0.08808540
2868.13656372,0.08798239
2870.06537109,0.08786018
2871.99417847,0.08771276
2873.92298584,0.08745810
2875.85179321,0.08750257
2877.78060059,0.08739553
2879.70940796,0.08697718
2881.63821533,0.08699694
2883.56702270,0.08684503
2885.49583008,0.08668867
2887.42463745,0.08656448
2889.35344482,0.08621438
2891.28225220,0.08621641
2893.21105957,0.08592341
2895.13986694,0.08562227
2897.06867432,0.08559960
2898.99748169,0.08533637
2900.92628906,0.08507022
2902.85509644,0.08484771
2904.78390381,0.08464575
2906.71271118,0.08442838
2908.64151855,0.08414020
2910.57032593,0.08379245
2912.49913330,0.08339771
2914.42794067,0.08283937
2916.35674805,0.08251771
2918.28555542,0.08232446
2920.21436279,0.08194605
2922.14317017,0.08189057
2924.07197754,0.08183764
2926.00078491,0.08170758
2927.92959229,0.08159307
2929.85839966,0.08150576
2931.78720703,0.08146078
2933.71601440,0.08140242
2935.64482178,0.08150791
2937.57362915,0.08150763
2939.50243652,0.08152951
2941.43124390,0.08139168
2943.36005127,0.08121054
2945.28885864,0.08117146
2947.21766602,0.08105725
2949.14647339,0.08102100
2951.07528076,0.08081025
2953.00408813,0.08060488
2954.93289551,0.08030970
2956.86170288,0.08000685
2958.79051025,0.07986441
2960.71931763,0.07959770
2962.64812500,0.07938490
2964.57693237,0.07918511
2966.50573975,0.07913464
2968.43454712,0.07918331
2970.36335449,0.07924977
2972.29216187,0.07930761
2974.22096924,0.07936463
2976.14977661,0.07944368
2978.07858398,0.07928182
2980.00739136,0.07919899
2981.93619873,0.07931728
2983.86500610,0.07927795
2985.79381348,0.07908143
2987.72262085,0.07901175
2989.65142822,0.07891239
2991.58023560,0.07879154
2993.50904297,0.07859568
2995.43785034,0.07843553
2997.36665771,0.07847080
2999.29546509,0.07823169
3001.22427246,0.07822260
3003.15307983,0.07801729
3005.08188721,0.07772004
3007.01069458,0.07785284
3008.93950195,0.07754793
3010.86830933,0.07725886
3012.79711670,0.07701355
3014.72592407,0.07688260
3016.65473145,0.07683693
3018.58353882,0.07661942
3020.51234619,0.07654448
3022.44115356,0.07640122
3024.36996094,0.07620607
3026.29876831,0.07593741
3028.22757568,0.07589465
3030.15638306,0.07558441
3032.08519043,0.07524793
3034.01399780,0.07527776
3035.94280518,0.07507075
3037.87161255,0.07502127
3039.80041992,0.07482814
3041.72922729,0.07465555
3043.65803467,0.07450689
3045.58684204,0.07437697
3047.51564941,0.07432181
3049.44445679,0.07398035
3051.37326416,0.07390173
3053.30207153,0.07377179
3055.23087891,0.07359391
3057.15968628,0.07339457
3059.08849365,0.07332268
3061.01730103,0.07327276
3062.94610840,0.07292597
3064.87491577,0.07275011
3066.80372314,0.07258172
3068.73253052,0.07263857
3070.66133789,0.07245848
3072.59014526,0.07229476
3074.51895264,0.07229767
3076.44776001,0.07195284
3078.37656738,0.07171088
3080.30537476,0.07149802
3082.23418213,0.07162158
3084.16298950,0.07141741
3086.09179687,0.07116471
3088.02060425,0.07121937
3089.94941162,0.07093242
3091.87821899,0.07086630
3093.80702637,0.07066500
3095.73583374,0.07043472
3097.66464111,0.07030384
3099.59344849,0.07018755
3101.52225586,0.07000156
3103.45106323,0.06977221
3105.37987061,0.06977262
3107.30867798,0.06952526
3109.23748535,0.06933096
3111.16629272,0.06915700
3113.09510010,0.06904131
3115.02390747,0.06878930
3116.95271484,0.06847924
3118.88152222,0.06847480
3120.81032959,0.06824202
3122.73913696,0.06811310
3124.66794434,0.06790508
3126.59675171,0.06776899
3128.52555908,0.06773946
3130.45436645,0.06754117
3132.38317383,0.06731813
3134.31198120,0.06694475
3136.24078857,0.06685764
3138.16959595,0.06672522
3140.09840332,0.06655674
3142.02721069,0.06641084
3143.95601807,0.06620399
3145.88482544,0.06608257
3147.81363281,0.06586505
3149.74244019,0.06571941
3151.67124756,0.06536327
3153.60005493,0.06508577
3155.52886230,0.06508850
3157.45766968,0.06503370
3159.38647705,0.06477478
3161.31528442,0.06455199
3163.24409180,0.06443621
3165.17289917,0.06424174
3167.10170654,0.06420848
3169.03051392,0.06393295
3170.95932129,0.06369768
3172.88812866,0.06353766
3174.81693604,0.06335892
3176.74574341,0.06320272
3178.67455078,0.06279303
3180.60335815,0.06277091
3182.53216553,0.06269151
3184.46097290,0.06249388
3186.38978027,0.06233518
3188.31858765,0.06217602
3190.24739502,0.06210109
3192.17620239,0.06182239
3194.10500977,0.06173199
3196.03381714,0.06152424
3197.96262451,0.06130362
3199.89143188,0.06115800
3201.82023926,0.06103013
3203.74904663,0.06090240
3205.67785400,0.06071028
3207.60666138,0.06068835
3209.53546875,0.06047569
3211.46427612,0.06042438
3213.39308350,0.06019010
3215.32189087,0.06003825
3217.25069824,0.06007829
3219.17950562,0.05974372
3221.10831299,0.05973083
3223.03712036,0.05965540
3224.96592773,0.05956105
3226.89473511,0.05941136
3228.82354248,0.05927439
3230.75234985,0.05925194
3232.68115723,0.05897649
3234.60996460,0.05892371
3236.53877197,0.05882906
3238.46757935,0.05870009
3240.39638672,0.05865172
3242.32519409,0.05863653
3244.25400146,0.05836500
3246.18280884,0.05827235
3248.11161621,0.05847283
3250.04042358,0.05817642
3251.96923096,0.05814006
3253.89803833,0.05801616
3255.82684570,0.05782740
3257.75565308,0.05784656
3259.68446045,0.05777389
3261.61326782,0.05775120
3263.54207520,0.05752850
3265.47088257,0.05758676
3267.39968994,0.05751339
3269.32849731,0.05733412
3271.25730469,0.05724740
3273.18611206,0.05712838
3275.11491943,0.05705760
3277.04372681,0.05687237
3278.97253418,0.05700476
3280.90134155,0.05688810
3282.83014893,0.05683906
3284.75895630,0.05688949
3286.68776367,0.05668468
3288.61657104,0.05665534
3290.54537842,0.05641931
3292.47418579,0.05631970
3294.40299316,0.05630742
3296.33180054,0.05621688
3298.26060791,0.05611057
3300.18941528,0.05604377
3302.11822266,0.05601925
3304.04703003,0.05584913
3305.97583740,0.05571762
3307.90464478,0.05555654
3309.83345215,0.05559190
3311.76225952,0.05562594
3313.69106689,0.05555589
3315.61987427,0.05541886
3317.54868164,0.05535057
3319.47748901,0.05533484
3321.40629639,0.05512006
3323.33510376,0.05515118
3325.26391113,0.05501743
3327.19271851,0.05488117
3329.12152588,0.05489334
3331.05033325,0.05473815
3332.97914062,0.05466285
3334.90794800,0.05454288
3336.83675537,0.05432377
3338.76556274,0.05425739
3340.69437012,0.05434544
3342.62317749,0.05409418
3344.55198486,0.05411110
3346.48079224,0.05411046
3348.40959961,0.05387550
3350.33840698,0.05379435
3352.26721436,0.05354529
3354.19602173,0.05362266
3356.12482910,0.05337152
3358.05363647,0.05333726
3359.98244385,0.05337065
3361.91125122,0.05299604
3363.84005859,0.05309223
3365.76886597,0.05286389
3367.69767334,0.05274456
3369.62648071,0.05265751
3371.55528809,0.05263746
3373.48409546,0.05270968
3375.41290283,0.05248663
3377.34171020,0.05244252
3379.27051758,0.05234446
3381.19932495,0.05227822
3383.12813232,0.05196430
3385.05693970,0.05192082
3386.98574707,0.05184975
3388.91455444,0.05180441
3390.84336182,0.05170256
3392.77216919,0.05115613
3394.70097656,0.05145819
3396.62978394,0.05123369
3398.55859131,0.05092539
3400.48739868,0.05100018
3402.41620605,0.05079619
3404.34501343,0.05092221
3406.27382080,0.05078888
3408.20262817,0.05069225
3410.13143555,0.05051877
3412.06024292,0.05056211
3413.98905029,0.05038018
3415.91785767,0.05021183
3417.84666504,0.05036400
3419.77547241,0.04985513
3421.70427979,0.04973350
3423.63308716,0.04976308
3425.56189453,0.04983060
3427.49070190,0.04971144
3429.41950928,0.04953992
3431.34831665,0.04952679
3433.27712402,0.04929310
3435.20593140,0.04932845
3437.13473877,0.04903577
3439.06354614,0.04909456
3440.99235352,0.04884962
3442.92116089,0.04858863
3444.84996826,0.04883411
3446.77877563,0.04814677
3448.70758301,0.04817266
3450.63639038,0.04865445
3452.56519775,0.04850970
3454.49400513,0.04840991
3456.42281250,0.04829547
3458.35161987,0.04824696
3460.28042725,0.04826142
3462.20923462,0.04797431
3464.13804199,0.04795235
3466.06684937,0.04803918
3467.99565674,0.04771034
3469.92446411,0.04789696
3471.85327148,0.04778829
3473.78207886,0.04770606
3475.71088623,0.04769332
3477.63969360,0.04749548
3479.56850098,0.04755817
3481.49730835,0.04692794
3483.42611572,0.04713449
3485.35492310,0.04740442
3487.28373047,0.04714601
3489.21253784,0.04714336
3491.14134521,0.04712059
3493.07015259,0.04737635
3494.99895996,0.04700625
3496.92776733,0.04694689
3498.85657471,0.04709332
3500.78538208,0.04690151
3502.71418945,0.04615554
3504.64299683,0.04613103
3506.57180420,0.04718602
3508.50061157,0.04651574
3510.42941895,0.04623563
3512.35822632,0.04667885
3514.28703369,0.04682210
3516.21584106,0.04686348
3518.14464844,0.04655645
3520.07345581,0.04674331
3522.00226318,0.04618194
3523.93107056,0.04573224
3525.85987793,0.04583792
3527.78868530,0.04572650
3529.71749268,0.04587237
3531.64630005,0.04633924
3533.57510742,0.04662975
3535.50391479,0.04614301
3537.43272217,0.04599565
3539.36152954,0.04638783
3541.29033691,0.04645928
3543.21914429,0.04597459
3545.14795166,0.04493827
3547.07675903,0.04434084
3549.00556641,0.04579177
3550.93437378,0.04602594
3552.86318115,0.04482429
3554.79198853,0.04589161
3556.72079590,0.04610195
3558.64960327,0.04588768
3560.57841064,0.04550220
3562.50721802,0.04527744
3564.43602539,0.04565279
3566.36483276,0.04237404
3568.29364014,0.04140863
3570.22244751,0.04483173
3572.15125488,0.04592203
3574.08006226,0.04538556
3576.00886963,0.04558447
3577.93767700,0.04545303
3579.86648437,0.04529314
3581.79529175,0.04528501
3583.72409912,0.04540481
3585.65290649,0.04449619
3587.58171387,0.04076123
3589.51052124,0.04193795
3591.43932861,0.04572842
3593.36813599,0.04428831
3595.29694336,0.04348661
3597.22575073,0.04437461
3599.15455811,0.04469416
3601.08336548,0.04431098
3603.01217285,0.04468757
3604.94098022,0.04551644
3606.86978760,0.04394701
3608.79859497,0.04121076
3610.72740234,0.04226876
3612.65620972,0.04319011
3614.58501709,0.04183753
3616.51382446,0.04494467
3618.44263184,0.04142587
3620.37143921,0.04002146
3622.30024658,0.04514686
3624.22905395,0.04394794
3626.15786133,0.04604319
3628.08666870,0.03887502
3630.01547607,0.03533725
3631.94428345,0.04450661
3633.87309082,0.04342980
3635.80189819,0.04413322
3637.73070557,0.04502081
3639.65951294,0.04445278
3641.58832031,0.04479957
3643.51712769,0.04416390
3645.44593506,0.04463317
3647.37474243,0.03993605
3649.30354980,0.03652729
3651.23235718,0.03705751
3653.16116455,0.04413067
3655.08997192,0.04352111
3657.01877930,0.03885286
3658.94758667,0.04481612
3660.87639404,0.04391796
3662.80520142,0.04458274
3664.73400879,0.04434234
3666.66281616,0.04380335
3668.59162354,0.04256083
3670.52043091,0.03457355
3672.44923828,0.04203810
3674.37804565,0.03998316
3676.30685303,0.03295363
3678.23566040,0.04171411
3680.16446777,0.04260556
3682.09327515,0.04266520
3684.02208252,0.04396266
3685.95088989,0.04319100
3687.87969727,0.03877135
3689.80850464,0.03551883
3691.73731201,0.04072883
3693.66611938,0.04195620
3695.59492676,0.04299126
3697.52373413,0.04284908
3699.45254150,0.04241496
3701.38134888,0.04140612
3703.31015625,0.03976820
3705.23896362,0.04381816
3707.16777100,0.04160457
3709.09657837,0.04059836
3711.02538574,0.03810500
3712.95419312,0.03562920
3714.88300049,0.04196801
3716.81180786,0.04127849
3718.74061523,0.04162895
3720.66942261,0.04076469
3722.59822998,0.03935203
3724.52703735,0.04081583
3726.45584473,0.03782111
3728.38465210,0.04102594
3730.31345947,0.04053658
3732.24226685,0.03720590
3734.17107422,0.03618721
3736.09988159,0.03436480
3738.02868896,0.03638960
3739.95749634,0.03956341
3741.88630371,0.04156474
3743.81511108,0.03200145
3745.74391846,0.03024582
3747.67272583,0.03946099
3749.60153320,0.03373840
3751.53034058,0.03104547
3753.45914795,0.03576837
3755.38795532,0.03849049
3757.31676270,0.03998572
3759.24557007,0.03701466
3761.17437744,0.03848777
3763.10318481,0.04083617
3765.03199219,0.03801453
3766.96079956,0.03897598
3768.88960693,0.03847355
3770.81841431,0.03649159
3772.74722168,0.03963089
3774.67602905,0.03979213
3776.60483643,0.03974028
3778.53364380,0.03863806
3780.46245117,0.03710108
3782.39125854,0.03958380
3784.32006592,0.03866603
3786.24887329,0.03840312
3788.17768066,0.03921034
3790.10648804,0.03901656
3792.03529541,0.03874597
3793.96410278,0.03937624
3795.89291016,0.03705841
3797.82171753,0.03649326
3799.75052490,0.03851517
3801.67933228,0.03040702
3803.60813965,0.03552265
3805.53694702,0.03870506
3807.46575439,0.03146175
3809.39456177,0.03831913
3811.32336914,0.03761327
3813.25217651,0.03890497
3815.18098389,0.03513136
3817.10979126,0.03063416
3819.03859863,0.03880449
3820.96740601,0.03119772
3822.89621338,0.03295060
3824.82502075,0.03861982
3826.75382812,0.03472576
3828.68263550,0.03749742
3830.61144287,0.03593611
3832.54025024,0.03482240
3834.46905762,0.03560523
3836.39786499,0.03370212
3838.32667236,0.03050236
3840.25547974,0.03298739
3842.18428711,0.03555571
3844.11309448,0.03390576
3846.04190186,0.03678067
3847.97070923,0.03617691
3849.89951660,0.03626805
3851.82832397,0.03264844
3853.75713135,0.02412126
3855.68593872,0.02867382
3857.61474609,0.03628406
3859.54355347,0.03536947
3861.47236084,0.03486935
3863.40116821,0.03405829
3865.32997559,0.03162129
3867.25878296,0.03540751
3869.18759033,0.03226560
3871.11639770,0.02974530
3873.04520508,0.03548279
3874.97401245,0.03249203
3876.90281982,0.03519668
3878.83162720,0.03586580
3880.76043457,0.03053733
3882.68924194,0.03534240
3884.61804932,0.03294078
3886.54685669,0.03018918
3888.47566406,0.03541462
3890.40447144,0.03339443
3892.33327881,0.03134488
3894.26208618,0.03440356
3896.19089355,0.03503479
3898.11970093,0.03330176
3900.04850830,0.03138717
3901.97731567,0.03100830
3903.90612305,0.03069685
3905.83493042,0.03126006
3907.76373779,0.03433844
3909.69254517,0.03434954
3911.62135254,0.03400151
3913.55015991,0.03444567
3915.47896728,0.03322300
3917.40777466,0.03241449
3919.33658203,0.03211771
3921.26538940,0.03337792
3923.19419678,0.03321647
3925.12300415,0.03251136
3927.05181152,0.03309591
3928.98061890,0.03335419
3930.90942627,0.03274906
3932.83823364,0.03160155
3934.76704102,0.03290518
3936.69584839,0.03320635
3938.62465576,0.03282220
3940.55346313,0.03317284
3942.48227051,0.03194612
3944.41107788,0.03216073
3946.33988525,0.03267950
3948.26869263,0.03200161
3950.19750000,0.03191381
3952.12630737,0.03241678
3954.05511475,0.03246158
3955.98392212,0.03228784
3957.91272949,0.03228486
3959.84153687,0.03221590
3961.77034424,0.03201810
3963.69915161,0.03188421
3965.62795898,0.03222263
3967.55676636,0.03198788
3969.48557373,0.03189523
3971.41438110,0.03182443
3973.34318848,0.03166165
3975.27199585,0.03167262
3977.20080322,0.03142854
3979.12961060,0.03177792
3981.05841797,0.03159521
3982.98722534,0.03149791
3984.91603271,0.03142736
3986.84484009,0.03133421
3988.77364746,0.03139189
3990.70245483,0.03093773
3992.63126221,0.03118830
3994.56006958,0.03108117
3996.48887695,0.03098894
3998.41768433,0.03103013
4000.34649170,0.03089693
4002.27529907,0.03083209
4004.20410645,0.03064068
4006.13291382,0.03076525
4008.06172119,0.03048679
4009.99052856,0.03051511
4011.91933594,0.03042009
4013.84814331,0.03035745
4015.77695068,0.03041116
4017.70575806,0.03011807
4019.63456543,0.03016294
4021.56337280,0.03010006
4023.49218018,0.03018345
4025.42098755,0.02992473
4027.34979492,0.02998006
4029.27860229,0.02996461
4031.20740967,0.02972730
4033.13621704,0.02990498
4035.06502441,0.02959489
4036.99383179,0.02963258
4038.92263916,0.02956005
4040.85144653,0.02954580
4042.78025391,0.02943579
4044.70906128,0.02922291
4046.63786865,0.02929464
4048.56667603,0.02905472
4050.49548340,0.02917934
4052.42429077,0.02910143
4054.35309814,0.02905667
4056.28190552,0.02892698
4058.21071289,0.02880157
4060.13952026,0.02884322
4062.06832764,0.02869234
4063.99713501,0.02873067
4065.92594238,0.02856637
4067.85474976,0.02862364
4069.78355713,0.02846904
4071.71236450,0.02846074
4073.64117187,0.02842873
4075.56997925,0.02820430
4077.49878662,0.02835068
4079.42759399,0.02814695
4081.35640137,0.02808052
4083.28520874,0.02794614
4085.21401611,0.02799493
4087.14282349,0.02788772
4089.07163086,0.02782471
4091.00043823,0.02795586
4092.92924561,0.02764892
4094.85805298,0.02772129
4096.78686035,0.02754005
4098.71566772,0.02755816
4100.64447510,0.02748393
4102.57328247,0.02738378
4104.50208984,0.02743051
4106.43089722,0.02713144
4108.35970459,0.02731169
4110.28851196,0.02713528
4112.21731934,0.02712492
4114.14612671,0.02708795
4116.07493408,0.02696269
4118.00374145,0.02700431
4119.93254883,0.02672745
4121.86135620,0.02680059
4123.79016357,0.02670984
4125.71897095,0.02662325
4127.64777832,0.02649143
4129.57658569,0.02652299
4131.50539307,0.02647806
4133.43420044,0.02632215
4135.36300781,0.02640001
4137.29181519,0.02619523
4139.22062256,0.02628542
4141.14942993,0.02610337
4143.07823730,0.02606999
4145.00704468,0.02606333
4146.93585205,0.02592003
4148.86465942,0.02604478
4150.79346680,0.02585259
4152.72227417,0.02588070
4154.65108154,0.02571765
4156.57988892,0.02570049
4158.50869629,0.02570541
4160.43750366,0.02561017
4162.36631103,0.02557529
4164.29511841,0.02539675
4166.22392578,0.02544398
4168.15273315,0.02526757
4170.08154053,0.02537975
4172.01034790,0.02523059
4173.93915527,0.02513182
4175.86796265,0.02520328
4177.79677002,0.02493713
4179.72557739,0.02507205
4181.65438477,0.02493095
4183.58319214,0.02489673
4185.51199951,0.02481813
4187.44080688,0.02469780
4189.36961426,0.02470230
4191.29842163,0.02461855
4193.22722900,0.02469552
4195.15603638,0.02453140
4197.08484375,0.02448179
4199.01365112,0.02433471
4200.94245850,0.02435939
4202.87126587,0.02434318
4204.80007324,0.02422965
4206.72888062,0.02428674
4208.65768799,0.02415057
4210.58649536,0.02415916
4212.51530273,0.02393429
4214.44411011,0.02392963
4216.37291748,0.02388476
4218.30172485,0.02381614
4220.23053223,0.02389238
4222.15933960,0.02368461
4224.08814697,0.02371765
4226.01695435,0.02353102
4227.94576172,0.02349067
4229.87456909,0.02354046
4231.80337646,0.02344999
4233.73218384,0.02341665
4235.66099121,0.02334710
4237.58979858,0.02334222
4239.51860596,0.02328711
4241.44741333,0.02330314
4243.37622070,0.02310249
4245.30502808,0.02307153
4247.23383545,0.02295825
4249.16264282,0.02291816
4251.09145020,0.02293755
4253.02025757,0.02271239
4254.94906494,0.02293232
4256.87787231,0.02278898
4258.80667969,0.02274073
4260.73548706,0.02274310
4262.66429443,0.02254264
4264.59310181,0.02261494
4266.52190918,0.02255186
4268.45071655,0.02245150
4270.37952393,0.02227037
4272.30833130,0.02234044
4274.23713867,0.02223663
4276.16594604,0.02219984
4278.09475342,0.02218598
4280.02356079,0.02206984
4281.95236816,0.02215631
4283.88117554,0.02189137
4285.80998291,0.02205688
4287.73879028,0.02201637
4289.66759766,0.02183878
4291.59640503,0.02188092
4293.52521240,0.02178748
4295.45401978,0.02185364
4297.38282715,0.02158922
4299.31163452,0.02164333
4301.24044189,0.02165163
4303.16924927,0.02149846
4305.09805664,0.02148527
4307.02686401,0.02140959
4308.95567139,0.02139830
4310.88447876,0.02123576
4312.81328613,0.02123085
4314.74209351,0.02110466
4316.67090088,0.02112275
4318.59970825,0.02109915
4320.52851562,0.02101006
4322.45732300,0.02104460
4324.38613037,0.02087934
4326.31493774,0.02098974
4328.24374512,0.02092309
4330.17255249,0.02082020
4332.10135986,0.02074810
4334.03016724,0.02067392
4335.95897461,0.02063090
4337.88778198,0.02056694
4339.81658936,0.02067675
4341.74539673,0.02047918
4343.67420410,0.02043184
4345.60301147,0.02042284
4347.53181885,0.02036561
4349.46062622,0.02028578
4351.38943359,0.02020469
4353.31824097,0.02026128
4355.24704834,0.02011692
4357.17585571,0.02022408
4359.10466309,0.02011098
4361.03347046,0.01997720
4362.96227783,0.01999264
4364.89108520,0.01985787
4366.81989258,0.01989058
4368.74869995,0.01983047
4370.67750732,0.01981474
4372.60631470,0.01973391
4374.53512207,0.01971399
4376.46392944,0.01966554
4378.39273682,0.01960208
4380.32154419,0.01958333
4382.25035156,0.01946809
4384.17915894,0.01948821
4386.10796631,0.01937790
4388.03677368,0.01940041
4389.96558105,0.01927904
4391.89438843,0.01917849
4393.82319580,0.01926749
4395.75200317,0.01910249
4397.68081055,0.01908684
4399.60961792,0.01904885
4401.53842529,0.01901941
4403.46723267,0.01899093
4405.39604004,0.01892022
4407.32484741,0.01887346
4409.25365478,0.01882574
4411.18246216,0.01878355
4413.11126953,0.01871622
4415.04007690,0.01875493
4416.96888428,0.01865058
4418.89769165,0.01857480
4420.82649902,0.01853386
4422.75530640,0.01857945
4424.68411377,0.01855269
4426.61292114,0.01838886
4428.54172852,0.01842587
4430.47053589,0.01833267
4432.39934326,0.01830123
4434.32815063,0.01822757
4436.25695801,0.01817102
4438.18576538,0.01817543
4440.11457275,0.01811674
4442.04338013,0.01812552
4443.97218750,0.01797315
4445.90099487,0.01797736
4447.82980225,0.01796274
4449.75860962,0.01783608
4451.68741699,0.01778886
4453.61622437,0.01780611
4455.54503174,0.01775683
4457.47383911,0.01773850
4459.40264648,0.01774230
4461.33145386,0.01750618
4463.26026123,0.01763916
4465.18906860,0.01762310
4467.11787598,0.01745920
4469.04668335,0.01748818
4470.97549072,0.01733083
4472.90429810,0.01729837
4474.83310547,0.01725761
4476.76191284,0.01730138
4478.69072021,0.01720299
4480.61952759,0.01719911
4482.54833496,0.01717623
4484.47714233,0.01699672
4486.40594971,0.01713748
4488.33475708,0.01698205
4490.26356445,0.01694874
4492.19237183,0.01692801
4494.12117920,0.01682261
4496.04998657,0.01690385
4497.97879395,0.01679747
4499.90760132,0.01676418
4501.83640869,0.01664902
4503.76521606,0.01662472
4505.69402344,0.01664183
4507.62283081,0.01658098
4509.55163818,0.01656828
4511.48044556,0.01651008
4513.40925293,0.01649301
4515.33806030,0.01644437
4517.26686768,0.01642426
4519.19567505,0.01637077
4521.12448242,0.01627292
4523.05328979,0.01619354
4524.98209717,0.01626076
4526.91090454,0.01618657
4528.83971191,0.01606476
4530.76851929,0.01607561
4532.69732666,0.01598517
4534.62613403,0.01610187
4536.55494141,0.01601147
4538.48374878,0.01591825
4540.41255615,0.01590867
4542.34136353,0.01583272
4544.27017090,0.01591902
4546.19897827,0.01571742
4548.12778564,0.01567177
4550.05659302,0.01568411
4551.98540039,0.01562315
4553.91420776,0.01562641
4555.84301514,0.01548023
4557.77182251,0.01548928
4559.70062988,0.01553641
4561.62943726,0.01546085
4563.55824463,0.01537310
4565.48705200,0.01540389
4567.41585937,0.01536682
4569.34466675,0.01536315
4571.27347412,0.01528650
4573.20228149,0.01521261
4575.13108887,0.01531065
4577.05989624,0.01513627
4578.98870361,0.01514188
4580.91751099,0.01508708
4582.84631836,0.01500278
4584.77512573,0.01506488
4586.70393311,0.01490987
4588.63274048,0.01495656
4590.56154785,0.01491392
4592.49035522,0.01480383
4594.41916260,0.01474293
4596.34796997,0.01468255
4598.27677734,0.01469883
4600.20558472,0.01467235
4602.13439209,0.01466987
4604.06319946,0.01457884
4605.99200684,0.01449028
4607.92081421,0.01445448
4609.84962158,0.01451219
4611.77842895,0.01445233
4613.70723633,0.01437195
4615.63604370,0.01438728
4617.56485107,0.01432253
4619.49365845,0.01430259
4621.42246582,0.01422312
4623.35127319,0.01428545
4625.28008057,0.01423091
4627.20888794,0.01413083
4629.13769531,0.01418023
4631.06650269,0.01407573
4632.99531006,0.01401292
4634.92411743,0.01395234
4636.85292480,0.01402437
4638.78173218,0.01397482
4640.71053955,0.01386679
4642.63934692,0.01387820
4644.56815430,0.01375360
4646.49696167,0.01379601
4648.42576904,0.01376464
4650.35457642,0.01370330
4652.28338379,0.01376570
4654.21219116,0.01368236
4656.14099853,0.01361202
4658.06980591,0.01357397
4659.99861328,0.01349660
4661.92742065,0.01352377
4663.85622803,0.01349472
4665.78503540,0.01341835
4667.71384277,0.01343772
4669.64265015,0.01334954
4671.57145752,0.01341624
4673.50026489,0.01337503
4675.42907227,0.01323028
4677.35787964,0.01328100
4679.28668701,0.01317892
4681.21549438,0.01318069
4683.14430176,0.01315837
4685.07310913,0.01317474
4687.00191650,0.01318941
4688.93072388,0.01301913
4690.85953125,0.01301014
4692.78833862,0.01298132
4694.71714600,0.01296629
4696.64595337,0.01291537
4698.57476074,0.01284609
4700.50356812,0.01280627
4702.43237549,0.01281852
4704.36118286,0.01284499
4706.28999023,0.01268451
4708.21879761,0.01266146
4710.14760498,0.01266285
4712.07641235,0.01262188
4714.00521973,0.01260323
4715.93402710,0.01257182
4717.86283447,0.01259849
4719.79164185,0.01252414
4721.72044922,0.01248217
4723.64925659,0.01249246
4725.57806396,0.01239699
4727.50687134,0.01235960
4729.43567871,0.01239271
4731.36448608,0.01230786
4733.29329346,0.01225428
4735.22210083,0.01222912
4737.15090820,0.01224647
4739.07971558,0.01219842
4741.00852295,0.01213128
4742.93733032,0.01221095
4744.86613770,0.01203554
4746.79494507,0.01205993
4748.72375244,0.01213838
4750.65255981,0.01204371
4752.58136719,0.01205916
4754.51017456,0.01194598
4756.43898193,0.01196507
4758.36778931,0.01190022
4760.29659668,0.01188165
4762.22540405,0.01184224
4764.15421143,0.01177156
4766.08301880,0.01176880
4768.01182617,0.01163478
4769.94063354,0.01177479
4771.86944092,0.01168185
4773.79824829,0.01167674
4775.72705566,0.01168586
4777.65586304,0.01157458
4779.58467041,0.01170213
4781.51347778,0.01152261
4783.44228516,0.01154076
4785.37109253,0.01147848
4787.29989990,0.01146534
4789.22870728,0.01155746
4791.15751465,0.01142269
4793.08632202,0.01145764
4795.01512939,0.01124983
4796.94393677,0.01125295
4798.87274414,0.01133676
4800.80155151,0.01128677
4802.73035889,0.01127662
4804.65916626,0.01114532
4806.58797363,0.01120126
4808.51678101,0.01121303
4810.44558838,0.01118780
4812.37439575,0.01111224
4814.30320312,0.01098909
4816.23201050,0.01093304
4818.16081787,0.01097037
4820.08962524,0.01102996
4822.01843262,0.01097702
4823.94723999,0.01096326
4825.87604736,0.01091427
4827.80485474,0.01088620
4829.73366211,0.01081985
4831.66246948,0.01080576
4833.59127686,0.01077879
4835.52008423,0.01068704
4837.44889160,0.01071969
4839.37769897,0.01072889
4841.30650635,0.01064846
4843.23531372,0.01053772
4845.16412109,0.01061548
4847.09292847,0.01050681
4849.02173584,0.01046834
4850.95054321,0.01056234
4852.87935059,0.01046169
4854.80815796,0.01052132
4856.73696533,0.01039423
4858.66577270,0.01041254
4860.59458008,0.01046024
4862.52338745,0.01035866
4864.45219482,0.01034044
4866.38100220,0.01026946
4868.30980957,0.01035830
4870.23861694,0.01027581
4872.16742432,0.01026648
4874.09623169,0.01023920
4876.02503906,0.01017851
4877.95384644,0.01018111
4879.88265381,0.01003081
4881.81146118,0.01008508
4883.74026855,0.01002448
4885.66907593,0.01002608
4887.59788330,0.01003795
4889.52669067,0.00999102
4891.45549805,0.00998189
4893.38430542,0.00982154
4895.31311279,0.00987108
4897.24192017,0.00991092
4899.17072754,0.00987881
4901.09953491,0.00983517
4903.02834228,0.00980248
4904.95714966,0.00973970
4906.88595703,0.00976833
4908.81476440,0.00986008
4910.74357178,0.00972145
4912.67237915,0.00969622
4914.60118652,0.00965363
4916.52999390,0.00966104
4918.45880127,0.00956822
4920.38760864,0.00945869
4922.31641602,0.00957476
4924.24522339,0.00951780
4926.17403076,0.00952826
4928.10283813,0.00949518
4930.03164551,0.00946122
4931.96045288,0.00940959
4933.88926025,0.00938502
4935.81806763,0.00943166
4937.74687500,0.00930337
4939.67568237,0.00929194
4941.60448975,0.00924396
4943.53329712,0.00926946
4945.46210449,0.00927676
4947.39091187,0.00919278
4949.31971924,0.00913262
4951.24852661,0.00908820
4953.17733398,0.00921413
4955.10614136,0.00913034
4957.03494873,0.00908224
4958.96375610,0.00909840
4960.89256348,0.00901436
4962.82137085,0.00900589
4964.75017822,0.00903825
4966.67898560,0.00903033
4968.60779297,0.00891482
4970.53660034,0.00892399
4972.46540771,0.00884441
4974.39421509,0.00882281
4976.32302246,0.00886952
4978.25182983,0.00878701
4980.18063721,0.00878672
4982.10944458,0.00872676
4984.03825195,0.00873674
4985.96705933,0.00871576
4987.89586670,0.00864403
4989.82467407,0.00865143
4991.75348145,0.00868313
4993.68228882,0.00867348
4995.61109619,0.00858955
4997.53990356,0.00857935
4999.46871094,0.00854834
5001.39751831,0.00852000
5003.32632568,0.00848600
5005.25513306,0.00852333
5007.18394043,0.00850784
5009.11274780,0.00844318
5011.04155518,0.00849288
5012.97036255,0.00842921
5014.89916992,0.00837494
5016.82797729,0.00827171
5018.75678467,0.00830297
5020.68559204,0.00838248
5022.61439941,0.00825715
5024.54320679,0.00823444
5026.47201416,0.00824659
5028.40082153,0.00822885
5030.32962891,0.00813886
5032.25843628,0.00815444
5034.18724365,0.00821507
5036.11605103,0.00818893
5038.04485840,0.00810208
5039.97366577,0.00801637
5041.90247314,0.00810369
5043.83128052,0.00802365
5045.76008789,0.00797839
5047.68889526,0.00798506
5049.61770264,0.00797612
5051.54651001,0.00801512
5053.47531738,0.00786452
5055.40412476,0.00791603
5057.33293213,0.00792393
5059.26173950,0.00783017
5061.19054687,0.00788217
5063.11935425,0.00783100
5065.04816162,0.00779759
5066.97696899,0.00774741
5068.90577637,0.00770812
5070.83458374,0.00770516
5072.76339111,0.00768251
5074.69219849,0.00769655
5076.62100586,0.00765750
5078.54981323,0.00765223
5080.47862061,0.00766221
5082.40742798,0.00759387
5084.33623535,0.00762095
5086.26504272,0.00760158
5088.19385010,0.00755216
5090.12265747,0.00759607
5092.05146484,0.00752619
5093.98027222,0.00755369
5095.90907959,0.00750829
5097.83788696,0.00740516
5099.76669434,0.00747007
5101.69550171,0.00742509
5103.62430908,0.00746547
5105.55311645,0.00739594
5107.48192383,0.00729012
5109.41073120,0.00739391
5111.33953857,0.00734460
5113.26834595,0.00728300
5115.19715332,0.00730494
5117.12596069,0.00731751
5119.05476807,0.00728874
5120.98357544,0.00728524
5122.91238281,0.00723057
5124.84119019,0.00710914
5126.76999756,0.00717630
5128.69880493,0.00718515
5130.62761230,0.00707578
5132.55641968,0.00707101
5134.48522705,0.00705655
5136.41403442,0.00704248
5138.34284180,0.00709033
5140.27164917,0.00702867
5142.20045654,0.00697402
5144.12926392,0.00704561
5146.05807129,0.00698268
5147.98687866,0.00688833
5149.91568603,0.00692213
5151.84449341,0.00691146
5153.77330078,0.00688449
5155.70210815,0.00689220
5157.63091553,0.00683981
5159.55972290,0.00682922
5161.48853027,0.00682093
5163.41733765,0.00676291
5165.34614502,0.00677298
5167.27495239,0.00678660
5169.20375977,0.00674473
5171.13256714,0.00669244
5173.06137451,0.00676111
5174.99018188,0.00671420
5176.91898926,0.00664716
5178.84779663,0.00668271
5180.77660400,0.00654343
5182.70541138,0.00658604
5184.63421875,0.00659676
5186.56302612,0.00653674
5188.49183350,0.00658647
5190.42064087,0.00651590
5192.34944824,0.00658623
5194.27825562,0.00658832
5196.20706299,0.00649255
5198.13587036,0.00646809
5200.06467773,0.00644706
5201.99348511,0.00642996
5203.92229248,0.00641018
5205.85109985,0.00631731
5207.77990723,0.00618150
5209.70871460,0.00635126
5211.63752197,0.00642315
5213.56632935,0.00632760
5215.49513672,0.00635048
5217.42394409,0.00631953
5219.35275146,0.00624217
5221.28155884,0.00623262
5223.21036621,0.00634188
5225.13917358,0.00615857
5227.06798096,0.00609626
5228.99678833,0.00627393
5230.92559570,0.00615907
5232.85440308,0.00610948
5234.78321045,0.00615337
5236.71201782,0.00613409
5238.64082520,0.00610355
5240.56963257,0.00619092
5242.49843994,0.00609255
5244.42724731,0.00595612
5246.35605469,0.00603630
5248.28486206,0.00588492
5250.21366943,0.00593706
5252.14247681,0.00603628
5254.07128418,0.00591346
5256.00009155,0.00590082
5257.92889893,0.00592084
5259.85770630,0.00595861
5261.78651367,0.00586821
5263.71532104,0.00576517
5265.64412842,0.00576676
5267.57293579,0.00583798
5269.50174316,0.00585463
5271.43055054,0.00582185
5273.35935791,0.00583625
5275.28816528,0.00585146
5277.21697266,0.00585690
5279.14578003,0.00573806
5281.07458740,0.00579700
5283.00339478,0.00579636
5284.93220215,0.00569339
5286.86100952,0.00582024
5288.78981689,0.00572672
5290.71862427,0.00561657
5292.64743164,0.00565584
5294.57623901,0.00570581
5296.50504639,0.00570407
5298.43385376,0.00564900
5300.36266113,0.00569347
5302.29146851,0.00561413
5304.22027588,0.00559755
5306.14908325,0.00557147
5308.07789062,0.00546620
5310.00669800,0.00557427
5311.93550537,0.00551902
5313.86431274,0.00546877
5315.79312012,0.00552843
5317.72192749,0.00545953
5319.65073486,0.00552092
5321.57954224,0.00545464
5323.50834961,0.00539319
5325.43715698,0.00545497
5327.36596436,0.00526531
5329.29477173,0.00528131
5331.22357910,0.00541161
5333.15238647,0.00528974
5335.08119385,0.00530658
5337.01000122,0.00530156
5338.93880859,0.00502944
5340.86761597,0.00515892
5342.79642334,0.00533168
5344.72523071,0.00498610
5346.65403809,0.00511611
5348.58284546,0.00529144
5350.51165283,0.00519190
5352.44046020,0.00522080
5354.36926758,0.00497767
5356.29807495,0.00508615
5358.22688232,0.00522410
5360.15568970,0.00511371
5362.08449707,0.00519633
5364.01330444,0.00510106
5365.94211182,0.00506714
5367.87091919,0.00517400
5369.79972656,0.00521697
5371.72853394,0.00508550
5373.65734131,0.00502761
5375.58614868,0.00500754
5377.51495605,0.00482306
5379.44376343,0.00495002
5381.37257080,0.00502236
5383.30137817,0.00493642
5385.23018555,0.00492268
5387.15899292,0.00483034
5389.08780029,0.00490029
5391.01660767,0.00499231
5392.94541504,0.00489264
5394.87422241,0.00478993
5396.80302978,0.00481112
5398.73183716,0.00486457
5400.66064453,0.00485318
5402.58945190,0.00478766
5404.51825928,0.00478938
5406.44706665,0.00481769
5408.37587402,0.00477044
5410.30468140,0.00475230
5412.23348877,0.00470289
5414.16229614,0.00462371
5416.09110352,0.00465773
5418.01991089,0.00476380
5419.94871826,0.00476243
5421.87752563,0.00475393
5423.80633301,0.00474369
5425.73514038,0.00465167
5427.66394775,0.00459288
5429.59275513,0.00447197
5431.52156250,0.00459196
5433.45036987,0.00471867
5435.37917725,0.00448814
5437.30798462,0.00457027
5439.23679199,0.00469863
5441.16559936,0.00447981
5443.09440674,0.00449929
5445.02321411,0.00456344
5446.95202148,0.00443285
5448.88082886,0.00450617
5450.80963623,0.00449601
5452.73844360,0.00440441
5454.66725098,0.00445586
5456.59605835,0.00444751
5458.52486572,0.00447243
5460.45367310,0.00438981
5462.38248047,0.00435801
5464.31128784,0.00442012
5466.24009521,0.00438706
5468.16890259,0.00440475
5470.09770996,0.00437443
5472.02651733,0.00440195
5473.95532471,0.00435634
5475.88413208,0.00422261
5477.81293945,0.00425127
5479.74174683,0.00429502
5481.67055420,0.00430446
5483.59936157,0.00428326
5485.52816895,0.00425121
5487.45697632,0.00424780
5489.38578369,0.00424431
5491.31459106,0.00420968
5493.24339844,0.00420752
5495.17220581,0.00419710
5497.10101318,0.00423056
5499.02982056,0.00426563
5500.95862793,0.00414889
5502.88743530,0.00414304
5504.81624268,0.00418342
5506.74505005,0.00415126
5508.67385742,0.00411461
5510.60266479,0.00412633
5512.53147217,0.00413009
5514.46027954,0.00405129
5516.38908691,0.00405426
5518.31789429,0.00410106
5520.24670166,0.00420768
5522.17550903,0.00408756
5524.10431641,0.00393807
5526.03312378,0.00409965
5527.96193115,0.00407228
5529.89073853,0.00400167
5531.81954590,0.00400290
5533.74835327,0.00396867
5535.67716064,0.00399815
5537.60596802,0.00400655
5539.53477539,0.00396166
5541.46358276,0.00393771
5543.39239014,0.00396534
5545.32119751,0.00394931
5547.25000488,0.00397748
5549.17881226,0.00394658
5551.10761963,0.00385802
5553.03642700,0.00387099
5554.96523437,0.00389994
5556.89404175,0.00389599
5558.82284912,0.00389445
5560.75165649,0.00390893
5562.68046387,0.00381914
5564.60927124,0.00378114
5566.53807861,0.00386731
5568.46688599,0.00391350
5570.39569336,0.00381463
5572.32450073,0.00378844
5574.25330811,0.00382706
5576.18211548,0.00369664
5578.11092285,0.00374995
5580.03973022,0.00376404
5581.96853760,0.00370167
5583.89734497,0.00371471
5585.82615234,0.00372212
5587.75495972,0.00378459
5589.68376709,0.00368955
5591.61257446,0.00372603
5593.54138184,0.00372033
5595.47018921,0.00369862
5597.39899658,0.00375018
5599.32780395,0.00366831
5601.25661133,0.00372394
5603.18541870,0.00362114
5605.11422607,0.00357704
5607.04303345,0.00364018
5608.97184082,0.00361001
5610.90064819,0.00360791
5612.82945557,0.00359310
5614.75826294,0.00360025
5616.68707031,0.00350830
5618.61587769,0.00355985
5620.54468506,0.00354248
5622.47349243,0.00349702
5624.40229980,0.00357905
5626.33110718,0.00350746
5628.25991455,0.00350110
5630.18872192,0.00350585
5632.11752930,0.00350941
5634.04633667,0.00344994
5635.97514404,0.00342588
5637.90395142,0.00344713
5639.83275879,0.00344345
5641.76156616,0.00351302
5643.69037353,0.00340360
5645.61918091,0.00336422
5647.54798828,0.00341279
5649.47679565,0.00342157
5651.40560303,0.00341056
5653.33441040,0.00339397
5655.26321777,0.00340670
5657.19202515,0.00333860
5659.12083252,0.00337926
5661.04963989,0.00337635
5662.97844727,0.00333560
5664.90725464,0.00331634
5666.83606201,0.00326602
5668.76486938,0.00331447
5670.69367676,0.00328801
5672.62248413,0.00322159
5674.55129150,0.00324512
5676.48009888,0.00325138
5678.40890625,0.00322731
5680.33771362,0.00329850
5682.26652100,0.00323585
5684.19532837,0.00319463
5686.12413574,0.00323276
5688.05294311,0.00315804
5689.98175049,0.00326501
5691.91055786,0.00322616
5693.83936523,0.00315538
5695.76817261,0.00314161
5697.69697998,0.00310087
5699.62578735,0.00325392
5701.55459473,0.00315852
5703.48340210,0.00305156
5705.41220947,0.00311852
5707.34101685,0.00307869
5709.26982422,0.00304859
5711.19863159,0.00311083
5713.12743896,0.00310366
5715.05624634,0.00303011
5716.98505371,0.00303939
5718.91386108,0.00305125
5720.84266846,0.00305569
5722.77147583,0.00299544
5724.70028320,0.00311248
5726.62909058,0.00313428
5728.55789795,0.00296596
5730.48670532,0.00301995
5732.41551270,0.00299550
5734.34432007,0.00296088
5736.27312744,0.00288198
5738.20193481,0.00293812
5740.13074219,0.00300276
5742.05954956,0.00289837
5743.98835693,0.00298773
5745.91716431,0.00291379
5747.84597168,0.00291717
5749.77477905,0.00295816
5751.70358643,0.00291054
5753.63239380,0.00290420
5755.56120117,0.00286165
5757.49000854,0.00292218
5759.41881592,0.00282517
5761.34762329,0.00281575
5763.27643066,0.00279099
5765.20523804,0.00278723
5767.13404541,0.00290585
5769.06285278,0.00279879
5770.99166016,0.00279123
5772.92046753,0.00277275
5774.84927490,0.00277745
5776.77808228,0.00277589
5778.70688965,0.00271842
5780.63569702,0.00274955
5782.56450439,0.00270891
5784.49331177,0.00275369
5786.42211914,0.00270349
5788.35092651,0.00266712
5790.27973389,0.00275650
5792.20854126,0.00269552
5794.13734863,0.00265387
5796.06615601,0.00269636
5797.99496338,0.00270995
5799.92377075,0.00269720
5801.85257812,0.00270097
5803.78138550,0.00270209
5805.71019287,0.00270635
5807.63900024,0.00266598
5809.56780762,0.00268730
5811.49661499,0.00272540
5813.42542236,0.00262010
5815.35422974,0.00261925
5817.28303711,0.00265993
5819.21184448,0.00259615
5821.14065186,0.00257219
5823.06945923,0.00261972
5824.99826660,0.00258563
5826.92707397,0.00254277
5828.85588135,0.00257736
5830.78468872,0.00254181
5832.71349609,0.00258067
5834.64230347,0.00257003
5836.57111084,0.00245676
5838.49991821,0.00249631
5840.42872559,0.00252411
5842.35753296,0.00252765
5844.28634033,0.00252845
5846.21514770,0.00246094
5848.14395508,0.00251317
5850.07276245,0.00255479
5852.00156982,0.00248203
5853.93037720,0.00244662
5855.85918457,0.00238518
5857.78799194,0.00237140
5859.71679932,0.00236434
5861.64560669,0.00236582
5863.57441406,0.00243501
5865.50322144,0.00242080
5867.43202881,0.00243682
5869.36083618,0.00241141
5871.28964355,0.00237348
5873.21845093,0.00239265
5875.14725830,0.00237581
5877.07606567,0.00238074
5879.00487305,0.00235746
5880.93368042,0.00234507
5882.86248779,0.00233039
5884.79129517,0.00237083
5886.72010254,0.00237359
5888.64890991,0.00233689
5890.57771728,0.00237246
5892.50652466,0.00232309
5894.43533203,0.00230301
5896.36413940,0.00226761
5898.29294678,0.00225438
5900.22175415,0.00224201
5902.15056152,0.00221420
5904.07936890,0.00232384
5906.00817627,0.00233335
5907.93698364,0.00227892
5909.86579102,0.00225594
5911.79459839,0.00228481
5913.72340576,0.00225537
5915.65221313,0.00215862
5917.58102051,0.00218512
5919.50982788,0.00222969
5921.43863525,0.00223782
5923.36744263,0.00215863
5925.29625000,0.00214849
5927.22505737,0.00222545
5929.15386475,0.00222604
5931.08267212,0.00216093
5933.01147949,0.00212678
5934.94028686,0.00213455
5936.86909424,0.00206137
5938.79790161,0.00210828
5940.72670898,0.00213701
5942.65551636,0.00213930
5944.58432373,0.00221817
5946.51313110,0.00214804
5948.44193848,0.00213913
5950.37074585,0.00213495
5952.29955322,0.00207550
5954.22836060,0.00207759
5956.15716797,0.00207203
5958.08597534,0.00210374
5960.01478271,0.00209502
5961.94359009,0.00202448
5963.87239746,0.00211460
5965.80120483,0.00217171
5967.73001221,0.00205920
5969.65881958,0.00209278
5971.58762695,0.00200801
5973.51643433,0.00196741
5975.44524170,0.00212512
5977.37404907,0.00207353
5979.30285645,0.00205909
5981.23166382,0.00205689
5983.16047119,0.00204391
5985.08927856,0.00204548
5987.01808594,0.00199811
5988.94689331,0.00200369
5990.87570068,0.00198280
5992.80450806,0.00201193
5994.73331543,0.00200595
5996.66212280,0.00198973
5998.59093018,0.00200741
6000.51973755,0.00199441
