399.26312622,0.00059094
401.19193359,0.00103430
403.12074097,0.00064946
405.04954834,0.00061488
406.97835571,0.00060416
408.90716309,0.00045863
410.83597046,0.00086172
412.76477783,0.00069264
414.69358521,0.00041753
416.62239258,0.00055514
418.55119995,0.00056233
420.48000732,0.00050006
422.40881470,0.00069812
424.33762207,0.00060927
426.26642944,0.00046789
428.19523682,0.00077804
430.12404419,0.00086158
432.05285156,0.00060999
433.98165894,0.00048945
435.91046631,0.00087951
437.83927368,0.00065798
439.76808105,0.00031632
441.69688843,0.00043611
443.62569580,0.00040404
445.55450317,0.00101387
447.48331055,0.00086435
449.41211792,0.00035740
451.34092529,0.00050067
453.26973267,0.00049714
455.19854004,0.00045546
457.12734741,0.00019094
459.05615479,0.00041201
460.98496216,0.00056801
462.91376953,0.00049807
464.84257690,0.00049428
466.77138428,0.00049548
468.70019165,0.00040073
470.62899902,-0.00008008
472.55780640,0.00038736
474.48661377,0.00052380
476.41542114,0.00022348
478.34422852,0.00060178
480.27303589,0.00052772
482.20184326,0.00010511
484.13065063,0.00018466
486.05945801,0.00067387
487.98826538,0.00050586
489.91707275,0.00037528
491.84588013,0.00051873
493.77468750,0.00034744
495.70349487,0.00035182
497.63230225,0.00022730
499.56110962,0.00009923
501.48991699,0.00031214
503.41872437,0.00044516
505.34753174,0.00031671
507.27633911,0.00031468
509.20514648,0.00033177
511.13395386,0.00019712
513.06276123,0.00005458
514.99156860,0.00013626
516.92037598,0.00024288
518.84918335,-0.00005817
520.77799072,0.00021235
522.70679810,0.00059972
524.63560547,0.00026514
526.56441284,0.00019809
528.49322021,0.00026605
530.42202759,0.00021868
532.35083496,0.00025017
534.27964233,0.00048864
536.20844971,0.00047413
538.13725708,-0.00000177
540.06606445,0.00015683
541.99487183,0.00046391
543.92367920,0.00016427
545.85248657,0.00005675
547.78129395,0.00050406
549.71010132,0.00041699
551.63890869,0.00017769
553.56771606,0.00064171
555.49652344,0.00023476
557.42533081,-0.00007714
559.35413818,0.00049274
561.28294556,0.00048239
563.21175293,0.00021173
565.14056030,0.00011825
567.06936768,0.00040300
568.99817505,0.00043720
570.92698242,0.00043226
572.85578979,0.00048503
574.78459717,0.00019378
576.71340454,0.00037504
578.64221191,0.00037908
580.57101929,0.00044793
582.49982666,0.00039879
584.42863403,0.00011425
586.35744141,0.00008799
588.28624878,-0.00012365
590.21505615,0.00020888
592.14386353,0.00020479
594.07267090,0.00036151
596.00147827,0.00053469
597.93028564,-0.00000387
599.85909302,0.00025966
601.78790039,0.00025073
603.71670776,0.00021905
605.64551514,0.00058640
607.57432251,0.00020673
609.50312988,-0.00003673
611.43193726,0.00031896
613.36074463,0.00028590
615.28955200,0.00015303
617.21835938,0.00042127
619.14716675,0.00030520
621.07597412,0.00025070
623.00478149,0.00005969
624.93358887,-0.00016744
626.86239624,0.00034744
628.79120361,0.00038362
630.72001099,0.00011092
632.64881836,0.00060313
634.57762573,0.00063711
636.50643311,0.00049543
638.43524048,0.00061490
640.36404785,0.00049549
642.29285522,0.00079161
644.22166260,0.00070897
646.15046997,0.00063092
648.07927734,0.00087786
650.00808472,0.00071887
651.93689209,0.00091248
653.86569946,0.00114237
655.79450684,0.00099385
657.72331421,0.00074237
659.65212158,0.00102112
661.58092896,0.00122788
663.50973633,0.00109297
665.43854370,0.00150218
667.36735107,0.00133554
669.29615845,0.00137527
671.22496582,0.00181211
673.15377319,0.00150377
675.08258057,0.00137971
677.01138794,0.00143259
678.94019531,0.00171056
680.86900269,0.00163390
682.79781006,0.00137249
684.72661743,0.00168521
686.65542480,0.00157230
688.58423218,0.00160068
690.51303955,0.00185611
692.44184692,0.00168630
694.37065430,0.00185646
696.29946167,0.00222607
698.22826904,0.00219918
700.15707642,0.00235654
702.08588379,0.00248456
704.01469116,0.00209255
705.94349854,0.00195227
707.87230591,0.00169764
709.80111328,0.00134857
711.72992065,0.00124787
713.65872803,0.00074401
715.58753540,0.00019597
717.51634277,-0.00006265
719.44515015,0.00020304
721.37395752,0.00043777
723.30276489,0.00028093
725.23157227,0.00034087
727.16037964,0.00013143
729.08918701,0.00012292
731.01799438,0.00031948
732.94680176,0.00004451
734.87560913,0.00014655
736.80441650,0.00018271
738.73322388,0.00032816
740.66203125,0.00037407
742.59083862,-0.00000109
744.51964600,0.00042272
746.44845337,0.00026481
748.37726074,0.00006546
750.30606812,0.00024170
752.23487549,0.00015038
754.16368286,0.00047525
756.09249023,0.00013915
758.02129761,0.00021029
759.95010498,0.00039905
761.87891235,0.00001862
763.80771973,0.00030240
765.73652710,0.00028701
767.66533447,0.00015974
769.59414185,0.00042472
771.52294922,0.00048279
773.45175659,0.00033208
775.38056396,0.00036526
777.30937134,0.00045329
779.23817871,0.00045880
781.16698608,0.00049453
783.09579346,0.00039745
785.02460083,0.00036986
786.95340820,0.00006987
788.88221558,0.00004149
790.81102295,0.00016343
792.73983032,0.00016828
794.66863770,0.00054221
796.59744507,0.00045376
798.52625244,0.00064587
800.45505981,0.00053791
802.38386719,0.00013384
804.31267456,0.00035453
806.24148193,0.00025193
808.17028931,0.00035571
810.09909668,0.00012980
812.02790405,0.00027098
813.95671143,0.00063985
815.88551880,0.00033857
817.81432617,0.00048308
819.74313354,0.00030288
821.67194092,0.00046313
823.60074829,0.00049420
825.52955566,0.00027376
827.45836304,0.00038601
829.38717041,0.00015308
831.31597778,0.00050772
833.24478516,0.00052482
835.17359253,0.00068427
837.10239990,0.00093157
839.03120728,0.00076375
840.96001465,0.00091294
842.88882202,0.00047346
844.81762939,0.00070510
846.74643677,0.00077445
848.67524414,0.00029284
850.60405151,0.00057580
852.53285889,0.00048254
854.46166626,0.00047318
856.39047363,0.00050082
858.31928101,0.00033389
860.24808838,0.00043984
862.17689575,0.00041117
864.10570313,0.00030376
866.03451050,0.00029288
867.96331787,0.00023397
869.89212524,0.00034653
871.82093262,0.00036064
873.74973999,0.00000298
875.67854736,0.00034323
877.60735474,0.00063685
879.53616211,0.00037912
881.46496948,0.00045399
883.39377686,0.00038682
885.32258423,0.00026556
887.25139160,0.00050749
889.18019897,0.00072282
891.10900635,0.00033643
893.03781372,0.00024699
894.96662109,0.00067937
896.89542847,0.00053553
898.82423584,0.00057843
900.75304321,0.00050642
902.68185059,0.00013667
904.61065796,0.00052589
906.53946533,0.00069849
908.46827271,0.00054616
910.39708008,0.00056980
912.32588745,0.00052106
914.25469482,0.00055484
916.18350220,0.00046282
918.11230957,0.00048834
920.04111694,0.00070928
921.96992432,0.00083087
923.89873169,0.00070003
925.82753906,0.00058106
927.75634644,0.00081073
929.68515381,0.00067308
931.61396118,0.00058409
933.54276855,0.00073046
935.47157593,0.00066292
937.40038330,0.00089366
939.32919067,0.00094313
941.25799805,0.00101523
943.18680542,0.00115670
945.11561279,0.00106819
947.04442017,0.00128080
948.97322754,0.00122008
950.90203491,0.00098441
952.83084229,0.00093809
954.75964966,0.00110048
956.68845703,0.00119233
958.61726440,0.00100486
960.54607178,0.00114177
962.47487915,0.00098687
964.40368652,0.00102428
966.33249390,0.00139951
968.26130127,0.00123342
970.19010864,0.00122618
972.11891602,0.00125157
974.04772339,0.00130762
975.97653076,0.00136362
977.90533813,0.00141749
979.83414551,0.00175734
981.76295288,0.00172624
983.69176025,0.00182598
985.62056763,0.00210253
987.54937500,0.00205888
989.47818237,0.00219863
991.40698975,0.00238373
993.33579712,0.00251536
995.26460449,0.00285801
997.19341187,0.00319235
999.12221924,0.00331769
1001.05102661,0.00342757
1002.97983398,0.00372966
1004.90864136,0.00410816
1006.83744873,0.00436887
1008.76625610,0.00452886
1010.69506348,0.00479452
1012.62387085,0.00522179
1014.55267822,0.00531951
1016.48148560,0.00538729
1018.41029297,0.00577072
1020.33910034,0.00591180
1022.26790771,0.00626209
1024.19671509,0.00661773
1026.12552246,0.00679756
1028.05432983,0.00703465
1029.98313721,0.00707511
1031.91194458,0.00746790
1033.84075195,0.00757113
1035.76955933,0.00768118
1037.69836670,0.00801354
1039.62717407,0.00772714
1041.55598145,0.00772584
1043.48478882,0.00786604
1045.41359619,0.00782784
1047.34240356,0.00753258
1049.27121094,0.00729187
1051.20001831,0.00736060
1053.12882568,0.00717232
1055.05763306,0.00704352
1056.98644043,0.00677357
1058.91524780,0.00684772
1060.84405518,0.00692162
1062.77286255,0.00654736
1064.70166992,0.00643182
1066.63047729,0.00615349
1068.55928467,0.00598214
1070.48809204,0.00554564
1072.41689941,0.00514417
1074.34570679,0.00517559
1076.27451416,0.00485184
1078.20332153,0.00457127
1080.13212891,0.00435629
1082.06093628,0.00424849
1083.98974365,0.00413392
1085.91855103,0.00404883
1087.84735840,0.00374601
1089.77616577,0.00340724
1091.70497314,0.00358953
1093.63378052,0.00327097
1095.56258789,0.00327630
1097.49139526,0.00345985
1099.42020264,0.00307149
1101.34901001,0.00302222
1103.27781738,0.00289781
1105.20662476,0.00296699
1107.13543213,0.00309516
1109.06423950,0.00291635
1110.99304687,0.00284189
1112.92185425,0.00289796
1114.85066162,0.00302107
1116.77946899,0.00291449
1118.70827637,0.00297587
1120.63708374,0.00303307
1122.56589111,0.00289089
1124.49469849,0.00289546
1126.42350586,0.00282735
1128.35231323,0.00285247
1130.28112061,0.00293673
1132.20992798,0.00300180
1134.13873535,0.00324703
1136.06754272,0.00337155
1137.99635010,0.00342195
1139.92515747,0.00372664
1141.85396484,0.00389003
1143.78277222,0.00403317
1145.71157959,0.00434007
1147.64038696,0.00452384
1149.56919434,0.00472401
1151.49800171,0.00489607
1153.42680908,0.00518959
1155.35561646,0.00532396
1157.28442383,0.00538554
1159.21323120,0.00583641
1161.14203857,0.00608323
1163.07084595,0.00612455
1164.99965332,0.00621007
1166.92846069,0.00639892
1168.85726807,0.00672640
1170.78607544,0.00712786
1172.71488281,0.00725084
1174.64369019,0.00734261
1176.57249756,0.00784940
1178.50130493,0.00796788
1180.43011230,0.00817664
1182.35891968,0.00864719
1184.28772705,0.00901089
1186.21653442,0.00949196
1188.14534180,0.00976743
1190.07414917,0.01024172
1192.00295654,0.01063477
1193.93176392,0.01102666
1195.86057129,0.01166796
1197.78937866,0.01220126
1199.71818604,0.01280917
1201.64699341,0.01325100
1203.57580078,0.01376802
1205.50460815,0.01431807
1207.43341553,0.01476367
1209.36222290,0.01505272
1211.29103027,0.01547238
1213.21983765,0.01609291
1215.14864502,0.01627970
1217.07745239,0.01677481
1219.00625977,0.01711860
1220.93506714,0.01723853
1222.86387451,0.01757195
1224.79268188,0.01754607
1226.72148926,0.01775568
1228.65029663,0.01780233
1230.57910400,0.01777357
1232.50791138,0.01789230
1234.43671875,0.01785625
1236.36552612,0.01800669
1238.29433350,0.01797446
1240.22314087,0.01793853
1242.15194824,0.01781306
1244.08075562,0.01774354
1246.00956299,0.01784106
1247.93837036,0.01764015
1249.86717773,0.01756135
1251.79598511,0.01746412
1253.72479248,0.01740677
1255.65359985,0.01733273
1257.58240723,0.01686868
1259.51121460,0.01662851
1261.44002197,0.01657443
1263.36882935,0.01622615
1265.29763672,0.01595823
1267.22644409,0.01599017
1269.15525146,0.01583339
1271.08405884,0.01545188
1273.01286621,0.01516253
1274.94167358,0.01492022
1276.87048096,0.01462363
1278.79928833,0.01433905
1280.72809570,0.01411385
1282.65690308,0.01392477
1284.58571045,0.01369052
1286.51451782,0.01331431
1288.44332520,0.01314729
1290.37213257,0.01309366
1292.30093994,0.01296828
1294.22974731,0.01308388
1296.15855469,0.01303132
1298.08736206,0.01279853
1300.01616943,0.01282617
1301.94497681,0.01297720
1303.87378418,0.01302692
1305.80259155,0.01300221
1307.73139893,0.01323345
1309.66020630,0.01355202
1311.58901367,0.01360888
1313.51782104,0.01381969
1315.44662842,0.01428802
1317.37543579,0.01452810
1319.30424316,0.01492929
1321.23305054,0.01555728
1323.16185791,0.01582907
1325.09066528,0.01622026
1327.01947266,0.01675668
1328.94828003,0.01708292
1330.87708740,0.01749449
1332.80589478,0.01794156
1334.73470215,0.01825758
1336.66350952,0.01837707
1338.59231689,0.01812799
1340.52112427,0.01820937
1342.44993164,0.01917848
1344.37873901,0.01948137
1346.30754639,0.01902515
1348.23635376,0.01916969
1350.16516113,0.01928989
1352.09396851,0.01909263
1354.02277588,0.01895364
1355.95158325,0.01878777
1357.88039062,0.01858353
1359.80919800,0.01832461
1361.73800537,0.01752966
1363.66681274,0.01727276
1365.59562012,0.01805015
1367.52442749,0.01767601
1369.45323486,0.01749148
1371.38204224,0.01760848
1373.31084961,0.01667732
1375.23965698,0.01696312
1377.16846436,0.01756159
1379.09727173,0.01728829
1381.02607910,0.01718869
1382.95488647,0.01753884
1384.88369385,0.01737147
1386.81250122,0.01659475
1388.74130859,0.01707354
1390.67011597,0.01797992
1392.59892334,0.01753588
1394.52773071,0.01676208
1396.45653809,0.01740707
1398.38534546,0.01732510
1400.31415283,0.01742836
1402.24296021,0.01876393
1404.17176758,0.01762997
1406.10057495,0.01765348
1408.02938232,0.01837394
1409.95818970,0.01785061
1411.88699707,0.01801419
1413.81580444,0.01742784
1415.74461182,0.01782550
1417.67341919,0.01604474
1419.60222656,0.01461824
1421.53103394,0.01676724
1423.45984131,0.01613920
1425.38864868,0.01557788
1427.31745605,0.01585715
1429.24626343,0.01468034
1431.17507080,0.01426558
1433.10387817,0.01468144
1435.03268555,0.01338463
1436.96149292,0.01154032
1438.89030029,0.01299041
1440.81910767,0.01324039
1442.74791504,0.01251588
1444.67672241,0.01314717
1446.60552979,0.01207052
1448.53433716,0.01204564
1450.46314453,0.01260379
1452.39195190,0.01265146
1454.32075928,0.01293080
1456.24956665,0.01111855
1458.17837402,0.01156464
1460.10718140,0.01499458
1462.03598877,0.01561499
1463.96479614,0.01554088
1465.89360352,0.01636509
1467.82241089,0.01844654
1469.75121826,0.01970155
1471.68002563,0.01751623
1473.60883301,0.01855474
1475.53764038,0.02095351
1477.46644775,0.02250844
1479.39525513,0.02464708
1481.32406250,0.02485636
1483.25286987,0.02654963
1485.18167725,0.02717192
1487.11048462,0.02683318
1489.03929199,0.02677593
1490.96809937,0.02684042
1492.89690674,0.03105166
1494.82571411,0.03007249
1496.75452148,0.02727958
1498.68332886,0.03077885
1500.61213623,0.03170985
1502.54094360,0.03401446
1504.46975098,0.03193653
1506.39855835,0.02357865
1508.32736572,0.02870918
1510.25617310,0.03340903
1512.18498047,0.03235838
1514.11378784,0.03494824
1516.04259521,0.03168142
1517.97140259,0.03300460
1519.90020996,0.03188205
1521.82901733,0.02790462
1523.75782471,0.03369625
1525.68663208,0.03320044
1527.61543945,0.03330012
1529.54424683,0.03641790
1531.47305420,0.03497851
1533.40186157,0.03214854
1535.33066895,0.03428137
1537.25947632,0.03629475
1539.18828369,0.02613312
1541.11709106,0.02781320
1543.04589844,0.03266075
1544.97470581,0.03162724
1546.90351318,0.03728250
1548.83232056,0.03449876
1550.76112793,0.03570592
1552.68993530,0.03523851
1554.61874268,0.03238545
1556.54755005,0.03431840
1558.47635742,0.02450758
1560.40516479,0.02713490
1562.33397217,0.03730813
1564.26277954,0.03536707
1566.19158691,0.03661288
1568.12039429,0.03583292
1570.04920166,0.03216057
1571.97800903,0.03700733
1573.90681641,0.03676228
1575.83562378,0.02959790
1577.76443115,0.03389050
1579.69323853,0.03758906
1581.62204590,0.03596117
1583.55085327,0.03695370
1585.47966064,0.03630433
1587.40846802,0.03669499
1589.33727539,0.03631839
1591.26608276,0.03628434
1593.19489014,0.03643978
1595.12369751,0.03606980
1597.05250488,0.03647266
1598.98131226,0.03633779
1600.91011963,0.03653605
1602.83892700,0.03570226
1604.76773437,0.03629588
1606.69654175,0.03579042
1608.62534912,0.03579214
1610.55415649,0.03572465
1612.48296387,0.03601678
1614.41177124,0.03635957
1616.34057861,0.02979320
1618.26938599,0.03265136
1620.19819336,0.03763828
1622.12700073,0.03327711
1624.05580811,0.03360308
1625.98461548,0.03525715
1627.91342285,0.03498534
1629.84223022,0.03477448
1631.77103760,0.03703815
1633.69984497,0.03391893
1635.62865234,0.02835912
1637.55745972,0.03313805
1639.48626709,0.03605610
1641.41507446,0.03523631
1643.34388184,0.03616695
1645.27268921,0.03241321
1647.20149658,0.02892727
1649.13030396,0.03586343
1651.05911133,0.03337023
1652.98791870,0.02218243
1654.91672607,0.03017089
1656.84553345,0.03693788
1658.77434082,0.03551430
1660.70314819,0.03624912
1662.63195557,0.03317308
1664.56076294,0.03524949
1666.48957031,0.03708800
1668.41837769,0.03260119
1670.34718506,0.03209666
1672.27599243,0.03591123
1674.20479980,0.03321671
1676.13360718,0.03220641
1678.06241455,0.03674602
1679.99122192,0.03530414
1681.92002930,0.03487397
1683.84883667,0.02841264
1685.77764404,0.02850067
1687.70645142,0.03835997
1689.63525879,0.03344811
1691.56406616,0.03704336
1693.49287354,0.03704787
1695.42168091,0.02747199
1697.35048828,0.03386437
1699.27929565,0.02973758
1701.20810303,0.02734664
1703.13691040,0.03637319
1705.06571777,0.03327810
1706.99452515,0.03376894
1708.92333252,0.03637432
1710.85213989,0.03498862
1712.78094727,0.03562027
1714.70975464,0.03303529
1716.63856201,0.02975498
1718.56736938,0.02944702
1720.49617676,0.03474010
1722.42498413,0.03582317
1724.35379150,0.03343645
1726.28259888,0.03630923
1728.21140625,0.03351258
1730.14021362,0.03383490
1732.06902100,0.03269698
1733.99782837,0.02532660
1735.92663574,0.03148045
1737.85544312,0.03426655
1739.78425049,0.03080040
1741.71305786,0.03341462
1743.64186523,0.03373373
1745.57067261,0.03394790
1747.49947998,0.03407833
1749.42828735,0.03266282
1751.35709473,0.03132617
1753.28590210,0.03467593
1755.21470947,0.03595753
1757.14351685,0.03290802
1759.07232422,0.03631222
1761.00113159,0.03386445
1762.92993896,0.03299094
1764.85874634,0.03757055
1766.78755371,0.03386697
1768.71636108,0.03430272
1770.64516846,0.03380752
1772.57397583,0.03067470
1774.50278320,0.03409158
1776.43159058,0.03593427
1778.36039795,0.03554977
1780.28920532,0.03497829
1782.21801270,0.03521576
1784.14682007,0.03516141
1786.07562744,0.03459135
1788.00443481,0.03616805
1789.93324219,0.03519978
1791.86204956,0.03206080
1793.79085693,0.03342152
1795.71966431,0.03582793
1797.64847168,0.03528008
1799.57727905,0.03474302
1801.50608643,0.03409065
1803.43489380,0.03511432
1805.36370117,0.03600489
1807.29250854,0.03539825
1809.22131592,0.03531729
1811.15012329,0.03462051
1813.07893066,0.03578462
1815.00773804,0.03575521
1816.93654541,0.03538115
1818.86535278,0.03576253
1820.79416016,0.03555548
1822.72296753,0.03584281
1824.65177490,0.03367374
1826.58058228,0.03497938
1828.50938965,0.03487112
1830.43819702,0.03310939
1832.36700439,0.03584755
1834.29581177,0.03522603
1836.22461914,0.03532961
1838.15342651,0.03531615
1840.08223389,0.03550143
1842.01104126,0.03542634
1843.93984863,0.03173067
1845.86865601,0.03383397
1847.79746338,0.03544822
1849.72627075,0.03472134
1851.65507812,0.03550619
1853.58388550,0.03489807
1855.51269287,0.03540361
1857.44150024,0.03496272
1859.37030762,0.03469216
1861.29911499,0.03494741
1863.22792236,0.03459308
1865.15672974,0.03492841
1867.08553711,0.03390479
1869.01434448,0.03270093
1870.94315186,0.03383595
1872.87195923,0.03508344
1874.80076660,0.03449921
1876.72957397,0.03461445
1878.65838135,0.03447147
1880.58718872,0.03420527
1882.51599609,0.03456540
1884.44480347,0.03396966
1886.37361084,0.03436071
1888.30241821,0.03368901
1890.23122559,0.03309194
1892.16003296,0.03424577
1894.08884033,0.03379059
1896.01764771,0.03368037
1897.94645508,0.03408353
1899.87526245,0.03394455
1901.80406982,0.03386917
1903.73287720,0.03365810
1905.66168457,0.03384748
1907.59049194,0.03348691
1909.51929932,0.03330481
1911.44810669,0.03345472
1913.37691406,0.03353389
1915.30572144,0.03376683
1917.23452881,0.03221263
1919.16333618,0.03231298
1921.09214355,0.03357044
1923.02095093,0.03248202
1924.94975830,0.03308463
1926.87856567,0.03341605
1928.80737305,0.03291222
1930.73618042,0.03332325
1932.66498779,0.03295899
1934.59379517,0.03320576
1936.52260254,0.03288854
1938.45140991,0.03309897
1940.38021729,0.03300714
1942.30902466,0.03174750
1944.23783203,0.03265547
1946.16663940,0.03302241
1948.09544678,0.03282568
1950.02425415,0.03303214
1951.95306152,0.03272402
1953.88186890,0.03275889
1955.81067627,0.03266429
1957.73948364,0.03271782
1959.66829102,0.03273237
1961.59709839,0.03277840
1963.52590576,0.03281180
1965.45471313,0.03238903
1967.38352051,0.03214978
1969.31232788,0.03241383
1971.24113525,0.03255477
1973.16994263,0.03241796
1975.09875000,0.03244234
1977.02755737,0.03231943
1978.95636475,0.03251515
1980.88517212,0.03234302
1982.81397949,0.03218646
1984.74278687,0.03248224
1986.67159424,0.03210856
1988.60040161,0.03216852
1990.52920898,0.03174752
1992.45801636,0.03140772
1994.38682373,0.03201814
1996.31563110,0.03184924
1998.24443848,0.03177718
2000.17324585,0.03179054
2002.10205322,0.03172703
2004.03086060,0.03166396
2005.95966797,0.03139141
2007.88847534,0.03153777
2009.81728271,0.03137828
2011.74609009,0.03121526
2013.67489746,0.03133295
2015.60370483,0.03096250
2017.53251221,0.03075851
2019.46131958,0.03084603
2021.39012695,0.03079820
2023.31893433,0.03086725
2025.24774170,0.03078770
2027.17654907,0.03062945
2029.10535645,0.03065087
2031.03416382,0.03051472
2032.96297119,0.03035734
2034.89177856,0.03044073
2036.82058594,0.03051251
2038.74939331,0.03032152
2040.67820068,0.03016233
2042.60700806,0.03004869
2044.53581543,0.02993389
2046.46462280,0.03001868
2048.39343018,0.03002265
2050.32223755,0.02992259
2052.25104492,0.02980320
2054.17985229,0.02972594
2056.10865967,0.02978631
2058.03746704,0.02969797
2059.96627441,0.02952706
2061.89508179,0.02952740
2063.82388916,0.02937381
2065.75269653,0.02929093
2067.68150391,0.02940099
2069.61031128,0.02928081
2071.53911865,0.02930103
2073.46792603,0.02925190
2075.39673340,0.02912718
2077.32554077,0.02906362
2079.25434814,0.02898164
2081.18315552,0.02906731
2083.11196289,0.02884300
2085.04077026,0.02883630
2086.96957764,0.02887998
2088.89838501,0.02866586
2090.82719238,0.02868725
2092.75599976,0.02862315
2094.68480713,0.02858074
2096.61361450,0.02853891
2098.54242187,0.02853657
2100.47122925,0.02830837
2102.40003662,0.02824188
2104.32884399,0.02836870
2106.25765137,0.02808744
2108.18645874,0.02820365
2110.11526611,0.02818423
2112.04407349,0.02804523
2113.97288086,0.02810877
2115.90168823,0.02794113
2117.83049561,0.02791115
2119.75930298,0.02789246
2121.68811035,0.02787266
2123.61691772,0.02786307
2125.54572510,0.02786068
2127.47453247,0.02771612
2129.40333984,0.02775298
2131.33214722,0.02783515
2133.26095459,0.02757518
2135.18976196,0.02755309
2137.11856934,0.02751886
2139.04737671,0.02762244
2140.97618408,0.02757923
2142.90499146,0.02741856
2144.83379883,0.02748035
2146.76260620,0.02721897
2148.69141357,0.02723128
2150.62022095,0.02738422
2152.54902832,0.02735643
2154.47783569,0.02732426
2156.40664307,0.02727611
2158.33545044,0.02716343
2160.26425781,0.02707206
2162.19306519,0.02716147
2164.12187256,0.02700008
2166.05067993,0.02697540
2167.97948730,0.02701224
2169.90829468,0.02687136
2171.83710205,0.02694254
2173.76590942,0.02698214
2175.69471680,0.02686939
2177.62352417,0.02676977
2179.55233154,0.02683412
2181.48113892,0.02678873
2183.40994629,0.02670002
2185.33875366,0.02665589
2187.26756104,0.02664666
2189.19636841,0.02664367
2191.12517578,0.02644359
2193.05398315,0.02643164
2194.98279053,0.02648791
2196.91159790,0.02644583
2198.84040527,0.02641832
2200.76921265,0.02644391
2202.69802002,0.02627524
2204.62682739,0.02614396
2206.55563477,0.02642705
2208.48444214,0.02632220
2210.41324951,0.02612241
2212.34205688,0.02614191
2214.27086426,0.02615060
2216.19967163,0.02621106
2218.12847900,0.02611669
2220.05728638,0.02605891
2221.98609375,0.02598930
2223.91490112,0.02600408
2225.84370850,0.02602964
2227.77251587,0.02594831
2229.70132324,0.02590471
2231.63013062,0.02582445
2233.55893799,0.02572687
2235.48774536,0.02560925
2237.41655273,0.02566735
2239.34536011,0.02568442
2241.27416748,0.02556570
2243.20297485,0.02546084
2245.13178223,0.02540727
2247.06058960,0.02544112
2248.98939697,0.02537743
2250.91820435,0.02529990
2252.84701172,0.02531923
2254.77581909,0.02541742
2256.70462646,0.02524813
2258.63343384,0.02508477
2260.56224121,0.02517808
2262.49104858,0.02505553
2264.41985596,0.02495269
2266.34866333,0.02502379
2268.27747070,0.02502367
2270.20627808,0.02489527
2272.13508545,0.02496502
2274.06389282,0.02502786
2275.99270020,0.02492679
2277.92150757,0.02487196
2279.85031494,0.02468887
2281.77912231,0.02469429
2283.70792969,0.02470031
2285.63673706,0.02465552
2287.56554443,0.02462194
2289.49435181,0.02457952
2291.42315918,0.02465972
2293.35196655,0.02438252
2295.28077393,0.02430951
2297.20958130,0.02433653
2299.13838867,0.02410759
2301.06719604,0.02414387
2302.99600342,0.02397231
2304.92481079,0.02376750
2306.85361816,0.02375274
2308.78242554,0.02349943
2310.71123291,0.02330216
2312.64004028,0.02312802
2314.56884766,0.02279971
2316.49765503,0.02254049
2318.42646240,0.02219905
2320.35526978,0.02194135
2322.28407715,0.02171556
2324.21288452,0.02136945
2326.14169189,0.02116202
2328.07049927,0.02090335
2329.99930664,0.02077080
2331.92811401,0.02055991
2333.85692139,0.02029637
2335.78572876,0.02032508
2337.71453613,0.02035755
2339.64334351,0.02031039
2341.57215088,0.02027003
2343.50095825,0.02069760
2345.42976562,0.02111287
2347.35857300,0.02189676
2349.28738037,0.02270453
2351.21618774,0.02178967
2353.14499512,0.02066825
2355.07380249,0.02001502
2357.00260986,0.01942135
2358.93141724,0.01907523
2360.86022461,0.01875919
2362.78903198,0.01878787
2364.71783936,0.01886566
2366.64664673,0.01910902
2368.57545410,0.01947861
2370.50426147,0.01997381
2372.43306885,0.02060269
2374.36187622,0.02105950
2376.29068359,0.02165490
2378.21949097,0.02205331
2380.14829834,0.02234431
2382.07710571,0.02267329
2384.00591309,0.02288601
2385.93472046,0.02284711
2387.86352783,0.02272630
2389.79233521,0.02289122
2391.72114258,0.02281314
2393.64994995,0.02282653
2395.57875732,0.02287186
2397.50756470,0.02268314
2399.43637207,0.02275573
2401.36517944,0.02272349
2403.29398682,0.02269116
2405.22279419,0.02267733
2407.15160156,0.02247417
2409.08040894,0.02251594
2411.00921631,0.02265539
2412.93802368,0.02249735
2414.86683105,0.02236303
2416.79563843,0.02251818
2418.72444580,0.02254971
2420.65325317,0.02237069
2422.58206055,0.02230947
2424.51086792,0.02238854
2426.43967529,0.02240412
2428.36848267,0.02227614
2430.29729004,0.02223307
2432.22609741,0.02226935
2434.15490479,0.02215984
2436.08371216,0.02216500
2438.01251953,0.02218622
2439.94132690,0.02204927
2441.87013428,0.02205580
2443.79894165,0.02195199
2445.72774902,0.02187603
2447.65655640,0.02194012
2449.58536377,0.02183556
2451.51417114,0.02180577
2453.44297852,0.02179195
2455.37178589,0.02179089
2457.30059326,0.02187697
2459.22940063,0.02176818
2461.15820801,0.02157762
2463.08701538,0.02168261
2465.01582275,0.02177149
2466.94463013,0.02157457
2468.87343750,0.02150669
2470.80224487,0.02149636
2472.73105225,0.02142942
2474.65985962,0.02137387
2476.58866699,0.02136407
2478.51747437,0.02137549
2480.44628174,0.02132907
2482.37508911,0.02134318
2484.30389648,0.02128811
2486.23270386,0.02125928
2488.16151123,0.02128527
2490.09031860,0.02129256
2492.01912598,0.02122228
2493.94793335,0.02108622
2495.87674072,0.02107308
2497.80554810,0.02105102
2499.73435547,0.02115067
2501.66316284,0.02104072
2503.59197021,0.02085552
2505.52077759,0.02092826
2507.44958496,0.02084017
2509.37839233,0.02092409
2511.30719971,0.02093901
2513.23600708,0.02082876
2515.16481445,0.02079058
2517.09362183,0.02070613
2519.02242920,0.02082667
2520.95123657,0.02073975
2522.88004395,0.02067653
2524.80885132,0.02066194
2526.73765869,0.02049468
2528.66646606,0.02061138
2530.59527344,0.02061353
2532.52408081,0.02054533
2534.45288818,0.02059564
2536.38169556,0.02052530
2538.31050293,0.02042544
2540.23931030,0.02040770
2542.16811768,0.02039072
2544.09692505,0.02028893
2546.02573242,0.02032338
2547.95453979,0.02027057
2549.88334717,0.02020476
2551.81215454,0.02028278
2553.74096191,0.02010971
2555.66976929,0.02006279
2557.59857666,0.02008797
2559.52738403,0.02003766
2561.45619141,0.02016828
2563.38499878,0.02010747
2565.31380615,0.01996763
2567.24261353,0.01993616
2569.17142090,0.01997443
2571.10022827,0.02003010
2573.02903564,0.01996806
2574.95784302,0.01996901
2576.88665039,0.01996605
2578.81545776,0.01982884
2580.74426514,0.01968778
2582.67307251,0.01975697
2584.60187988,0.01982119
2586.53068726,0.01970372
2588.45949463,0.01965991
2590.38830200,0.01959698
2592.31710937,0.01952611
2594.24591675,0.01943067
2596.17472412,0.01941172
2598.10353149,0.01954820
2600.03233887,0.01952780
2601.96114624,0.01947191
2603.88995361,0.01940890
2605.81876099,0.01936770
2607.74756836,0.01938733
2609.67637573,0.01931619
2611.60518311,0.01936796
2613.53399048,0.01940733
2615.46279785,0.01924527
2617.39160522,0.01918362
2619.32041260,0.01912340
2621.24921997,0.01909926
2623.17802734,0.01921332
2625.10683472,0.01906010
2627.03564209,0.01895503
2628.96444946,0.01900407
2630.89325684,0.01900753
2632.82206421,0.01905875
2634.75087158,0.01892840
2636.67967895,0.01888208
2638.60848633,0.01892024
2640.53729370,0.01892953
2642.46610107,0.01886457
2644.39490845,0.01877666
2646.32371582,0.01883692
2648.25252319,0.01864731
2650.18133057,0.01861923
2652.11013794,0.01864055
2654.03894531,0.01860556
2655.96775269,0.01877965
2657.89656006,0.01860215
2659.82536743,0.01848793
2661.75417480,0.01846807
2663.68298218,0.01844108
2665.61178955,0.01855903
2667.54059692,0.01849806
2669.46940430,0.01839784
2671.39821167,0.01832100
2673.32701904,0.01839234
2675.25582642,0.01841362
2677.18463379,0.01828265
2679.11344116,0.01829764
2681.04224854,0.01834866
2682.97105591,0.01825555
2684.89986328,0.01819887
2686.82867065,0.01827748
2688.75747803,0.01816154
2690.68628540,0.01810028
2692.61509277,0.01807726
2694.54390015,0.01791420
2696.47270752,0.01795572
2698.40151489,0.01803689
2700.33032227,0.01802349
2702.25912964,0.01796706
2704.18793701,0.01792301
2706.11674438,0.01789077
2708.04555176,0.01782455
2709.97435913,0.01777587
2711.90316650,0.01780400
2713.83197388,0.01781847
2715.76078125,0.01776524
2717.68958862,0.01775661
2719.61839600,0.01766608
2721.54720337,0.01764307
2723.47601074,0.01759788
2725.40481812,0.01750902
2727.33362549,0.01760114
2729.26243286,0.01755237
2731.19124023,0.01744132
2733.12004761,0.01739981
2735.04885498,0.01740480
2736.97766235,0.01738551
2738.90646973,0.01737256
2740.83527710,0.01734507
2742.76408447,0.01719958
2744.69289185,0.01723941
2746.62169922,0.01721727
2748.55050659,0.01721405
2750.47931396,0.01730705
2752.40812134,0.01717384
2754.33692871,0.01715029
2756.26573608,0.01708943
2758.19454346,0.01694187
2760.12335083,0.01704472
2762.05215820,0.01708569
2763.98096558,0.01697800
2765.90977295,0.01700531
2767.83858032,0.01696149
2769.76738770,0.01685254
2771.69619507,0.01681540
2773.62500244,0.01676832
2775.55380981,0.01682800
2777.48261719,0.01683875
2779.41142456,0.01679081
2781.34023193,0.01670194
2783.26903931,0.01666144
2785.19784668,0.01664751
2787.12665405,0.01649658
2789.05546143,0.01652738
2790.98426880,0.01651500
2792.91307617,0.01649670
2794.84188354,0.01653791
2796.77069092,0.01644808
2798.69949829,0.01645418
2800.62830566,0.01638632
2802.55711304,0.01634508
2804.48592041,0.01631477
2806.41472778,0.01623055
2808.34353516,0.01624775
2810.27234253,0.01618734
2812.20114990,0.01612560
2814.12995728,0.01613422
2816.05876465,0.01609724
2817.98757202,0.01598850
2819.91637939,0.01600374
2821.84518677,0.01609778
2823.77399414,0.01599313
2825.70280151,0.01589971
2827.63160889,0.01601557
2829.56041626,0.01596909
2831.48922363,0.01583822
2833.41803101,0.01595246
2835.34683838,0.01585317
2837.27564575,0.01565101
2839.20445312,0.01567527
2841.13326050,0.01564213
2843.06206787,0.01550051
2844.99087524,0.01540098
2846.91968262,0.01541350
2848.84848999,0.01533862
2850.77729736,0.01519534
2852.70610474,0.01514345
2854.63491211,0.01522232
2856.56371948,0.01525741
2858.49252686,0.01516825
2860.42133423,0.01516573
2862.35014160,0.01513243
2864.27894897,0.01509347
2866.20775635,0.01517718
2868.13656372,0.01525584
2870.06537109,0.01507148
2871.99417847,0.01493683
2873.92298584,0.01498476
2875.85179321,0.01488260
2877.78060059,0.01493914
2879.70940796,0.01491957
2881.63821533,0.01482103
2883.56702270,0.01480622
2885.49583008,0.01476140
2887.42463745,0.01481943
2889.35344482,0.01468254
2891.28225220,0.01467544
2893.21105957,0.01476051
2895.13986694,0.01465535
2897.06867432,0.01461933
2898.99748169,0.01459539
2900.92628906,0.01456714
2902.85509644,0.01452713
2904.78390381,0.01450795
2906.71271118,0.01439475
2908.64151855,0.01433495
2910.57032593,0.01426239
2912.49913330,0.01417225
2914.42794067,0.01422787
2916.35674805,0.01404241
2918.28555542,0.01401514
2920.21436279,0.01405469
2922.14317017,0.01391172
2924.07197754,0.01401020
2926.00078491,0.01395945
2927.92959229,0.01380830
2929.85839966,0.01391885
2931.78720703,0.01389380
2933.71601440,0.01378673
2935.64482178,0.01390706
2937.57362915,0.01394599
2939.50243652,0.01393932
2941.43124390,0.01388009
2943.36005127,0.01375485
2945.28885864,0.01382731
2947.21766602,0.01385667
2949.14647339,0.01383566
2951.07528076,0.01380435
2953.00408813,0.01374822
2954.93289551,0.01375811
2956.86170288,0.01378247
2958.79051025,0.01358066
2960.71931763,0.01344509
2962.64812500,0.01364742
2964.57693237,0.01353637
2966.50573975,0.01345672
2968.43454712,0.01349963
2970.36335449,0.01350344
2972.29216187,0.01360296
2974.22096924,0.01346174
2976.14977661,0.01351358
2978.07858398,0.01352326
2980.00739136,0.01345298
2981.93619873,0.01352163
2983.86500610,0.01352005
2985.79381348,0.01352700
2987.72262085,0.01338370
2989.65142822,0.01345466
2991.58023560,0.01344369
2993.50904297,0.01332029
2995.43785034,0.01339269
2997.36665771,0.01327686
2999.29546509,0.01324520
3001.22427246,0.01333106
3003.15307983,0.01330526
3005.08188721,0.01315028
3007.01069458,0.01316719
3008.93950195,0.01319498
3010.86830933,0.01305963
3012.79711670,0.01308676
3014.72592407,0.01303191
3016.65473145,0.01304356
3018.58353882,0.01307784
3020.51234619,0.01302541
3022.44115356,0.01304156
3024.36996094,0.01297764
3026.29876831,0.01299010
3028.22757568,0.01296519
3030.15638306,0.01282004
3032.08519043,0.01282807
3034.01399780,0.01287632
3035.94280518,0.01273315
3037.87161255,0.01272093
3039.80041992,0.01280478
3041.72922729,0.01270193
3043.65803467,0.01267006
3045.58684204,0.01264608
3047.51564941,0.01262523
3049.44445679,0.01265218
3051.37326416,0.01258308
3053.30207153,0.01252283
3055.23087891,0.01253781
3057.15968628,0.01248513
3059.08849365,0.01237996
3061.01730103,0.01238750
3062.94610840,0.01238851
3064.87491577,0.01239102
3066.80372314,0.01238816
3068.73253052,0.01235680
3070.66133789,0.01236172
3072.59014526,0.01232069
3074.51895264,0.01230369
3076.44776001,0.01232412
3078.37656738,0.01225710
3080.30537476,0.01218066
3082.23418213,0.01222384
3084.16298950,0.01215779
3086.09179687,0.01211112
3088.02060425,0.01210373
3089.94941162,0.01199932
3091.87821899,0.01205655
3093.80702637,0.01203016
3095.73583374,0.01200171
3097.66464111,0.01196800
3099.59344849,0.01189516
3101.52225586,0.01195551
3103.45106323,0.01188866
3105.37987061,0.01185250
3107.30867798,0.01181562
3109.23748535,0.01180232
3111.16629272,0.01181032
3113.09510010,0.01174498
3115.02390747,0.01170308
3116.95271484,0.01164416
3118.88152222,0.01167338
3120.81032959,0.01167593
3122.73913696,0.01164112
3124.66794434,0.01154758
3126.59675171,0.01161139
3128.52555908,0.01159563
3130.45436645,0.01138200
3132.38317383,0.01144062
3134.31198120,0.01129662
3136.24078857,0.01128901
3138.16959595,0.01138658
3140.09840332,0.01129052
3142.02721069,0.01129371
3143.95601807,0.01112687
3145.88482544,0.01120111
3147.81363281,0.01124132
3149.74244019,0.01110135
3151.67124756,0.01103394
3153.60005493,0.01100123
3155.52886230,0.01113862
3157.45766968,0.01096636
3159.38647705,0.01088073
3161.31528442,0.01090562
3163.24409180,0.01077200
3165.17289917,0.01090534
3167.10170654,0.01097101
3169.03051392,0.01086801
3170.95932129,0.01073340
3172.88812866,0.01074561
3174.81693604,0.01076746
3176.74574341,0.01056649
3178.67455078,0.01056812
3180.60335815,0.01063782
3182.53216553,0.01066907
3184.46097290,0.01064662
3186.38978027,0.01041881
3188.31858765,0.01042330
3190.24739502,0.01048565
3192.17620239,0.01041845
3194.10500977,0.01046399
3196.03381714,0.01045154
3197.96262451,0.01037658
3199.89143188,0.01024794
3201.82023926,0.01027435
3203.74904663,0.01037693
3205.67785400,0.01030427
3207.60666138,0.01028268
3209.53546875,0.01015869
3211.46427612,0.01009105
3213.39308350,0.01019531
3215.32189087,0.01019893
3217.25069824,0.01011209
3219.17950562,0.01002650
3221.10831299,0.01005033
3223.03712036,0.01001143
3224.96592773,0.00999172
3226.89473511,0.01011561
3228.82354248,0.01006351
3230.75234985,0.00989660
3232.68115723,0.00993279
3234.60996460,0.00993381
3236.53877197,0.00990619
3238.46757935,0.00994545
3240.39638672,0.00980457
3242.32519409,0.00988417
3244.25400146,0.00993415
3246.18280884,0.00977381
3248.11161621,0.00980504
3250.04042358,0.00980534
3251.96923096,0.00972017
3253.89803833,0.00962425
3255.82684570,0.00973629
3257.75565308,0.00975649
3259.68446045,0.00972055
3261.61326782,0.00977828
3263.54207520,0.00966819
3265.47088257,0.00974364
3267.39968994,0.00964444
3269.32849731,0.00955819
3271.25730469,0.00964699
3273.18611206,0.00958548
3275.11491943,0.00961947
3277.04372681,0.00958061
3278.97253418,0.00961840
3280.90134155,0.00958868
3282.83014893,0.00944892
3284.75895630,0.00946610
3286.68776367,0.00956405
3288.61657104,0.00958485
3290.54537842,0.00948141
3292.47418579,0.00952110
3294.40299316,0.00946617
3296.33180054,0.00942625
3298.26060791,0.00948461
3300.18941528,0.00950803
3302.11822266,0.00953681
3304.04703003,0.00943019
3305.97583740,0.00942809
3307.90464478,0.00945883
3309.83345215,0.00942918
3311.76225952,0.00935350
3313.69106689,0.00934594
3315.61987427,0.00938863
3317.54868164,0.00932523
3319.47748901,0.00930361
3321.40629639,0.00926689
3323.33510376,0.00935624
3325.26391113,0.00932533
3327.19271851,0.00921627
3329.12152588,0.00931505
3331.05033325,0.00930492
3332.97914062,0.00920923
3334.90794800,0.00912564
3336.83675537,0.00917123
3338.76556274,0.00924126
3340.69437012,0.00923945
3342.62317749,0.00921012
3344.55198486,0.00918791
3346.48079224,0.00913435
3348.40959961,0.00900266
3350.33840698,0.00908364
3352.26721436,0.00913403
3354.19602173,0.00904318
3356.12482910,0.00899159
3358.05363647,0.00902360
3359.98244385,0.00911306
3361.91125122,0.00900345
3363.84005859,0.00893438
3365.76886597,0.00897239
3367.69767334,0.00886759
3369.62648071,0.00884624
3371.55528809,0.00888905
3373.48409546,0.00884361
3375.41290283,0.00896113
3377.34171020,0.00884460
3379.27051758,0.00870346
3381.19932495,0.00894106
3383.12813232,0.00881037
3385.05693970,0.00871501
3386.98574707,0.00879049
3388.91455444,0.00877945
3390.84336182,0.00879773
3392.77216919,0.00868560
3394.70097656,0.00872731
3396.62978394,0.00866015
3398.55859131,0.00860035
3400.48739868,0.00861336
3402.41620605,0.00854356
3404.34501343,0.00860631
3406.27382080,0.00859704
3408.20262817,0.00859901
3410.13143555,0.00860151
3412.06024292,0.00859091
3413.98905029,0.00849724
3415.91785767,0.00848362
3417.84666504,0.00852820
3419.77547241,0.00840776
3421.70427979,0.00840113
3423.63308716,0.00834744
3425.56189453,0.00834122
3427.49070190,0.00832862
3429.41950928,0.00833980
3431.34831665,0.00842891
3433.27712402,0.00833539
3435.20593140,0.00829213
3437.13473877,0.00828854
3439.06354614,0.00834829
3440.99235352,0.00833559
3442.92116089,0.00829143
3444.84996826,0.00826833
3446.77877563,0.00816810
3448.70758301,0.00818742
3450.63639038,0.00824092
3452.56519775,0.00825449
3454.49400513,0.00815208
3456.42281250,0.00818501
3458.35161987,0.00819609
3460.28042725,0.00808709
3462.20923462,0.00812369
3464.13804199,0.00808383
3466.06684937,0.00810445
3467.99565674,0.00813124
3469.92446411,0.00812859
3471.85327148,0.00814291
3473.78207886,0.00809043
3475.71088623,0.00807907
3477.63969360,0.00809948
3479.56850098,0.00799694
3481.49730835,0.00792720
3483.42611572,0.00803227
3485.35492310,0.00796598
3487.28373047,0.00797987
3489.21253784,0.00793970
3491.14134521,0.00787272
3493.07015259,0.00800161
3494.99895996,0.00795162
3496.92776733,0.00799898
3498.85657471,0.00805388
3500.78538208,0.00804012
3502.71418945,0.00787514
3504.64299683,0.00785839
3506.57180420,0.00795063
3508.50061157,0.00781749
3510.42941895,0.00795526
3512.35822632,0.00781752
3514.28703369,0.00783665
3516.21584106,0.00801235
3518.14464844,0.00782959
3520.07345581,0.00794292
3522.00226318,0.00793369
3523.93107056,0.00780069
3525.85987793,0.00775653
3527.78868530,0.00781683
3529.71749268,0.00779192
3531.64630005,0.00776091
3533.57510742,0.00792857
3535.50391479,0.00780556
3537.43272217,0.00778623
3539.36152954,0.00790431
3541.29033691,0.00790337
3543.21914429,0.00786247
3545.14795166,0.00767451
3547.07675903,0.00758647
3549.00556641,0.00785062
3550.93437378,0.00780601
3552.86318115,0.00750478
3554.79198853,0.00776575
3556.72079590,0.00781262
3558.64960327,0.00772360
3560.57841064,0.00771403
3562.50721802,0.00766306
3564.43602539,0.00772970
3566.36483276,0.00723040
3568.29364014,0.00710543
3570.22244751,0.00762491
3572.15125488,0.00779096
3574.08006226,0.00775224
3576.00886963,0.00773441
3577.93767700,0.00771141
3579.86648437,0.00768226
3581.79529175,0.00763876
3583.72409912,0.00775004
3585.65290649,0.00761611
3587.58171387,0.00693421
3589.51052124,0.00721731
3591.43932861,0.00777866
3593.36813599,0.00750575
3595.29694336,0.00744482
3597.22575073,0.00750160
3599.15455811,0.00758754
3601.08336548,0.00752041
3603.01217285,0.00762790
3604.94098022,0.00774279
3606.86978760,0.00740010
3608.79859497,0.00712225
3610.72740234,0.00719551
3612.65620972,0.00728954
3614.58501709,0.00717311
3616.51382446,0.00763077
3618.44263184,0.00711789
3620.37143921,0.00692685
3622.30024658,0.00768155
3624.22905395,0.00742475
3626.15786133,0.00771041
3628.08666870,0.00653430
3630.01547607,0.00614328
3631.94428345,0.00765736
3633.87309082,0.00738333
3635.80189819,0.00752110
3637.73070557,0.00762406
3639.65951294,0.00756198
3641.58832031,0.00765539
3643.51712769,0.00754835
3645.44593506,0.00753571
3647.37474243,0.00673258
3649.30354980,0.00625320
3651.23235718,0.00638971
3653.16116455,0.00753808
3655.08997192,0.00735090
3657.01877930,0.00671752
3658.94758667,0.00768961
3660.87639404,0.00746971
3662.80520142,0.00760098
3664.73400879,0.00756672
3666.66281616,0.00753663
3668.59162354,0.00718040
3670.52043091,0.00603427
3672.44923828,0.00725069
3674.37804565,0.00670027
3676.30685303,0.00578654
3678.23566040,0.00721394
3680.16446777,0.00724467
3682.09327515,0.00722969
3684.02208252,0.00751249
3685.95088989,0.00736657
3687.87969727,0.00660593
3689.80850464,0.00623211
3691.73731201,0.00702208
3693.66611938,0.00720357
3695.59492676,0.00730840
3697.52373413,0.00727975
3699.45254150,0.00722886
3701.38134888,0.00698203
3703.31015625,0.00681532
3705.23896362,0.00743059
3707.16777100,0.00711059
3709.09657837,0.00692939
3711.02538574,0.00647525
3712.95419312,0.00611001
3714.88300049,0.00704298
3716.81180786,0.00708337
3718.74061523,0.00711343
3720.66942261,0.00693391
3722.59822998,0.00685035
3724.52703735,0.00699259
3726.45584473,0.00649307
3728.38465210,0.00707169
3730.31345947,0.00700927
3732.24226685,0.00631475
3734.17107422,0.00613212
3736.09988159,0.00605632
3738.02868896,0.00631249
3739.95749634,0.00678259
3741.88630371,0.00707565
3743.81511108,0.00553558
3745.74391846,0.00535990
3747.67272583,0.00662266
3749.60153320,0.00567636
3751.53034058,0.00540835
3753.45914795,0.00610151
3755.38795532,0.00658246
3757.31676270,0.00687204
3759.24557007,0.00637404
3761.17437744,0.00657270
3763.10318481,0.00687327
3765.03199219,0.00647836
3766.96079956,0.00664050
3768.88960693,0.00647972
3770.81841431,0.00623614
3772.74722168,0.00679722
3774.67602905,0.00677081
3776.60483643,0.00673422
3778.53364380,0.00660827
3780.46245117,0.00642077
3782.39125854,0.00671616
3784.32006592,0.00655954
3786.24887329,0.00662135
3788.17768066,0.00671578
3790.10648804,0.00665134
3792.03529541,0.00660856
3793.96410278,0.00670755
3795.89291016,0.00631513
3797.82171753,0.00623441
3799.75052490,0.00649595
3801.67933228,0.00526165
3803.60813965,0.00617191
3805.53694702,0.00649983
3807.46575439,0.00549849
3809.39456177,0.00665789
3811.32336914,0.00646429
3813.25217651,0.00663322
3815.18098389,0.00584010
3817.10979126,0.00541949
3819.03859863,0.00672012
3820.96740601,0.00543880
3822.89621338,0.00581111
3824.82502075,0.00643344
3826.75382812,0.00599983
3828.68263550,0.00645012
3830.61144287,0.00609998
3832.54025024,0.00605904
3834.46905762,0.00605639
3836.39786499,0.00575563
3838.32667236,0.00531207
3840.25547974,0.00572885
3842.18428711,0.00606868
3844.11309448,0.00581982
3846.04190186,0.00628005
3847.97070923,0.00620129
3849.89951660,0.00629564
3851.82832397,0.00548599
3853.75713135,0.00422168
3855.68593872,0.00512294
3857.61474609,0.00616552
3859.54355347,0.00598450
3861.47236084,0.00598983
3863.40116821,0.00583380
3865.32997559,0.00537739
3867.25878296,0.00608765
3869.18759033,0.00553307
3871.11639770,0.00512504
3873.04520508,0.00610424
3874.97401245,0.00555285
3876.90281982,0.00605367
3878.83162720,0.00610308
3880.76043457,0.00530130
3882.68924194,0.00610951
3884.61804932,0.00559760
3886.54685669,0.00526709
3888.47566406,0.00610100
3890.40447144,0.00564543
3892.33327881,0.00536362
3894.26208618,0.00596786
3896.19089355,0.00597435
3898.11970093,0.00564134
3900.04850830,0.00544903
3901.97731567,0.00534548
3903.90612305,0.00528294
3905.83493042,0.00536363
3907.76373779,0.00585940
3909.69254517,0.00587374
3911.62135254,0.00573427
3913.55015991,0.00588318
3915.47896728,0.00568654
3917.40777466,0.00549218
3919.33658203,0.00548791
3921.26538940,0.00567389
3923.19419678,0.00565000
3925.12300415,0.00554262
3927.05181152,0.00563903
3928.98061890,0.00561417
3930.90942627,0.00553351
3932.83823364,0.00545875
3934.76704102,0.00557316
3936.69584839,0.00565881
3938.62465576,0.00568809
3940.55346313,0.00562071
3942.48227051,0.00538012
3944.41107788,0.00552080
3946.33988525,0.00565387
3948.26869263,0.00541832
3950.19750000,0.00541073
3952.12630737,0.00554986
3954.05511475,0.00547554
3955.98392212,0.00546875
3957.91272949,0.00550179
3959.84153687,0.00552186
3961.77034424,0.00548723
3963.69915161,0.00542855
3965.62795898,0.00548230
3967.55676636,0.00538091
3969.48557373,0.00540683
3971.41438110,0.00545253
3973.34318848,0.00537347
3975.27199585,0.00537261
3977.20080322,0.00533086
3979.12961060,0.00539827
3981.05841797,0.00536263
3982.98722534,0.00532229
3984.91603271,0.00540250
3986.84484009,0.00533283
3988.77364746,0.00524875
3990.70245483,0.00524993
3992.63126221,0.00526412
3994.56006958,0.00527473
3996.48887695,0.00528830
3998.41768433,0.00529724
4000.34649170,0.00525488
4002.27529907,0.00513028
4004.20410645,0.00524398
4006.13291382,0.00528524
4008.06172119,0.00519340
4009.99052856,0.00519732
4011.91933594,0.00501190
4013.84814331,0.00513804
4015.77695068,0.00517857
4017.70575806,0.00508517
4019.63456543,0.00520058
4021.56337280,0.00509307
4023.49218018,0.00509904
4025.42098755,0.00505007
4027.34979492,0.00507015
4029.27860229,0.00511003
4031.20740967,0.00501299
4033.13621704,0.00505384
4035.06502441,0.00494547
4036.99383179,0.00496022
4038.92263916,0.00498985
4040.85144653,0.00495038
4042.78025391,0.00498819
4044.70906128,0.00496125
4046.63786865,0.00500297
4048.56667603,0.00500334
4050.49548340,0.00490530
4052.42429077,0.00488020
4054.35309814,0.00493453
4056.28190552,0.00489241
4058.21071289,0.00493349
4060.13952026,0.00494541
4062.06832764,0.00483195
4063.99713501,0.00480157
4065.92594238,0.00480439
4067.85474976,0.00490287
4069.78355713,0.00491823
4071.71236450,0.00492038
4073.64117187,0.00481023
4075.56997925,0.00475479
4077.49878662,0.00487603
4079.42759399,0.00474025
4081.35640137,0.00476519
4083.28520874,0.00477310
4085.21401611,0.00470149
4087.14282349,0.00480430
4089.07163086,0.00478898
4091.00043823,0.00473927
4092.92924561,0.00467793
4094.85805298,0.00470901
4096.78686035,0.00469934
4098.71566772,0.00465902
4100.64447510,0.00467782
4102.57328247,0.00459328
4104.50208984,0.00459945
4106.43089722,0.00459408
4108.35970459,0.00456093
4110.28851196,0.00462351
4112.21731934,0.00458673
4114.14612671,0.00457693
4116.07493408,0.00462461
4118.00374145,0.00453884
4119.93254883,0.00454779
4121.86135620,0.00451210
4123.79016357,0.00447202
4125.71897095,0.00457198
4127.64777832,0.00445693
4129.57658569,0.00447654
4131.50539307,0.00450614
4133.43420044,0.00442806
4135.36300781,0.00452640
4137.29181519,0.00446660
4139.22062256,0.00439909
4141.14942993,0.00443840
4143.07823730,0.00446832
4145.00704468,0.00446649
4146.93585205,0.00441086
4148.86465942,0.00433480
4150.79346680,0.00438121
4152.72227417,0.00446499
4154.65108154,0.00432453
4156.57988892,0.00431560
4158.50869629,0.00439752
4160.43750366,0.00433508
4162.36631103,0.00426400
4164.29511841,0.00430292
4166.22392578,0.00430567
4168.15273315,0.00421136
4170.08154053,0.00427184
4172.01034790,0.00423748
4173.93915527,0.00425613
4175.86796265,0.00433074
4177.79677002,0.00431043
4179.72557739,0.00432172
4181.65438477,0.00422651
4183.58319214,0.00423306
4185.51199951,0.00419085
4187.44080688,0.00421430
4189.36961426,0.00424796
4191.29842163,0.00412571
4193.22722900,0.00412955
4195.15603638,0.00407447
4197.08484375,0.00414469
4199.01365112,0.00413130
4200.94245850,0.00404646
4202.87126587,0.00414220
4204.80007324,0.00409068
4206.72888062,0.00403921
4208.65768799,0.00407035
4210.58649536,0.00411816
4212.51530273,0.00405951
4214.44411011,0.00403485
4216.37291748,0.00402651
4218.30172485,0.00393443
4220.23053223,0.00398821
4222.15933960,0.00399794
4224.08814697,0.00400889
4226.01695435,0.00399817
4227.94576172,0.00398170
4229.87456909,0.00400584
4231.80337646,0.00390645
4233.73218384,0.00393527
4235.66099121,0.00399094
4237.58979858,0.00393417
4239.51860596,0.00392647
4241.44741333,0.00394205
4243.37622070,0.00392320
4245.30502808,0.00390663
4247.23383545,0.00390645
4249.16264282,0.00393441
4251.09145020,0.00393660
4253.02025757,0.00382355
4254.94906494,0.00381323
4256.87787231,0.00386870
4258.80667969,0.00383373
4260.73548706,0.00377965
4262.66429443,0.00378534
4264.59310181,0.00381697
4266.52190918,0.00374654
4268.45071655,0.00382453
4270.37952393,0.00383983
4272.30833130,0.00367904
4274.23713867,0.00374748
4276.16594604,0.00376678
4278.09475342,0.00373302
4280.02356079,0.00372212
4281.95236816,0.00370034
4283.88117554,0.00378418
4285.80998291,0.00369084
4287.73879028,0.00361652
4289.66759766,0.00368925
4291.59640503,0.00375424
4293.52521240,0.00374755
4295.45401978,0.00361055
4297.38282715,0.00364829
4299.31163452,0.00369965
4301.24044189,0.00372280
4303.16924927,0.00371495
4305.09805664,0.00356723
4307.02686401,0.00361184
4308.95567139,0.00358415
4310.88447876,0.00357862
4312.81328613,0.00363884
4314.74209351,0.00355541
4316.67090088,0.00359550
4318.59970825,0.00358201
4320.52851562,0.00356620
4322.45732300,0.00350785
4324.38613037,0.00346927
4326.31493774,0.00353204
4328.24374512,0.00346176
4330.17255249,0.00351209
4332.10135986,0.00353153
4334.03016724,0.00350197
4335.95897461,0.00353332
4337.88778198,0.00350696
4339.81658936,0.00348009
4341.74539673,0.00339578
4343.67420410,0.00341354
4345.60301147,0.00347887
4347.53181885,0.00344398
4349.46062622,0.00343342
4351.38943359,0.00347081
4353.31824097,0.00337787
4355.24704834,0.00332702
4357.17585571,0.00346051
4359.10466309,0.00340779
4361.03347046,0.00334979
4362.96227783,0.00336211
4364.89108520,0.00333929
4366.81989258,0.00333846
4368.74869995,0.00326977
4370.67750732,0.00334253
4372.60631470,0.00336103
4374.53512207,0.00324856
4376.46392944,0.00332826
4378.39273682,0.00335942
4380.32154419,0.00325007
4382.25035156,0.00328144
4384.17915894,0.00331362
4386.10796631,0.00324671
4388.03677368,0.00324403
4389.96558105,0.00323230
4391.89438843,0.00323800
4393.82319580,0.00319536
4395.75200317,0.00316759
4397.68081055,0.00326314
4399.60961792,0.00321738
4401.53842529,0.00320165
4403.46723267,0.00326645
4405.39604004,0.00324130
4407.32484741,0.00321952
4409.25365478,0.00317704
4411.18246216,0.00317567
4413.11126953,0.00315367
4415.04007690,0.00308510
4416.96888428,0.00307682
4418.89769165,0.00303804
4420.82649902,0.00313739
4422.75530640,0.00318369
4424.68411377,0.00305514
4426.61292114,0.00313808
4428.54172852,0.00311481
4430.47053589,0.00311634
4432.39934326,0.00320436
4434.32815063,0.00303781
4436.25695801,0.00300221
4438.18576538,0.00300730
4440.11457275,0.00301758
4442.04338013,0.00301436
4443.97218750,0.00300255
4445.90099487,0.00301779
4447.82980225,0.00290377
4449.75860962,0.00298526
4451.68741699,0.00296546
4453.61622437,0.00294899
4455.54503174,0.00302396
4457.47383911,0.00294868
4459.40264648,0.00295174
4461.33145386,0.00290322
4463.26026123,0.00299021
4465.18906860,0.00295063
4467.11787598,0.00291803
4469.04668335,0.00302296
4470.97549072,0.00292263
4472.90429810,0.00296415
4474.83310547,0.00288721
4476.76191284,0.00287242
4478.69072021,0.00288581
4480.61952759,0.00282292
4482.54833496,0.00290257
4484.47714233,0.00278093
4486.40594971,0.00288324
4488.33475708,0.00299714
4490.26356445,0.00287390
4492.19237183,0.00280953
4494.12117920,0.00275014
4496.04998657,0.00279737
4497.97879395,0.00283253
4499.90760132,0.00284696
4501.83640869,0.00278210
4503.76521606,0.00272441
4505.69402344,0.00273217
4507.62283081,0.00275724
4509.55163818,0.00280671
4511.48044556,0.00277167
4513.40925293,0.00283014
4515.33806030,0.00278028
4517.26686768,0.00267301
4519.19567505,0.00268485
4521.12448242,0.00267638
4523.05328979,0.00270015
4524.98209717,0.00266206
4526.91090454,0.00267264
4528.83971191,0.00265416
4530.76851929,0.00263219
4532.69732666,0.00270441
4534.62613403,0.00269200
4536.55494141,0.00275063
4538.48374878,0.00271266
4540.41255615,0.00262165
4542.34136353,0.00267251
4544.27017090,0.00260730
4546.19897827,0.00257293
4548.12778564,0.00260755
4550.05659302,0.00261363
4551.98540039,0.00261790
4553.91420776,0.00256127
4555.84301514,0.00261940
4557.77182251,0.00263781
4559.70062988,0.00260599
4561.62943726,0.00269103
4563.55824463,0.00259226
4565.48705200,0.00253387
4567.41585937,0.00261723
4569.34466675,0.00258990
4571.27347412,0.00257972
4573.20228149,0.00257147
4575.13108887,0.00255442
4577.05989624,0.00256283
4578.98870361,0.00255653
4580.91751099,0.00250978
4582.84631836,0.00247416
4584.77512573,0.00248882
4586.70393311,0.00251320
4588.63274048,0.00253639
4590.56154785,0.00250955
4592.49035522,0.00247258
4594.41916260,0.00242602
4596.34796997,0.00245146
4598.27677734,0.00251356
4600.20558472,0.00247708
4602.13439209,0.00244558
4604.06319946,0.00243629
4605.99200684,0.00246440
4607.92081421,0.00239163
4609.84962158,0.00233504
4611.77842895,0.00242811
4613.70723633,0.00240655
4615.63604370,0.00239224
4617.56485107,0.00241013
4619.49365845,0.00240556
4621.42246582,0.00238338
4623.35127319,0.00230952
4625.28008057,0.00234009
4627.20888794,0.00236678
4629.13769531,0.00233971
4631.06650269,0.00235933
4632.99531006,0.00239166
4634.92411743,0.00237827
4636.85292480,0.00235274
4638.78173218,0.00235468
4640.71053955,0.00229822
4642.63934692,0.00230878
4644.56815430,0.00237145
4646.49696167,0.00233935
4648.42576904,0.00233383
4650.35457642,0.00233741
4652.28338379,0.00232052
4654.21219116,0.00228157
4656.14099853,0.00223799
4658.06980591,0.00227292
4659.99861328,0.00228451
4661.92742065,0.00228514
4663.85622803,0.00230841
4665.78503540,0.00227612
4667.71384277,0.00219791
4669.64265015,0.00222779
4671.57145752,0.00232256
4673.50026489,0.00221243
4675.42907227,0.00216747
4677.35787964,0.00223136
4679.28668701,0.00220801
4681.21549438,0.00221979
4683.14430176,0.00217221
4685.07310913,0.00219098
4687.00191650,0.00218033
4688.93072388,0.00211744
4690.85953125,0.00216815
4692.78833862,0.00213856
4694.71714600,0.00218811
4696.64595337,0.00219796
4698.57476074,0.00212325
4700.50356812,0.00215538
4702.43237549,0.00213575
4704.36118286,0.00209024
4706.28999023,0.00207989
4708.21879761,0.00212383
4710.14760498,0.00208770
4712.07641235,0.00206055
4714.00521973,0.00212955
4715.93402710,0.00211990
4717.86283447,0.00213034
4719.79164185,0.00209516
4721.72044922,0.00206368
4723.64925659,0.00211563
4725.57806396,0.00210339
4727.50687134,0.00207126
4729.43567871,0.00202657
4731.36448608,0.00201145
4733.29329346,0.00208033
4735.22210083,0.00209642
4737.15090820,0.00207209
4739.07971558,0.00209915
4741.00852295,0.00207698
4742.93733032,0.00204665
4744.86613770,0.00203710
4746.79494507,0.00203965
4748.72375244,0.00204372
4750.65255981,0.00198620
4752.58136719,0.00202970
4754.51017456,0.00207215
4756.43898193,0.00202435
4758.36778931,0.00199758
4760.29659668,0.00199703
4762.22540405,0.00200963
4764.15421143,0.00197553
4766.08301880,0.00197056
4768.01182617,0.00196959
4769.94063354,0.00194015
4771.86944092,0.00189988
4773.79824829,0.00197729
4775.72705566,0.00205476
4777.65586304,0.00192132
4779.58467041,0.00190773
4781.51347778,0.00188041
4783.44228516,0.00184565
4785.37109253,0.00194095
4787.29989990,0.00193396
4789.22870728,0.00195045
4791.15751465,0.00196100
4793.08632202,0.00195832
4795.01512939,0.00190903
4796.94393677,0.00188400
4798.87274414,0.00189515
4800.80155151,0.00179814
4802.73035889,0.00185582
4804.65916626,0.00187977
4806.58797363,0.00179678
4808.51678101,0.00182383
4810.44558838,0.00183062
4812.37439575,0.00181288
4814.30320312,0.00181170
4816.23201050,0.00185279
4818.16081787,0.00187712
4820.08962524,0.00180997
4822.01843262,0.00180738
4823.94723999,0.00187620
4825.87604736,0.00181007
4827.80485474,0.00180377
4829.73366211,0.00184655
4831.66246948,0.00177404
4833.59127686,0.00182570
4835.52008423,0.00185247
4837.44889160,0.00183313
4839.37769897,0.00183616
4841.30650635,0.00179470
4843.23531372,0.00183377
4845.16412109,0.00184956
4847.09292847,0.00176770
4849.02173584,0.00171023
4850.95054321,0.00181315
4852.87935059,0.00179632
4854.80815796,0.00166870
4856.73696533,0.00169941
4858.66577270,0.00167354
4860.59458008,0.00168962
4862.52338745,0.00176396
4864.45219482,0.00175831
4866.38100220,0.00172351
4868.30980957,0.00171815
4870.23861694,0.00169636
4872.16742432,0.00164128
4874.09623169,0.00169985
4876.02503906,0.00168669
4877.95384644,0.00167496
4879.88265381,0.00172327
4881.81146118,0.00167787
4883.74026855,0.00163634
4885.66907593,0.00161490
4887.59788330,0.00165306
4889.52669067,0.00162405
4891.45549805,0.00161751
4893.38430542,0.00166568
4895.31311279,0.00164585
4897.24192017,0.00166720
4899.17072754,0.00164700
4901.09953491,0.00165079
4903.02834228,0.00163972
4904.95714966,0.00162730
4906.88595703,0.00166058
4908.81476440,0.00158650
4910.74357178,0.00157073
4912.67237915,0.00161672
4914.60118652,0.00162272
4916.52999390,0.00161209
4918.45880127,0.00154941
4920.38760864,0.00149005
4922.31641602,0.00151391
4924.24522339,0.00154732
4926.17403076,0.00158611
4928.10283813,0.00156697
4930.03164551,0.00145968
4931.96045288,0.00153768
4933.88926025,0.00155742
4935.81806763,0.00146703
4937.74687500,0.00153783
4939.67568237,0.00156350
4941.60448975,0.00152002
4943.53329712,0.00149765
4945.46210449,0.00155888
4947.39091187,0.00152940
4949.31971924,0.00149988
4951.24852661,0.00159852
4953.17733398,0.00151140
4955.10614136,0.00148664
4957.03494873,0.00151495
4958.96375610,0.00146627
4960.89256348,0.00146954
4962.82137085,0.00146990
4964.75017822,0.00153571
4966.67898560,0.00151380
4968.60779297,0.00150358
4970.53660034,0.00155173
4972.46540771,0.00148361
4974.39421509,0.00148182
4976.32302246,0.00152435
4978.25182983,0.00151130
4980.18063721,0.00146912
4982.10944458,0.00142479
4984.03825195,0.00140610
4985.96705933,0.00143339
4987.89586670,0.00148006
4989.82467407,0.00147211
4991.75348145,0.00144414
4993.68228882,0.00145358
4995.61109619,0.00143266
4997.53990356,0.00133783
4999.46871094,0.00136296
5001.39751831,0.00145011
5003.32632568,0.00141322
5005.25513306,0.00136411
5007.18394043,0.00137864
5009.11274780,0.00143565
5011.04155518,0.00143564
5012.97036255,0.00143508
5014.89916992,0.00140580
5016.82797729,0.00133701
5018.75678467,0.00143004
5020.68559204,0.00143168
5022.61439941,0.00132298
5024.54320679,0.00140788
5026.47201416,0.00147658
5028.40082153,0.00137205
5030.32962891,0.00135428
5032.25843628,0.00139507
5034.18724365,0.00128973
5036.11605103,0.00127628
5038.04485840,0.00132484
5039.97366577,0.00128932
5041.90247314,0.00136776
5043.83128052,0.00140581
5045.76008789,0.00131045
5047.68889526,0.00133018
5049.61770264,0.00133861
5051.54651001,0.00123304
5053.47531738,0.00131695
5055.40412476,0.00137632
5057.33293213,0.00129618
5059.26173950,0.00133779
5061.19054687,0.00130071
5063.11935425,0.00131902
5065.04816162,0.00131373
5066.97696899,0.00117143
5068.90577637,0.00126307
5070.83458374,0.00132744
5072.76339111,0.00130545
5074.69219849,0.00130332
5076.62100586,0.00125148
5078.54981323,0.00122962
5080.47862061,0.00122772
5082.40742798,0.00127465
5084.33623535,0.00121093
5086.26504272,0.00122112
5088.19385010,0.00130590
5090.12265747,0.00118308
5092.05146484,0.00118372
5093.98027222,0.00125412
5095.90907959,0.00122399
5097.83788696,0.00122311
5099.76669434,0.00123034
5101.69550171,0.00123530
5103.62430908,0.00120168
5105.55311645,0.00115999
5107.48192383,0.00117493
5109.41073120,0.00121657
5111.33953857,0.00122271
5113.26834595,0.00121267
5115.19715332,0.00119002
5117.12596069,0.00117170
5119.05476807,0.00118381
5120.98357544,0.00119924
5122.91238281,0.00118247
5124.84119019,0.00114993
5126.76999756,0.00124182
5128.69880493,0.00122337
5130.62761230,0.00110807
5132.55641968,0.00118294
5134.48522705,0.00120830
5136.41403442,0.00118892
5138.34284180,0.00118185
5140.27164917,0.00113906
5142.20045654,0.00112765
5144.12926392,0.00111164
5146.05807129,0.00113761
5147.98687866,0.00118668
5149.91568603,0.00113380
5151.84449341,0.00107219
5153.77330078,0.00115672
5155.70210815,0.00113273
5157.63091553,0.00111196
5159.55972290,0.00115880
5161.48853027,0.00106021
5163.41733765,0.00115239
5165.34614502,0.00118534
5167.27495239,0.00111063
5169.20375977,0.00113653
5171.13256714,0.00105338
5173.06137451,0.00106110
5174.99018188,0.00104780
5176.91898926,0.00106474
5178.84779663,0.00114961
5180.77660400,0.00111124
5182.70541138,0.00106974
5184.63421875,0.00097155
5186.56302612,0.00102368
5188.49183350,0.00110789
5190.42064087,0.00102622
5192.34944824,0.00104801
5194.27825562,0.00105020
5196.20706299,0.00102460
5198.13587036,0.00107736
5200.06467773,0.00106748
5201.99348511,0.00106185
5203.92229248,0.00107516
5205.85109985,0.00100610
5207.77990723,0.00101243
5209.70871460,0.00102961
5211.63752197,0.00099170
5213.56632935,0.00105610
5215.49513672,0.00103824
5217.42394409,0.00100292
5219.35275146,0.00106924
5221.28155884,0.00106257
5223.21036621,0.00100615
5225.13917358,0.00097335
5227.06798096,0.00103865
5228.99678833,0.00107142
5230.92559570,0.00099074
5232.85440308,0.00098232
5234.78321045,0.00106710
5236.71201782,0.00111067
5238.64082520,0.00101748
5240.56963257,0.00098276
5242.49843994,0.00101126
5244.42724731,0.00096964
5246.35605469,0.00101116
5248.28486206,0.00099487
5250.21366943,0.00094148
5252.14247681,0.00097289
5254.07128418,0.00096278
5256.00009155,0.00094695
5257.92889893,0.00096805
5259.85770630,0.00105990
5261.78651367,0.00097251
5263.71532104,0.00091191
5265.64412842,0.00103649
5267.57293579,0.00095158
5269.50174316,0.00097403
5271.43055054,0.00097930
5273.35935791,0.00093409
5275.28816528,0.00100773
5277.21697266,0.00090288
5279.14578003,0.00091355
5281.07458740,0.00095918
5283.00339478,0.00100803
5284.93220215,0.00102149
5286.86100952,0.00089685
5288.78981689,0.00091703
5290.71862427,0.00091980
5292.64743164,0.00094084
5294.57623901,0.00092163
5296.50504639,0.00092092
5298.43385376,0.00091866
5300.36266113,0.00080676
5302.29146851,0.00089404
5304.22027588,0.00095350
5306.14908325,0.00094775
5308.07789062,0.00089168
5310.00669800,0.00085041
5311.93550537,0.00093880
5313.86431274,0.00094032
5315.79312012,0.00091773
5317.72192749,0.00086133
5319.65073486,0.00091077
5321.57954224,0.00099019
5323.50834961,0.00095042
5325.43715698,0.00090132
5327.36596436,0.00081156
5329.29477173,0.00077919
5331.22357910,0.00085662
5333.15238647,0.00095574
5335.08119385,0.00090054
5337.01000122,0.00083979
5338.93880859,0.00082078
5340.86761597,0.00087425
5342.79642334,0.00096281
5344.72523071,0.00077555
5346.65403809,0.00076933
5348.58284546,0.00090384
5350.51165283,0.00089438
5352.44046020,0.00088080
5354.36926758,0.00080789
5356.29807495,0.00085879
5358.22688232,0.00089679
5360.15568970,0.00085691
5362.08449707,0.00081912
5364.01330444,0.00078013
5365.94211182,0.00084068
5367.87091919,0.00087159
5369.79972656,0.00085532
5371.72853394,0.00083542
5373.65734131,0.00078187
5375.58614868,0.00078448
5377.51495605,0.00086122
5379.44376343,0.00080786
5381.37257080,0.00077982
5383.30137817,0.00086825
5385.23018555,0.00083212
5387.15899292,0.00082599
5389.08780029,0.00091931
5391.01660767,0.00087719
5392.94541504,0.00072558
5394.87422241,0.00077293
5396.80302978,0.00082138
5398.73183716,0.00079741
5400.66064453,0.00077335
5402.58945190,0.00068352
5404.51825928,0.00081115
5406.44706665,0.00079888
5408.37587402,0.00082584
5410.30468140,0.00090582
5412.23348877,0.00065593
5414.16229614,0.00071379
5416.09110352,0.00079352
5418.01991089,0.00074911
5419.94871826,0.00077173
5421.87752563,0.00074557
5423.80633301,0.00079773
5425.73514038,0.00077936
5427.66394775,0.00078642
5429.59275513,0.00070169
5431.52156250,0.00071785
5433.45036987,0.00081543
5435.37917725,0.00070028
5437.30798462,0.00077192
5439.23679199,0.00076107
5441.16559936,0.00064821
5443.09440674,0.00071081
5445.02321411,0.00073147
5446.95202148,0.00069206
5448.88082886,0.00067312
5450.80963623,0.00072862
5452.73844360,0.00075059
5454.66725098,0.00075780
5456.59605835,0.00074259
5458.52486572,0.00071647
5460.45367310,0.00076412
5462.38248047,0.00074779
5464.31128784,0.00071678
5466.24009521,0.00068633
5468.16890259,0.00067809
5470.09770996,0.00069309
5472.02651733,0.00067283
5473.95532471,0.00071595
5475.88413208,0.00068699
5477.81293945,0.00073683
5479.74174683,0.00085112
5481.67055420,0.00070398
5483.59936157,0.00064715
5485.52816895,0.00064297
5487.45697632,0.00061473
5489.38578369,0.00071484
5491.31459106,0.00069260
5493.24339844,0.00072158
5495.17220581,0.00072007
5497.10101318,0.00063379
5499.02982056,0.00067411
5500.95862793,0.00070509
5502.88743530,0.00071803
5504.81624268,0.00067417
5506.74505005,0.00072870
5508.67385742,0.00073889
5510.60266479,0.00061529
5512.53147217,0.00070193
5514.46027954,0.00072146
5516.38908691,0.00063654
5518.31789429,0.00068338
5520.24670166,0.00066438
5522.17550903,0.00062683
5524.10431641,0.00071485
5526.03312378,0.00066548
5527.96193115,0.00060978
5529.89073853,0.00066963
5531.81954590,0.00061663
5533.74835327,0.00067017
5535.67716064,0.00066690
5537.60596802,0.00061927
5539.53477539,0.00064006
5541.46358276,0.00056387
5543.39239014,0.00065189
5545.32119751,0.00064454
5547.25000488,0.00059313
5549.17881226,0.00066541
5551.10761963,0.00060775
5553.03642700,0.00058716
5554.96523437,0.00060487
5556.89404175,0.00062370
5558.82284912,0.00057347
5560.75165649,0.00058419
5562.68046387,0.00068171
5564.60927124,0.00061082
5566.53807861,0.00063518
5568.46688599,0.00063437
5570.39569336,0.00054744
5572.32450073,0.00063821
5574.25330811,0.00057909
5576.18211548,0.00053633
5578.11092285,0.00067838
5580.03973022,0.00062989
5581.96853760,0.00062897
5583.89734497,0.00065577
5585.82615234,0.00060118
5587.75495972,0.00068255
5589.68376709,0.00065886
5591.61257446,0.00057317
5593.54138184,0.00056008
5595.47018921,0.00058432
5597.39899658,0.00057261
5599.32780395,0.00052739
5601.25661133,0.00060651
5603.18541870,0.00060545
5605.11422607,0.00058570
5607.04303345,0.00062255
5608.97184082,0.00061415
5610.90064819,0.00060108
5612.82945557,0.00056501
5614.75826294,0.00056396
5616.68707031,0.00056011
5618.61587769,0.00065272
5620.54468506,0.00065846
5622.47349243,0.00050062
5624.40229980,0.00057392
5626.33110718,0.00064608
5628.25991455,0.00055252
5630.18872192,0.00054496
5632.11752930,0.00058567
5634.04633667,0.00057206
5635.97514404,0.00056132
5637.90395142,0.00057167
5639.83275879,0.00056519
5641.76156616,0.00051578
5643.69037353,0.00052187
5645.61918091,0.00058779
5647.54798828,0.00054523
5649.47679565,0.00055344
5651.40560303,0.00056567
5653.33441040,0.00053882
5655.26321777,0.00059648
5657.19202515,0.00056368
5659.12083252,0.00056461
5661.04963989,0.00055431
5662.97844727,0.00049746
5664.90725464,0.00054983
5666.83606201,0.00051151
5668.76486938,0.00046425
5670.69367676,0.00053436
5672.62248413,0.00055525
5674.55129150,0.00052172
5676.48009888,0.00051196
5678.40890625,0.00048319
5680.33771362,0.00048811
5682.26652100,0.00055079
5684.19532837,0.00055021
5686.12413574,0.00052573
5688.05294311,0.00049861
5689.98175049,0.00044160
5691.91055786,0.00050686
5693.83936523,0.00061508
5695.76817261,0.00055606
5697.69697998,0.00049583
5699.62578735,0.00046486
5701.55459473,0.00046360
5703.48340210,0.00047305
5705.41220947,0.00046696
5707.34101685,0.00054818
5709.26982422,0.00043650
5711.19863159,0.00047061
5713.12743896,0.00060041
5715.05624634,0.00047057
5716.98505371,0.00055368
5718.91386108,0.00049842
5720.84266846,0.00045846
5722.77147583,0.00055308
5724.70028320,0.00042908
5726.62909058,0.00050041
5728.55789795,0.00050275
5730.48670532,0.00051934
5732.41551270,0.00056573
5734.34432007,0.00042468
5736.27312744,0.00047912
5738.20193481,0.00047148
5740.13074219,0.00045039
5742.05954956,0.00046871
5743.98835693,0.00040745
5745.91716431,0.00047029
5747.84597168,0.00046036
5749.77477905,0.00048566
5751.70358643,0.00054296
5753.63239380,0.00047616
5755.56120117,0.00048465
5757.49000854,0.00046188
5759.41881592,0.00047467
5761.34762329,0.00052815
5763.27643066,0.00045742
5765.20523804,0.00043095
5767.13404541,0.00041634
5769.06285278,0.00043800
5770.99166016,0.00044131
5772.92046753,0.00041532
5774.84927490,0.00052180
5776.77808228,0.00050170
5778.70688965,0.00045111
5780.63569702,0.00046085
5782.56450439,0.00040823
5784.49331177,0.00044681
5786.42211914,0.00049184
5788.35092651,0.00048169
5790.27973389,0.00048231
5792.20854126,0.00046149
5794.13734863,0.00042321
5796.06615601,0.00046822
5797.99496338,0.00041309
5799.92377075,0.00032571
5801.85257812,0.00044486
5803.78138550,0.00046873
5805.71019287,0.00047015
5807.63900024,0.00041904
5809.56780762,0.00036934
5811.49661499,0.00047742
5813.42542236,0.00044726
5815.35422974,0.00045756
5817.28303711,0.00041774
5819.21184448,0.00036690
5821.14065186,0.00042428
5823.06945923,0.00042965
5824.99826660,0.00053503
5826.92707397,0.00046192
5828.85588135,0.00039162
5830.78468872,0.00048035
5832.71349609,0.00042763
5834.64230347,0.00038836
5836.57111084,0.00035450
5838.49991821,0.00039458
5840.42872559,0.00046861
5842.35753296,0.00044532
5844.28634033,0.00043147
5846.21514770,0.00041923
5848.14395508,0.00041889
5850.07276245,0.00040876
5852.00156982,0.00039920
5853.93037720,0.00038444
5855.85918457,0.00039921
5857.78799194,0.00044463
5859.71679932,0.00040383
5861.64560669,0.00036374
5863.57441406,0.00038132
5865.50322144,0.00040208
5867.43202881,0.00040488
5869.36083618,0.00041806
5871.28964355,0.00038199
5873.21845093,0.00036143
5875.14725830,0.00044970
5877.07606567,0.00041854
5879.00487305,0.00039851
5880.93368042,0.00042259
5882.86248779,0.00037226
5884.79129517,0.00042551
5886.72010254,0.00041247
5888.64890991,0.00037866
5890.57771728,0.00037007
5892.50652466,0.00035715
5894.43533203,0.00042632
5896.36413940,0.00038537
5898.29294678,0.00041236
5900.22175415,0.00041623
5902.15056152,0.00035993
5904.07936890,0.00040661
5906.00817627,0.00035209
5907.93698364,0.00036497
5909.86579102,0.00036050
5911.79459839,0.00036951
5913.72340576,0.00042004
5915.65221313,0.00034783
5917.58102051,0.00036931
5919.50982788,0.00036279
5921.43863525,0.00039559
5923.36744263,0.00041419
5925.29625000,0.00036693
5927.22505737,0.00041887
5929.15386475,0.00034236
5931.08267212,0.00033015
5933.01147949,0.00040247
5934.94028686,0.00035807
5936.86909424,0.00032230
5938.79790161,0.00032438
5940.72670898,0.00035892
5942.65551636,0.00039079
5944.58432373,0.00038048
5946.51313110,0.00036495
5948.44193848,0.00039552
5950.37074585,0.00037153
5952.29955322,0.00036460
5954.22836060,0.00038847
5956.15716797,0.00033923
5958.08597534,0.00032255
5960.01478271,0.00030548
5961.94359009,0.00032894
5963.87239746,0.00035177
5965.80120483,0.00035039
5967.73001221,0.00036953
5969.65881958,0.00034213
5971.58762695,0.00033706
5973.51643433,0.00035167
5975.44524170,0.00035668
5977.37404907,0.00030517
5979.30285645,0.00032463
5981.23166382,0.00039576
5983.16047119,0.00037662
5985.08927856,0.00031490
5987.01808594,0.00024111
5988.94689331,0.00035473
5990.87570068,0.00041505
5992.80450806,0.00034433
5994.73331543,0.00034770
5996.66212280,0.00030800
5998.59093018,0.00033200
6000.51973755,0.00036657
