399.26312622,0.00320153
401.19193359,0.00294496
403.12074097,0.00340576
405.04954834,0.00350406
406.97835571,0.00339905
408.90716309,0.00387286
410.83597046,0.00363278
412.76477783,0.00403184
414.69358521,0.00401769
416.62239258,0.00409793
418.55119995,0.00432009
420.48000732,0.00428056
422.40881470,0.00465997
424.33762207,0.00443926
426.26642944,0.00469566
428.19523682,0.00485241
430.12404419,0.00446263
432.05285156,0.00485629
433.98165894,0.00506362
435.91046631,0.00466284
437.83927368,0.00492681
439.76808105,0.00465119
441.69688843,0.00394257
443.62569580,0.00442114
445.55450317,0.00380477
447.48331055,0.00333916
449.41211792,0.00379534
451.34092529,0.00361908
453.26973267,0.00410043
455.19854004,0.00380708
457.12734741,0.00284103
459.05615479,0.00278538
460.98496216,0.00281415
462.91376953,0.00258759
464.84257690,0.00224754
466.77138428,0.00195249
468.70019165,0.00207024
470.62899902,0.00222570
472.55780640,0.00209417
474.48661377,0.00184620
476.41542114,0.00129721
478.34422852,0.00154904
480.27303589,0.00166141
482.20184326,0.00122920
484.13065063,0.00135283
486.05945801,0.00109594
487.98826538,0.00095022
489.91707275,0.00060442
491.84588013,0.00076609
493.77468750,0.00113265
495.70349487,0.00044564
497.63230225,0.00058644
499.56110962,0.00095981
501.48991699,0.00095285
503.41872437,0.00074432
505.34753174,0.00074864
507.27633911,0.00062208
509.20514648,-0.00001996
511.13395386,0.00046758
513.06276123,0.00054965
514.99156860,0.00050713
516.92037598,0.00066474
518.84918335,0.00016408
520.77799072,0.00060971
522.70679810,0.00029006
524.63560547,-0.00003015
526.56441284,0.00041238
528.49322021,0.00014029
530.42202759,0.00009563
532.35083496,0.00008331
534.27964233,0.00053011
536.20844971,0.00044087
538.13725708,0.00010701
540.06606445,0.00072172
541.99487183,0.00044515
543.92367920,0.00017646
545.85248657,0.00047452
547.78129395,0.00018171
549.71010132,0.00002610
551.63890869,0.00019585
553.56771606,0.00023119
555.49652344,0.00023403
557.42533081,0.00024375
559.35413818,0.00057483
561.28294556,0.00056226
563.21175293,0.00015143
565.14056030,0.00029724
567.06936768,0.00015248
568.99817505,0.00009806
570.92698242,0.00003819
572.85578979,-0.00006470
574.78459717,0.00006337
576.71340454,0.00003707
578.64221191,0.00036230
580.57101929,0.00009033
582.49982666,0.00012611
584.42863403,0.00026000
586.35744141,0.00009704
588.28624878,0.00025502
590.21505615,-0.00000078
592.14386353,0.00052486
594.07267090,0.00026018
596.00147827,-0.00032629
597.93028564,0.00013289
599.85909302,0.00024102
601.78790039,0.00023104
603.71670776,0.00033541
605.64551514,0.00019148
607.57432251,0.00006717
609.50312988,0.00032141
611.43193726,-0.00040311
613.36074463,-0.00027975
615.28955200,0.00022803
617.21835938,0.00002660
619.14716675,0.00015602
621.07597412,-0.00022594
623.00478149,0.00007702
624.93358887,0.00035456
626.86239624,0.00008612
628.79120361,-0.00000624
630.72001099,0.00035880
632.64881836,0.00154063
634.57762573,0.00248689
636.50643311,0.00308227
638.43524048,0.00336041
640.36404785,0.00361604
642.29285522,0.00394859
644.22166260,0.00461499
646.15046997,0.00512188
648.07927734,0.00511311
650.00808472,0.00521722
651.93689209,0.00516900
653.86569946,0.00607679
655.79450684,0.00611776
657.72331421,0.00586623
659.65212158,0.00666798
661.58092896,0.00616453
663.50973633,0.00714309
665.43854370,0.00752140
667.36735107,0.00603603
669.29615845,0.00711301
671.22496582,0.00800023
673.15377319,0.00807172
675.08258057,0.00866963
677.01138794,0.00847872
678.94019531,0.00868063
680.86900269,0.00906708
682.79781006,0.00866931
684.72661743,0.00869348
686.65542480,0.00894340
688.58423218,0.00879432
690.51303955,0.00920075
692.44184692,0.00981492
694.37065430,0.01046423
696.29946167,0.01172131
698.22826904,0.01332354
700.15707642,0.01427323
702.08588379,0.01358204
704.01469116,0.01280962
705.94349854,0.01179748
707.87230591,0.00966471
709.80111328,0.00784368
711.72992065,0.00558103
713.65872803,0.00351534
715.58753540,0.00228837
717.51634277,0.00116483
719.44515015,0.00121373
721.37395752,0.00108920
723.30276489,0.00041566
725.23157227,0.00034042
727.16037964,0.00005257
729.08918701,0.00013440
731.01799438,0.00057799
732.94680176,0.00027119
734.87560913,0.00017706
736.80441650,0.00049000
738.73322388,0.00024528
740.66203125,0.00016200
742.59083862,0.00012413
744.51964600,0.00005898
746.44845337,0.00030221
748.37726074,0.00011322
750.30606812,0.00029809
752.23487549,0.00027419
754.16368286,0.00000214
756.09249023,0.00053283
758.02129761,0.00054283
759.95010498,0.00052083
761.87891235,0.00069713
763.80771973,0.00046882
765.73652710,0.00061005
767.66533447,0.00081027
769.59414185,0.00051238
771.52294922,0.00046573
773.45175659,0.00092324
775.38056396,0.00099677
777.30937134,0.00083757
779.23817871,0.00066499
781.16698608,0.00065446
783.09579346,0.00073195
785.02460083,0.00081398
786.95340820,0.00119619
788.88221558,0.00094670
790.81102295,0.00075949
792.73983032,0.00104521
794.66863770,0.00091602
796.59744507,0.00117535
798.52625244,0.00196690
800.45505981,0.00224559
802.38386719,0.00199214
804.31267456,0.00170790
806.24148193,0.00113396
808.17028931,0.00092157
810.09909668,0.00106611
812.02790405,0.00094019
813.95671143,0.00107576
815.88551880,0.00103449
817.81432617,0.00086857
819.74313354,0.00085497
821.67194092,0.00084627
823.60074829,0.00107283
825.52955566,0.00103970
827.45836304,0.00115752
829.38717041,0.00176273
831.31597778,0.00189343
833.24478516,0.00236246
835.17359253,0.00311997
837.10239990,0.00303036
839.03120728,0.00307847
840.96001465,0.00283251
842.88882202,0.00252303
844.81762939,0.00263974
846.74643677,0.00230320
848.67524414,0.00220010
850.60405151,0.00184073
852.53285889,0.00191977
854.46166626,0.00226805
856.39047363,0.00148521
858.31928101,0.00114434
860.24808838,0.00114815
862.17689575,0.00108763
864.10570313,0.00083759
866.03451050,0.00062647
867.96331787,0.00087167
869.89212524,0.00063771
871.82093262,0.00076473
873.74973999,0.00106297
875.67854736,0.00057571
877.60735474,0.00047393
879.53616211,0.00088600
881.46496948,0.00063030
883.39377686,0.00048207
885.32258423,0.00076793
887.25139160,0.00045287
889.18019897,0.00048151
891.10900635,0.00079066
893.03781372,0.00076542
894.96662109,0.00086396
896.89542847,0.00084701
898.82423584,0.00072130
900.75304321,0.00071175
902.68185059,0.00094357
904.61065796,0.00103394
906.53946533,0.00087653
908.46827271,0.00084475
910.39708008,0.00105600
912.32588745,0.00140623
914.25469482,0.00142083
916.18350220,0.00145258
918.11230957,0.00175419
920.04111694,0.00190361
921.96992432,0.00219167
923.89873169,0.00253901
925.82753906,0.00259890
927.75634644,0.00288906
929.68515381,0.00317491
931.61396118,0.00300453
933.54276855,0.00313922
935.47157593,0.00365221
937.40038330,0.00394964
939.32919067,0.00405992
941.25799805,0.00419763
943.18680542,0.00441870
945.11561279,0.00453208
947.04442017,0.00435876
948.97322754,0.00429693
950.90203491,0.00440408
952.83084229,0.00424680
954.75964966,0.00412482
956.68845703,0.00404023
958.61726440,0.00401152
960.54607178,0.00429159
962.47487915,0.00429255
964.40368652,0.00422054
966.33249390,0.00445949
968.26130127,0.00457183
970.19010864,0.00474595
972.11891602,0.00502537
974.04772339,0.00527925
975.97653076,0.00574982
977.90533813,0.00628817
979.83414551,0.00697714
981.76295288,0.00762063
983.69176025,0.00812163
985.62056763,0.00899341
987.54937500,0.01009280
989.47818237,0.01133632
991.40698975,0.01261886
993.33579712,0.01393528
995.26460449,0.01515300
997.19341187,0.01618088
999.12221924,0.01753002
1001.05102661,0.01879488
1002.97983398,0.02005111
1004.90864136,0.02157649
1006.83744873,0.02302341
1008.76625610,0.02457390
1010.69506348,0.02594965
1012.62387085,0.02702079
1014.55267822,0.02839605
1016.48148560,0.02998135
1018.41029297,0.03152536
1020.33910034,0.03305357
1022.26790771,0.03415568
1024.19671509,0.03541318
1026.12552246,0.03685373
1028.05432983,0.03804212
1029.98313721,0.03925342
1031.91194458,0.04008806
1033.84075195,0.04102047
1035.76955933,0.04168830
1037.69836670,0.04202031
1039.62717407,0.04231814
1041.55598145,0.04201752
1043.48478882,0.04171453
1045.41359619,0.04126113
1047.34240356,0.04088875
1049.27121094,0.04037045
1051.20001831,0.03969415
1053.12882568,0.03886604
1055.05763306,0.03768568
1056.98644043,0.03712831
1058.91524780,0.03606983
1060.84405518,0.03514754
1062.77286255,0.03424346
1064.70166992,0.03279781
1066.63047729,0.03190826
1068.55928467,0.03047318
1070.48809204,0.02920992
1072.41689941,0.02784978
1074.34570679,0.02623103
1076.27451416,0.02525013
1078.20332153,0.02414608
1080.13212891,0.02295589
1082.06093628,0.02177462
1083.98974365,0.02080641
1085.91855103,0.01978340
1087.84735840,0.01894994
1089.77616577,0.01808706
1091.70497314,0.01725910
1093.63378052,0.01678161
1095.56258789,0.01602691
1097.49139526,0.01548897
1099.42020264,0.01497206
1101.34901001,0.01473407
1103.27781738,0.01438144
1105.20662476,0.01410097
1107.13543213,0.01401684
1109.06423950,0.01337012
1110.99304687,0.01338314
1112.92185425,0.01324692
1114.85066162,0.01308007
1116.77946899,0.01318115
1118.70827637,0.01313523
1120.63708374,0.01332462
1122.56589111,0.01310161
1124.49469849,0.01325268
1126.42350586,0.01350233
1128.35231323,0.01374388
1130.28112061,0.01432947
1132.20992798,0.01463111
1134.13873535,0.01491750
1136.06754272,0.01558466
1137.99635010,0.01651738
1139.92515747,0.01735997
1141.85396484,0.01859328
1143.78277222,0.01963061
1145.71157959,0.02081241
1147.64038696,0.02247634
1149.56919434,0.02346411
1151.49800171,0.02460069
1153.42680908,0.02569734
1155.35561646,0.02666399
1157.28442383,0.02813541
1159.21323120,0.02918691
1161.14203857,0.03009854
1163.07084595,0.03141821
1164.99965332,0.03244933
1166.92846069,0.03360759
1168.85726807,0.03499829
1170.78607544,0.03619451
1172.71488281,0.03755775
1174.64369019,0.03886486
1176.57249756,0.04053446
1178.50130493,0.04206115
1180.43011230,0.04347555
1182.35891968,0.04553579
1184.28772705,0.04745140
1186.21653442,0.04942185
1188.14534180,0.05156159
1190.07414917,0.05414359
1192.00295654,0.05648921
1193.93176392,0.05897137
1195.86057129,0.06211267
1197.78937866,0.06465222
1199.71818604,0.06775165
1201.64699341,0.07074596
1203.57580078,0.07342348
1205.50460815,0.07633285
1207.43341553,0.07885310
1209.36222290,0.08172365
1211.29103027,0.08413272
1213.21983765,0.08630647
1215.14864502,0.08861990
1217.07745239,0.09051070
1219.00625977,0.09204967
1220.93506714,0.09335861
1222.86387451,0.09467851
1224.79268188,0.09548278
1226.72148926,0.09596576
1228.65029663,0.09657494
1230.57910400,0.09716457
1232.50791138,0.09729929
1234.43671875,0.09733031
1236.36552612,0.09748459
1238.29433350,0.09719898
1240.22314087,0.09672353
1242.15194824,0.09619926
1244.08075562,0.09600212
1246.00956299,0.09563635
1247.93837036,0.09483494
1249.86717773,0.09437193
1251.79598511,0.09370904
1253.72479248,0.09263276
1255.65359985,0.09161260
1257.58240723,0.09042077
1259.51121460,0.08879216
1261.44002197,0.08739219
1263.36882935,0.08639292
1265.29763672,0.08521795
1267.22644409,0.08403420
1269.15525146,0.08316058
1271.08405884,0.08187807
1273.01286621,0.08021584
1274.94167358,0.07902712
1276.87048096,0.07758173
1278.79928833,0.07593469
1280.72809570,0.07451352
1282.65690308,0.07299522
1284.58571045,0.07156198
1286.51451782,0.07021015
1288.44332520,0.06888999
1290.37213257,0.06795898
1292.30093994,0.06754698
1294.22974731,0.06692766
1296.15855469,0.06654368
1298.08736206,0.06628922
1300.01616943,0.06621045
1301.94497681,0.06691004
1303.87378418,0.06732126
1305.80259155,0.06788972
1307.73139893,0.06874627
1309.66020630,0.07003573
1311.58901367,0.07111163
1313.51782104,0.07206526
1315.44662842,0.07430030
1317.37543579,0.07572831
1319.30424316,0.07749388
1321.23305054,0.08030468
1323.16185791,0.08266240
1325.09066528,0.08525208
1327.01947266,0.08747654
1328.94828003,0.08958954
1330.87708740,0.09188894
1332.80589478,0.09408762
1334.73470215,0.09583737
1336.66350952,0.09661505
1338.59231689,0.09581941
1340.52112427,0.09706540
1342.44993164,0.10108647
1344.37873901,0.10161566
1346.30754639,0.10152270
1348.23635376,0.10152656
1350.16516113,0.10051043
1352.09396851,0.10062468
1354.02277588,0.09913334
1355.95158325,0.09855506
1357.88039062,0.09800100
1359.80919800,0.09615007
1361.73800537,0.09207295
1363.66681274,0.09045287
1365.59562012,0.09526976
1367.52442749,0.09303257
1369.45323486,0.09201965
1371.38204224,0.09361734
1373.31084961,0.08822328
1375.23965698,0.08900250
1377.16846436,0.09127040
1379.09727173,0.09108011
1381.02607910,0.09097828
1382.95488647,0.09076446
1384.88369385,0.09099826
1386.81250122,0.08644161
1388.74130859,0.08783291
1390.67011597,0.09530263
1392.59892334,0.09252412
1394.52773071,0.08640493
1396.45653809,0.09107129
1398.38534546,0.09090041
1400.31415283,0.09022573
1402.24296021,0.09767011
1404.17176758,0.09195228
1406.10057495,0.09271145
1408.02938232,0.09659296
1409.95818970,0.09294227
1411.88699707,0.09493284
1413.81580444,0.09138428
1415.74461182,0.09311920
1417.67341919,0.08373474
1419.60222656,0.07466839
1421.53103394,0.08653844
1423.45984131,0.08379038
1425.38864868,0.08132844
1427.31745605,0.08253351
1429.24626343,0.07596102
1431.17507080,0.07380491
1433.10387817,0.07496396
1435.03268555,0.06796117
1436.96149292,0.05730315
1438.89030029,0.06563811
1440.81910767,0.06745368
1442.74791504,0.06233931
1444.67672241,0.06535213
1446.60552979,0.05978812
1448.53433716,0.06076121
1450.46314453,0.06288201
1452.39195190,0.06398135
1454.32075928,0.06634937
1456.24956665,0.05435515
1458.17837402,0.05669124
1460.10718140,0.07617195
1462.03598877,0.08121884
1463.96479614,0.08030219
1465.89360352,0.08351425
1467.82241089,0.09584688
1469.75121826,0.10308655
1471.68002563,0.09116420
1473.60883301,0.09639609
1475.53764038,0.11012572
1477.46644775,0.11848393
1479.39525513,0.13053143
1481.32406250,0.13237622
1483.25286987,0.14094862
1485.18167725,0.14529979
1487.11048462,0.14277171
1489.03929199,0.14186820
1490.96809937,0.14295915
1492.89690674,0.16715100
1494.82571411,0.16259706
1496.75452148,0.14608559
1498.68332886,0.16585672
1500.61213623,0.17117573
1502.54094360,0.18425551
1504.46975098,0.17309876
1506.39855835,0.12484255
1508.32736572,0.15411064
1510.25617310,0.18120098
1512.18498047,0.17522474
1514.11378784,0.19025072
1516.04259521,0.17097586
1517.97140259,0.17878179
1519.90020996,0.17221998
1521.82901733,0.14867112
1523.75782471,0.18329494
1525.68663208,0.17949237
1527.61543945,0.17907414
1529.54424683,0.19874559
1531.47305420,0.19043335
1533.40186157,0.17409647
1535.33066895,0.18525237
1537.25947632,0.19805008
1539.18828369,0.14006713
1541.11709106,0.14756420
1543.04589844,0.17751127
1544.97470581,0.17015222
1546.90351318,0.20224136
1548.83232056,0.18782611
1550.76112793,0.19436282
1552.68993530,0.19293863
1554.61874268,0.17479500
1556.54755005,0.18708292
1558.47635742,0.13031463
1560.40516479,0.14223489
1562.33397217,0.20352264
1564.26277954,0.19176646
1566.19158691,0.19767463
1568.12039429,0.19509041
1570.04920166,0.17245798
1571.97800903,0.20036860
1573.90681641,0.20197135
1575.83562378,0.15898696
1577.76443115,0.18114963
1579.69323853,0.20449039
1581.62204590,0.19568591
1583.55085327,0.20115934
1585.47966064,0.19794306
1587.40846802,0.19951880
1589.33727539,0.19742556
1591.26608276,0.19758649
1593.19489014,0.19769062
1595.12369751,0.19534232
1597.05250488,0.19822326
1598.98131226,0.19666563
1600.91011963,0.19792712
1602.83892700,0.19407254
1604.76773437,0.19768116
1606.69654175,0.19472858
1608.62534912,0.19406581
1610.55415649,0.19380531
1612.48296387,0.19523385
1614.41177124,0.19753730
1616.34057861,0.16028872
1618.26938599,0.17528830
1620.19819336,0.20410556
1622.12700073,0.17995808
1624.05580811,0.18149242
1625.98461548,0.19061321
1627.91342285,0.18950281
1629.84223022,0.18853870
1631.77103760,0.20180982
1633.69984497,0.18482792
1635.62865234,0.15167449
1637.55745972,0.17816558
1639.48626709,0.19609824
1641.41507446,0.19126309
1643.34388184,0.19648540
1645.27268921,0.17600621
1647.20149658,0.15439922
1649.13030396,0.19362846
1651.05911133,0.18200399
1652.98791870,0.11535438
1654.91672607,0.15968084
1656.84553345,0.20075506
1658.77434082,0.19185840
1660.70314819,0.19745091
1662.63195557,0.17871754
1664.56076294,0.18903142
1666.48957031,0.20320028
1668.41837769,0.17627048
1670.34718506,0.17155451
1672.27599243,0.19520673
1674.20479980,0.17918229
1676.13360718,0.17221192
1678.06241455,0.19889662
1679.99122192,0.19120419
1681.92002930,0.18881644
1683.84883667,0.15201569
1685.77764404,0.15175289
1687.70645142,0.20890561
1689.63525879,0.18014091
1691.56406616,0.19955944
1693.49287354,0.20214903
1695.42168091,0.14676213
1697.35048828,0.18236166
1699.27929565,0.15864761
1701.20810303,0.14348643
1703.13691040,0.19694467
1705.06571777,0.17965212
1706.99452515,0.18150769
1708.92333252,0.19744153
1710.85213989,0.18951935
1712.78094727,0.19278067
1714.70975464,0.17825300
1716.63856201,0.15935878
1718.56736938,0.15692154
1720.49617676,0.18727636
1722.42498413,0.19414328
1724.35379150,0.18013877
1726.28259888,0.19625035
1728.21140625,0.18043950
1730.14021362,0.18238528
1732.06902100,0.17675179
1733.99782837,0.13362095
1735.92663574,0.16811749
1737.85544312,0.18557289
1739.78425049,0.16481528
1741.71305786,0.18003882
1743.64186523,0.18234977
1745.57067261,0.18266009
1747.49947998,0.18406442
1749.42828735,0.17577451
1751.35709473,0.16819960
1753.28590210,0.18717059
1755.21470947,0.19527735
1757.14351685,0.17785971
1759.07232422,0.19624232
1761.00113159,0.18342635
1762.92993896,0.17749199
1764.85874634,0.20357680
1766.78755371,0.18248984
1768.71636108,0.18453318
1770.64516846,0.18259364
1772.57397583,0.16380340
1774.50278320,0.18390018
1776.43159058,0.19411510
1778.36039795,0.19125515
1780.28920532,0.18890004
1782.21801270,0.19036987
1784.14682007,0.19007923
1786.07562744,0.18623191
1788.00443481,0.19617109
1789.93324219,0.19064945
1791.86204956,0.17183495
1793.79085693,0.17991680
1795.71966431,0.19331089
1797.64847168,0.19066939
1799.57727905,0.18760826
1801.50608643,0.18414694
1803.43489380,0.19042113
1805.36370117,0.19455735
1807.29250854,0.19188933
1809.22131592,0.19246593
1811.15012329,0.18725681
1813.07893066,0.19328059
1815.00773804,0.19401723
1816.93654541,0.19186798
1818.86535278,0.19328237
1820.79416016,0.19261043
1822.72296753,0.19540623
1824.65177490,0.18200105
1826.58058228,0.18902385
1828.50938965,0.18897480
1830.43819702,0.17707428
1832.36700439,0.19335061
1834.29581177,0.19184250
1836.22461914,0.19178045
1838.15342651,0.19083789
1840.08223389,0.19212070
1842.01104126,0.19209802
1843.93984863,0.16971505
1845.86865601,0.18183608
1847.79746338,0.19180736
1849.72627075,0.18749887
1851.65507812,0.19328916
1853.58388550,0.18908826
1855.51269287,0.19108376
1857.44150024,0.18976872
1859.37030762,0.18867832
1861.29911499,0.18986690
1863.22792236,0.18753290
1865.15672974,0.18973169
1867.08553711,0.18285100
1869.01434448,0.17513847
1870.94315186,0.18257260
1872.87195923,0.18958338
1874.80076660,0.18635112
1876.72957397,0.18739584
1878.65838135,0.18670854
1880.58718872,0.18556325
1882.51599609,0.18714610
1884.44480347,0.18402085
1886.37361084,0.18683460
1888.30241821,0.18229239
1890.23122559,0.17873579
1892.16003296,0.18563624
1894.08884033,0.18269613
1896.01764771,0.18207654
1897.94645508,0.18420614
1899.87526245,0.18321098
1901.80406982,0.18350783
1903.73287720,0.18222749
1905.66168457,0.18302816
1907.59049194,0.18118076
1909.51929932,0.18006739
1911.44810669,0.18103755
1913.37691406,0.18128152
1915.30572144,0.18268341
1917.23452881,0.17442456
1919.16333618,0.17487493
1921.09214355,0.18154618
1923.02095093,0.17563543
1924.94975830,0.17933720
1926.87856567,0.18117350
1928.80737305,0.17876777
1930.73618042,0.18085763
1932.66498779,0.17839763
1934.59379517,0.18018532
1936.52260254,0.17869574
1938.45140991,0.17929602
1940.38021729,0.17904310
1942.30902466,0.17305855
1944.23783203,0.17665547
1946.16663940,0.17825516
1948.09544678,0.17784168
1950.02425415,0.17867881
1951.95306152,0.17811483
1953.88186890,0.17811714
1955.81067627,0.17713703
1957.73948364,0.17786688
1959.66829102,0.17740276
1961.59709839,0.17705238
1963.52590576,0.17752959
1965.45471313,0.17630225
1967.38352051,0.17446305
1969.31232788,0.17588806
1971.24113525,0.17709589
1973.16994263,0.17569509
1975.09875000,0.17663038
1977.02755737,0.17567047
1978.95636475,0.17572539
1980.88517212,0.17565444
1982.81397949,0.17465320
1984.74278687,0.17544653
1986.67159424,0.17382912
1988.60040161,0.17427877
1990.52920898,0.17270409
1992.45801636,0.17061386
1994.38682373,0.17314684
1996.31563110,0.17348680
1998.24443848,0.17252958
2000.17324585,0.17240459
2002.10205322,0.17214482
2004.03086060,0.17175037
2005.95966797,0.17137811
2007.88847534,0.17075220
2009.81728271,0.17061104
2011.74609009,0.17024860
2013.67489746,0.16995800
2015.60370483,0.16897523
2017.53251221,0.16729596
2019.46131958,0.16844177
2021.39012695,0.16838804
2023.31893433,0.16774559
2025.24774170,0.16769284
2027.17654907,0.16683906
2029.10535645,0.16690126
2031.03416382,0.16633037
2032.96297119,0.16612351
2034.89177856,0.16563100
2036.82058594,0.16531858
2038.74939331,0.16505823
2040.67820068,0.16402042
2042.60700806,0.16392878
2044.53581543,0.16366190
2046.46462280,0.16342334
2048.39343018,0.16302282
2050.32223755,0.16279757
2052.25104492,0.16250983
2054.17985229,0.16207972
2056.10865967,0.16187683
2058.03746704,0.16119821
2059.96627441,0.16091126
2061.89508179,0.16065995
2063.82388916,0.15993448
2065.75269653,0.15929857
2067.68150391,0.15971127
2069.61031128,0.15936811
2071.53911865,0.15876392
2073.46792603,0.15887946
2075.39673340,0.15824272
2077.32554077,0.15807587
2079.25434814,0.15766695
2081.18315552,0.15741813
2083.11196289,0.15715906
2085.04077026,0.15668373
2086.96957764,0.15650743
2088.89838501,0.15584815
2090.82719238,0.15564401
2092.75599976,0.15543151
2094.68480713,0.15531939
2096.61361450,0.15494883
2098.54242187,0.15468580
2100.47122925,0.15445268
2102.40003662,0.15408778
2104.32884399,0.15412724
2106.25765137,0.15348455
2108.18645874,0.15332341
2110.11526611,0.15301083
2112.04407349,0.15274853
2113.97288086,0.15251890
2115.90168823,0.15205656
2117.83049561,0.15209417
2119.75930298,0.15158160
2121.68811035,0.15154469
2123.61691772,0.15124522
2125.54572510,0.15094811
2127.47453247,0.15087478
2129.40333984,0.15051425
2131.33214722,0.15045232
2133.26095459,0.15011314
2135.18976196,0.14986064
2137.11856934,0.14943036
2139.04737671,0.14941043
2140.97618408,0.14922768
2142.90499146,0.14890683
2144.83379883,0.14881572
2146.76260620,0.14852493
2148.69141357,0.14851713
2150.62022095,0.14821391
2152.54902832,0.14813277
2154.47783569,0.14764093
2156.40664307,0.14742431
2158.33545044,0.14744467
2160.26425781,0.14705917
2162.19306519,0.14697489
2164.12187256,0.14664067
2166.05067993,0.14676914
2167.97948730,0.14640152
2169.90829468,0.14617497
2171.83710205,0.14616519
2173.76590942,0.14572087
2175.69471680,0.14573486
2177.62352417,0.14558721
2179.55233154,0.14541173
2181.48113892,0.14491966
2183.40994629,0.14486882
2185.33875366,0.14470696
2187.26756104,0.14444554
2189.19636841,0.14434984
2191.12517578,0.14390695
2193.05398315,0.14395162
2194.98279053,0.14352882
2196.91159790,0.14348231
2198.84040527,0.14339867
2200.76921265,0.14313093
2202.69802002,0.14303842
2204.62682739,0.14270878
2206.55563477,0.14276469
2208.48444214,0.14224555
2210.41324951,0.14216289
2212.34205688,0.14206329
2214.27086426,0.14173603
2216.19967163,0.14171758
2218.12847900,0.14146721
2220.05728638,0.14134058
2221.98609375,0.14099512
2223.91490112,0.14087290
2225.84370850,0.14056137
2227.77251587,0.14042933
2229.70132324,0.14018273
2231.63013062,0.13978128
2233.55893799,0.13970482
2235.48774536,0.13931367
2237.41655273,0.13929415
2239.34536011,0.13902238
2241.27416748,0.13874444
2243.20297485,0.13849580
2245.13178223,0.13828024
2247.06058960,0.13803947
2248.98939697,0.13773891
2250.91820435,0.13779563
2252.84701172,0.13723776
2254.77581909,0.13715343
2256.70462646,0.13701284
2258.63343384,0.13663715
2260.56224121,0.13643315
2262.49104858,0.13613021
2264.41985596,0.13612163
2266.34866333,0.13576579
2268.27747070,0.13576785
2270.20627808,0.13552895
2272.13508545,0.13532621
2274.06389282,0.13526398
2275.99270020,0.13488363
2277.92150757,0.13480380
2279.85031494,0.13465936
2281.77912231,0.13462043
2283.70792969,0.13420564
2285.63673706,0.13404050
2287.56554443,0.13365525
2289.49435181,0.13312060
2291.42315918,0.13307320
2293.35196655,0.13260257
2295.28077393,0.13220416
2297.20958130,0.13166125
2299.13838867,0.13122992
2301.06719604,0.13064224
2302.99600342,0.13003424
2304.92481079,0.12940958
2306.85361816,0.12843493
2308.78242554,0.12748185
2310.71123291,0.12622455
2312.64004028,0.12512669
2314.56884766,0.12372383
2316.49765503,0.12227809
2318.42646240,0.12049972
2320.35526978,0.11873055
2322.28407715,0.11708973
2324.21288452,0.11519159
2326.14169189,0.11421283
2328.07049927,0.11277145
2329.99930664,0.11119391
2331.92811401,0.11017413
2333.85692139,0.10986598
2335.78572876,0.10934157
2337.71453613,0.10885338
2339.64334351,0.10920597
2341.57215088,0.10921191
2343.50095825,0.11097815
2345.42976562,0.11319731
2347.35857300,0.11820780
2349.28738037,0.12249162
2351.21618774,0.11765733
2353.14499512,0.11151544
2355.07380249,0.10724312
2357.00260986,0.10359876
2358.93141724,0.10169078
2360.86022461,0.10032539
2362.78903198,0.10019035
2364.71783936,0.10084479
2366.64664673,0.10236061
2368.57545410,0.10438703
2370.50426147,0.10703930
2372.43306885,0.11022772
2374.36187622,0.11355852
2376.29068359,0.11673252
2378.21949097,0.11942203
2380.14829834,0.12171914
2382.07710571,0.12287982
2384.00591309,0.12388001
2385.93472046,0.12428603
2387.86352783,0.12422673
2389.79233521,0.12416083
2391.72114258,0.12399758
2393.64994995,0.12407258
2395.57875732,0.12365828
2397.50756470,0.12351907
2399.43637207,0.12321608
2401.36517944,0.12304298
2403.29398682,0.12297599
2405.22279419,0.12270707
2407.15160156,0.12266937
2409.08040894,0.12235165
2411.00921631,0.12237310
2412.93802368,0.12202132
2414.86683105,0.12183852
2416.79563843,0.12178306
2418.72444580,0.12140426
2420.65325317,0.12135035
2422.58206055,0.12109433
2424.51086792,0.12103614
2426.43967529,0.12075976
2428.36848267,0.12059052
2430.29729004,0.12052783
2432.22609741,0.12021023
2434.15490479,0.12008269
2436.08371216,0.11992966
2438.01251953,0.11973263
2439.94132690,0.11950895
2441.87013428,0.11943460
2443.79894165,0.11918010
2445.72774902,0.11916240
2447.65655640,0.11900552
2449.58536377,0.11866491
2451.51417114,0.11858462
2453.44297852,0.11832740
2455.37178589,0.11828484
2457.30059326,0.11798556
2459.22940063,0.11783499
2461.15820801,0.11776231
2463.08701538,0.11754273
2465.01582275,0.11736465
2466.94463013,0.11713687
2468.87343750,0.11709011
2470.80224487,0.11670077
2472.73105225,0.11672002
2474.65985962,0.11663429
2476.58866699,0.11628401
2478.51747437,0.11618468
2480.44628174,0.11595906
2482.37508911,0.11581397
2484.30389648,0.11556014
2486.23270386,0.11545964
2488.16151123,0.11516161
2490.09031860,0.11513200
2492.01912598,0.11512940
2493.94793335,0.11482696
2495.87674072,0.11467388
2497.80554810,0.11436109
2499.73435547,0.11438622
2501.66316284,0.11417566
2503.59197021,0.11399736
2505.52077759,0.11382781
2507.44958496,0.11364096
2509.37839233,0.11352701
2511.30719971,0.11322330
2513.23600708,0.11327735
2515.16481445,0.11287437
2517.09362183,0.11280778
2519.02242920,0.11272018
2520.95123657,0.11239537
2522.88004395,0.11244620
2524.80885132,0.11207207
2526.73765869,0.11193445
2528.66646606,0.11185941
2530.59527344,0.11181527
2532.52408081,0.11152646
2534.45288818,0.11132554
2536.38169556,0.11132820
2538.31050293,0.11104733
2540.23931030,0.11098913
2542.16811768,0.11069708
2544.09692505,0.11064287
2546.02573242,0.11045555
2547.95453979,0.11019301
2549.88334717,0.11008967
2551.81215454,0.10985191
2553.74096191,0.10983643
2555.66976929,0.10967147
2557.59857666,0.10968508
2559.52738403,0.10930254
2561.45619141,0.10904968
2563.38499878,0.10915118
2565.31380615,0.10883530
2567.24261353,0.10865634
2569.17142090,0.10852198
2571.10022827,0.10840330
2573.02903564,0.10814986
2574.95784302,0.10803422
2576.88665039,0.10785939
2578.81545776,0.10772655
2580.74426514,0.10768253
2582.67307251,0.10739075
2584.60187988,0.10723199
2586.53068726,0.10696942
2588.45949463,0.10695939
2590.38830200,0.10672604
2592.31710937,0.10651560
2594.24591675,0.10649300
2596.17472412,0.10622825
2598.10353149,0.10621201
2600.03233887,0.10600016
2601.96114624,0.10585586
2603.88995361,0.10556144
2605.81876099,0.10537910
2607.74756836,0.10530636
2609.67637573,0.10505290
2611.60518311,0.10510249
2613.53399048,0.10480715
2615.46279785,0.10458416
2617.39160522,0.10449263
2619.32041260,0.10437167
2621.24921997,0.10425340
2623.17802734,0.10408247
2625.10683472,0.10398281
2627.03564209,0.10376002
2628.96444946,0.10361780
2630.89325684,0.10329892
2632.82206421,0.10312358
2634.75087158,0.10310757
2636.67967895,0.10293465
2638.60848633,0.10263076
2640.53729370,0.10249963
2642.46610107,0.10253060
2644.39490845,0.10234717
2646.32371582,0.10225792
2648.25252319,0.10194822
2650.18133057,0.10185646
2652.11013794,0.10169367
2654.03894531,0.10137981
2655.96775269,0.10131950
2657.89656006,0.10104789
2659.82536743,0.10107781
2661.75417480,0.10089934
2663.68298218,0.10073468
2665.61178955,0.10060255
2667.54059692,0.10043553
2669.46940430,0.10043566
2671.39821167,0.10007486
2673.32701904,0.09991604
2675.25582642,0.09967861
2677.18463379,0.09970658
2679.11344116,0.09964406
2681.04224854,0.09924528
2682.97105591,0.09915087
2684.89986328,0.09893099
2686.82867065,0.09885648
2688.75747803,0.09876715
2690.68628540,0.09865279
2692.61509277,0.09833091
2694.54390015,0.09817444
2696.47270752,0.09813848
2698.40151489,0.09784435
2700.33032227,0.09780994
2702.25912964,0.09753193
2704.18793701,0.09740337
2706.11674438,0.09726958
2708.04555176,0.09712122
2709.97435913,0.09700713
2711.90316650,0.09667744
2713.83197388,0.09668478
2715.76078125,0.09650472
2717.68958862,0.09630184
2719.61839600,0.09620902
2721.54720337,0.09612879
2723.47601074,0.09585300
2725.40481812,0.09558015
2727.33362549,0.09550818
2729.26243286,0.09529655
2731.19124023,0.09528260
2733.12004761,0.09497498
2735.04885498,0.09486483
2736.97766235,0.09476027
2738.90646973,0.09440347
2740.83527710,0.09441192
2742.76408447,0.09415841
2744.69289185,0.09402421
2746.62169922,0.09394380
2748.55050659,0.09373646
2750.47931396,0.09358992
2752.40812134,0.09346253
2754.33692871,0.09331191
2756.26573608,0.09311597
2758.19454346,0.09303504
2760.12335083,0.09280226
2762.05215820,0.09264766
2763.98096558,0.09251626
2765.90977295,0.09238356
2767.83858032,0.09212093
2769.76738770,0.09187587
2771.69619507,0.09179695
2773.62500244,0.09153748
2775.55380981,0.09145417
2777.48261719,0.09123868
2779.41142456,0.09105159
2781.34023193,0.09093323
2783.26903931,0.09081809
2785.19784668,0.09067087
2787.12665405,0.09034382
2789.05546143,0.09030620
2790.98426880,0.09009957
2792.91307617,0.08993812
2794.84188354,0.08973299
2796.77069092,0.08954009
2798.69949829,0.08952199
2800.62830566,0.08927503
2802.55711304,0.08909761
2804.48592041,0.08878872
2806.41472778,0.08868557
2808.34353516,0.08852051
2810.27234253,0.08837244
2812.20114990,0.08827128
2814.12995728,0.08788267
2816.05876465,0.08782366
2817.98757202,0.08758821
2819.91637939,0.08742344
2821.84518677,0.08729490
2823.77399414,0.08702192
2825.70280151,0.08693518
2827.63160889,0.08671692
2829.56041626,0.08650295
2831.48922363,0.08631618
2833.41803101,0.08618190
2835.34683838,0.08587959
2837.27564575,0.08570053
2839.20445312,0.08558136
2841.13326050,0.08518483
2843.06206787,0.08486934
2844.99087524,0.08449091
2846.91968262,0.08395433
2848.84848999,0.08343934
2850.77729736,0.08332139
2852.70610474,0.08322736
2854.63491211,0.08308126
2856.56371948,0.08299555
2858.49252686,0.08280470
2860.42133423,0.08270580
2862.35014160,0.08256891
2864.27894897,0.08255856
2866.20775635,0.08236848
2868.13656372,0.08215287
2870.06537109,0.08202397
2871.99417847,0.08187156
2873.92298584,0.08184464
2875.85179321,0.08161061
2877.78060059,0.08149838
2879.70940796,0.08137573
2881.63821533,0.08126824
2883.56702270,0.08110760
2885.49583008,0.08099077
2887.42463745,0.08096456
2889.35344482,0.08059077
2891.28225220,0.08047857
2893.21105957,0.08033091
2895.13986694,0.08013183
2897.06867432,0.07991523
2898.99748169,0.07961220
2900.92628906,0.07946144
2902.85509644,0.07918246
2904.78390381,0.07898411
2906.71271118,0.07869272
2908.64151855,0.07849665
2910.57032593,0.07811201
2912.49913330,0.07768546
2914.42794067,0.07740355
2916.35674805,0.07692298
2918.28555542,0.07687079
2920.21436279,0.07661599
2922.14317017,0.07645305
2924.07197754,0.07651375
2926.00078491,0.07622927
2927.92959229,0.07619331
2929.85839966,0.07618236
2931.78720703,0.07616510
2933.71601440,0.07610378
2935.64482178,0.07601906
2937.57362915,0.07607256
2939.50243652,0.07606229
2941.43124390,0.07596326
2943.36005127,0.07590641
2945.28885864,0.07590058
2947.21766602,0.07575180
2949.14647339,0.07555521
2951.07528076,0.07536117
2953.00408813,0.07522224
2954.93289551,0.07493076
2956.86170288,0.07467128
2958.79051025,0.07452519
2960.71931763,0.07427686
2962.64812500,0.07419945
2964.57693237,0.07404741
2966.50573975,0.07388851
2968.43454712,0.07386358
2970.36335449,0.07401760
2972.29216187,0.07406102
2974.22096924,0.07401650
2976.14977661,0.07413712
2978.07858398,0.07396133
2980.00739136,0.07399756
2981.93619873,0.07400128
2983.86500610,0.07393062
2985.79381348,0.07397215
2987.72262085,0.07366824
2989.65142822,0.07362995
2991.58023560,0.07354498
2993.50904297,0.07334465
2995.43785034,0.07330433
2997.36665771,0.07316616
2999.29546509,0.07304916
3001.22427246,0.07295326
3003.15307983,0.07288092
3005.08188721,0.07264765
3007.01069458,0.07246916
3008.93950195,0.07246658
3010.86830933,0.07219844
3012.79711670,0.07182868
3014.72592407,0.07175680
3016.65473145,0.07166388
3018.58353882,0.07152477
3020.51234619,0.07141958
3022.44115356,0.07123104
3024.36996094,0.07112224
3026.29876831,0.07087742
3028.22757568,0.07080796
3030.15638306,0.07055777
3032.08519043,0.07015938
3034.01399780,0.07021382
3035.94280518,0.07005940
3037.87161255,0.07005848
3039.80041992,0.06995195
3041.72922729,0.06963789
3043.65803467,0.06962372
3045.58684204,0.06946020
3047.51564941,0.06929841
3049.44445679,0.06906022
3051.37326416,0.06896563
3053.30207153,0.06893295
3055.23087891,0.06861507
3057.15968628,0.06842376
3059.08849365,0.06837128
3061.01730103,0.06829317
3062.94610840,0.06810226
3064.87491577,0.06787789
3066.80372314,0.06772000
3068.73253052,0.06770942
3070.66133789,0.06761986
3072.59014526,0.06740865
3074.51895264,0.06730142
3076.44776001,0.06716217
3078.37656738,0.06690729
3080.30537476,0.06665026
3082.23418213,0.06667954
3084.16298950,0.06667671
3086.09179687,0.06648733
3088.02060425,0.06632856
3089.94941162,0.06617264
3091.87821899,0.06607306
3093.80702637,0.06588878
3095.73583374,0.06567425
3097.66464111,0.06546959
3099.59344849,0.06530428
3101.52225586,0.06517558
3103.45106323,0.06504311
3105.37987061,0.06497820
3107.30867798,0.06485820
3109.23748535,0.06464054
3111.16629272,0.06452147
3113.09510010,0.06437790
3115.02390747,0.06398476
3116.95271484,0.06374834
3118.88152222,0.06357510
3120.81032959,0.06351380
3122.73913696,0.06343170
3124.66794434,0.06321931
3126.59675171,0.06321595
3128.52555908,0.06288754
3130.45436645,0.06277613
3132.38317383,0.06260833
3134.31198120,0.06240314
3136.24078857,0.06255787
3138.16959595,0.06213836
3140.09840332,0.06199996
3142.02721069,0.06192600
3143.95601807,0.06171486
3145.88482544,0.06155945
3147.81363281,0.06127857
3149.74244019,0.06121364
3151.67124756,0.06082461
3153.60005493,0.06071867
3155.52886230,0.06064069
3157.45766968,0.06044924
3159.38647705,0.06035136
3161.31528442,0.06004499
3163.24409180,0.05998524
3165.17289917,0.05975846
3167.10170654,0.05964573
3169.03051392,0.05941569
3170.95932129,0.05914291
3172.88812866,0.05911906
3174.81693604,0.05882535
3176.74574341,0.05872796
3178.67455078,0.05863246
3180.60335815,0.05839505
3182.53216553,0.05820756
3184.46097290,0.05823360
3186.38978027,0.05807408
3188.31858765,0.05781300
3190.24739502,0.05770569
3192.17620239,0.05745145
3194.10500977,0.05747496
3196.03381714,0.05713974
3197.96262451,0.05691479
3199.89143188,0.05698843
3201.82023926,0.05675665
3203.74904663,0.05664485
3205.67785400,0.05650155
3207.60666138,0.05650974
3209.53546875,0.05624000
3211.46427612,0.05609287
3213.39308350,0.05597778
3215.32189087,0.05566476
3217.25069824,0.05584138
3219.17950562,0.05556558
3221.10831299,0.05544894
3223.03712036,0.05554648
3224.96592773,0.05525909
3226.89473511,0.05519719
3228.82354248,0.05507382
3230.75234985,0.05497302
3232.68115723,0.05486001
3234.60996460,0.05465138
3236.53877197,0.05462638
3238.46757935,0.05460704
3240.39638672,0.05451130
3242.32519409,0.05448001
3244.25400146,0.05423979
3246.18280884,0.05410244
3248.11161621,0.05420537
3250.04042358,0.05402080
3251.96923096,0.05395237
3253.89803833,0.05382025
3255.82684570,0.05369575
3257.75565308,0.05374228
3259.68446045,0.05361874
3261.61326782,0.05357846
3263.54207520,0.05347286
3265.47088257,0.05338521
3267.39968994,0.05335113
3269.32849731,0.05325435
3271.25730469,0.05308023
3273.18611206,0.05298458
3275.11491943,0.05297411
3277.04372681,0.05288704
3278.97253418,0.05289664
3280.90134155,0.05280375
3282.83014893,0.05268948
3284.75895630,0.05256443
3286.68776367,0.05259700
3288.61657104,0.05257108
3290.54537842,0.05233756
3292.47418579,0.05232138
3294.40299316,0.05217505
3296.33180054,0.05211525
3298.26060791,0.05203428
3300.18941528,0.05202488
3302.11822266,0.05201121
3304.04703003,0.05170503
3305.97583740,0.05166207
3307.90464478,0.05154726
3309.83345215,0.05151097
3311.76225952,0.05149623
3313.69106689,0.05143938
3315.61987427,0.05144183
3317.54868164,0.05130635
3319.47748901,0.05127629
3321.40629639,0.05112904
3323.33510376,0.05110642
3325.26391113,0.05099972
3327.19271851,0.05083878
3329.12152588,0.05091372
3331.05033325,0.05079148
3332.97914062,0.05058387
3334.90794800,0.05042300
3336.83675537,0.05038610
3338.76556274,0.05032316
3340.69437012,0.05024225
3342.62317749,0.05015280
3344.55198486,0.05008824
3346.48079224,0.05008699
3348.40959961,0.04994309
3350.33840698,0.04982153
3352.26721436,0.04979151
3354.19602173,0.04968499
3356.12482910,0.04948165
3358.05363647,0.04945459
3359.98244385,0.04928911
3361.91125122,0.04920062
3363.84005859,0.04919618
3365.76886597,0.04893450
3367.69767334,0.04885876
3369.62648071,0.04876436
3371.55528809,0.04879677
3373.48409546,0.04867345
3375.41290283,0.04857333
3377.34171020,0.04852407
3379.27051758,0.04837052
3381.19932495,0.04847843
3383.12813232,0.04815026
3385.05693970,0.04801399
3386.98574707,0.04792869
3388.91455444,0.04790620
3390.84336182,0.04774278
3392.77216919,0.04735201
3394.70097656,0.04764825
3396.62978394,0.04733327
3398.55859131,0.04717737
3400.48739868,0.04716526
3402.41620605,0.04701900
3404.34501343,0.04713992
3406.27382080,0.04690145
3408.20262817,0.04700015
3410.13143555,0.04679178
3412.06024292,0.04677289
3413.98905029,0.04674926
3415.91785767,0.04660214
3417.84666504,0.04664694
3419.77547241,0.04611906
3421.70427979,0.04608057
3423.63308716,0.04617514
3425.56189453,0.04618554
3427.49070190,0.04594377
3429.41950928,0.04576138
3431.34831665,0.04576911
3433.27712402,0.04561629
3435.20593140,0.04571547
3437.13473877,0.04534617
3439.06354614,0.04545178
3440.99235352,0.04530330
3442.92116089,0.04502583
3444.84996826,0.04516216
3446.77877563,0.04448747
3448.70758301,0.04465421
3450.63639038,0.04509668
3452.56519775,0.04491431
3454.49400513,0.04479543
3456.42281250,0.04474274
3458.35161987,0.04463746
3460.28042725,0.04442986
3462.20923462,0.04434944
3464.13804199,0.04438586
3466.06684937,0.04440285
3467.99565674,0.04408359
3469.92446411,0.04417109
3471.85327148,0.04426417
3473.78207886,0.04407394
3475.71088623,0.04396028
3477.63969360,0.04397323
3479.56850098,0.04398174
3481.49730835,0.04334218
3483.42611572,0.04355247
3485.35492310,0.04385845
3487.28373047,0.04356299
3489.21253784,0.04359692
3491.14134521,0.04370364
3493.07015259,0.04376760
3494.99895996,0.04349680
3496.92776733,0.04356241
3498.85657471,0.04349910
3500.78538208,0.04341996
3502.71418945,0.04276710
3504.64299683,0.04262029
3506.57180420,0.04372058
3508.50061157,0.04303096
3510.42941895,0.04276527
3512.35822632,0.04323415
3514.28703369,0.04332587
3516.21584106,0.04341339
3518.14464844,0.04297356
3520.07345581,0.04329835
3522.00226318,0.04283269
3523.93107056,0.04212132
3525.85987793,0.04235636
3527.78868530,0.04234418
3529.71749268,0.04239922
3531.64630005,0.04276358
3533.57510742,0.04314628
3535.50391479,0.04272183
3537.43272217,0.04240892
3539.36152954,0.04288132
3541.29033691,0.04288417
3543.21914429,0.04250132
3545.14795166,0.04167873
3547.07675903,0.04099400
3549.00556641,0.04240489
3550.93437378,0.04262441
3552.86318115,0.04155159
3554.79198853,0.04252703
3556.72079590,0.04252332
3558.64960327,0.04231013
3560.57841064,0.04207987
3562.50721802,0.04184508
3564.43602539,0.04207829
3566.36483276,0.03923221
3568.29364014,0.03831277
3570.22244751,0.04134578
3572.15125488,0.04252255
3574.08006226,0.04198357
3576.00886963,0.04211579
3577.93767700,0.04202500
3579.86648437,0.04187556
3581.79529175,0.04190783
3583.72409912,0.04197104
3585.65290649,0.04107658
3587.58171387,0.03771607
3589.51052124,0.03885033
3591.43932861,0.04219437
3593.36813599,0.04095932
3595.29694336,0.04030810
3597.22575073,0.04100433
3599.15455811,0.04132331
3601.08336548,0.04094233
3603.01217285,0.04137076
3604.94098022,0.04208203
3606.86978760,0.04054622
3608.79859497,0.03818093
3610.72740234,0.03903917
3612.65620972,0.03985864
3614.58501709,0.03870337
3616.51382446,0.04158167
3618.44263184,0.03835052
3620.37143921,0.03704449
3622.30024658,0.04182656
3624.22905395,0.04055972
3626.15786133,0.04237672
3628.08666870,0.03588651
3630.01547607,0.03279842
3631.94428345,0.04127505
3633.87309082,0.04010651
3635.80189819,0.04076723
3637.73070557,0.04157129
3639.65951294,0.04095472
3641.58832031,0.04129534
3643.51712769,0.04073846
3645.44593506,0.04115593
3647.37474243,0.03688495
3649.30354980,0.03380120
3651.23235718,0.03428699
3653.16116455,0.04083155
3655.08997192,0.04015638
3657.01877930,0.03606723
3658.94758667,0.04163044
3660.87639404,0.04050770
3662.80520142,0.04119925
3664.73400879,0.04092100
3666.66281616,0.04044512
3668.59162354,0.03934052
3670.52043091,0.03197943
3672.44923828,0.03898075
3674.37804565,0.03703062
3676.30685303,0.03067310
3678.23566040,0.03863860
3680.16446777,0.03939630
3682.09327515,0.03954060
3684.02208252,0.04062232
3685.95088989,0.03995043
3687.87969727,0.03592647
3689.80850464,0.03293602
3691.73731201,0.03757302
3693.66611938,0.03869451
3695.59492676,0.03969242
3697.52373413,0.03957145
3699.45254150,0.03928407
3701.38134888,0.03819002
3703.31015625,0.03668215
3705.23896362,0.04039548
3707.16777100,0.03834321
3709.09657837,0.03749261
3711.02538574,0.03511851
3712.95419312,0.03288212
3714.88300049,0.03874111
3716.81180786,0.03818460
3718.74061523,0.03845590
3720.66942261,0.03760257
3722.59822998,0.03632137
3724.52703735,0.03759475
3726.45584473,0.03485826
3728.38465210,0.03782972
3730.31345947,0.03747280
3732.24226685,0.03433858
3734.17107422,0.03340977
3736.09988159,0.03184293
3738.02868896,0.03363673
3739.95749634,0.03654832
3741.88630371,0.03828530
3743.81511108,0.02947246
3745.74391846,0.02795634
3747.67272583,0.03646249
3749.60153320,0.03114111
3751.53034058,0.02871858
3753.45914795,0.03321719
3755.38795532,0.03572555
3757.31676270,0.03707182
3759.24557007,0.03416217
3761.17437744,0.03545101
3763.10318481,0.03765306
3765.03199219,0.03505816
3766.96079956,0.03582287
3768.88960693,0.03535043
3770.81841431,0.03383731
3772.74722168,0.03657749
3774.67602905,0.03665714
3776.60483643,0.03665346
3778.53364380,0.03554004
3780.46245117,0.03426690
3782.39125854,0.03646955
3784.32006592,0.03570050
3786.24887329,0.03545436
3788.17768066,0.03605929
3790.10648804,0.03594310
3792.03529541,0.03570641
3793.96410278,0.03627396
3795.89291016,0.03404120
3797.82171753,0.03366234
3799.75052490,0.03548423
3801.67933228,0.02808443
3803.60813965,0.03287637
3805.53694702,0.03546857
3807.46575439,0.02903581
3809.39456177,0.03536154
3811.32336914,0.03454995
3813.25217651,0.03584466
3815.18098389,0.03236837
3817.10979126,0.02841214
3819.03859863,0.03572059
3820.96740601,0.02869591
3822.89621338,0.03048753
3824.82502075,0.03552686
3826.75382812,0.03201510
3828.68263550,0.03462026
3830.61144287,0.03318893
3832.54025024,0.03208058
3834.46905762,0.03269111
3836.39786499,0.03099845
3838.32667236,0.02799707
3840.25547974,0.03031793
3842.18428711,0.03274444
3844.11309448,0.03117611
3846.04190186,0.03380240
3847.97070923,0.03330005
3849.89951660,0.03335952
3851.82832397,0.02993916
3853.75713135,0.02227464
3855.68593872,0.02658594
3857.61474609,0.03336235
3859.54355347,0.03248414
3861.47236084,0.03216238
3863.40116821,0.03135077
3865.32997559,0.02908211
3867.25878296,0.03251065
3869.18759033,0.02965949
3871.11639770,0.02750509
3873.04520508,0.03263856
3874.97401245,0.02990548
3876.90281982,0.03237500
3878.83162720,0.03291114
3880.76043457,0.02819596
3882.68924194,0.03243934
3884.61804932,0.03018263
3886.54685669,0.02780012
3888.47566406,0.03251787
3890.40447144,0.03065076
3892.33327881,0.02872964
3894.26208618,0.03151315
3896.19089355,0.03213816
3898.11970093,0.03064219
3900.04850830,0.02898151
3901.97731567,0.02865702
3903.90612305,0.02830088
3905.83493042,0.02877684
3907.76373779,0.03162274
3909.69254517,0.03148635
3911.62135254,0.03119315
3913.55015991,0.03169912
3915.47896728,0.03056592
3917.40777466,0.02983662
3919.33658203,0.02945192
3921.26538940,0.03066870
3923.19419678,0.03051772
3925.12300415,0.02979078
3927.05181152,0.03049358
3928.98061890,0.03066980
3930.90942627,0.02998535
3932.83823364,0.02901087
3934.76704102,0.03024354
3936.69584839,0.03049687
3938.62465576,0.03017315
3940.55346313,0.03052979
3942.48227051,0.02930420
3944.41107788,0.02953984
3946.33988525,0.03007883
3948.26869263,0.02924757
3950.19750000,0.02923856
3952.12630737,0.02980065
3954.05511475,0.02972279
3955.98392212,0.02966148
3957.91272949,0.02963822
3959.84153687,0.02958367
3961.77034424,0.02945227
3963.69915161,0.02923605
3965.62795898,0.02964055
3967.55676636,0.02938404
3969.48557373,0.02918855
3971.41438110,0.02919383
3973.34318848,0.02909211
3975.27199585,0.02911437
3977.20080322,0.02886210
3979.12961060,0.02903843
3981.05841797,0.02881545
3982.98722534,0.02892992
3984.91603271,0.02886877
3986.84484009,0.02864423
3988.77364746,0.02879406
3990.70245483,0.02843093
3992.63126221,0.02853688
3994.56006958,0.02844376
3996.48887695,0.02840121
3998.41768433,0.02831557
4000.34649170,0.02824410
4002.27529907,0.02827226
4004.20410645,0.02814698
4006.13291382,0.02824478
4008.06172119,0.02786525
4009.99052856,0.02805137
4011.91933594,0.02801291
4013.84814331,0.02779807
4015.77695068,0.02781142
4017.70575806,0.02767246
4019.63456543,0.02772958
4021.56337280,0.02746996
4023.49218018,0.02764156
4025.42098755,0.02742988
4027.34979492,0.02736853
4029.27860229,0.02745307
4031.20740967,0.02722656
4033.13621704,0.02726347
4035.06502441,0.02705232
4036.99383179,0.02718596
4038.92263916,0.02692871
4040.85144653,0.02701547
4042.78025391,0.02708803
4044.70906128,0.02670765
4046.63786865,0.02681601
4048.56667603,0.02672268
4050.49548340,0.02671820
4052.42429077,0.02651820
4054.35309814,0.02654285
4056.28190552,0.02647021
4058.21071289,0.02637314
4060.13952026,0.02642893
4062.06832764,0.02627999
4063.99713501,0.02636951
4065.92594238,0.02613910
4067.85474976,0.02621161
4069.78355713,0.02611287
4071.71236450,0.02600962
4073.64117187,0.02596137
4075.56997925,0.02579222
4077.49878662,0.02589951
4079.42759399,0.02560816
4081.35640137,0.02569789
4083.28520874,0.02561622
4085.21401611,0.02556251
4087.14282349,0.02557341
4089.07163086,0.02547942
4091.00043823,0.02545083
4092.92924561,0.02516815
4094.85805298,0.02542539
4096.78686035,0.02523728
4098.71566772,0.02522681
4100.64447510,0.02522757
4102.57328247,0.02498944
4104.50208984,0.02505678
4106.43089722,0.02478534
4108.35970459,0.02502301
4110.28851196,0.02491236
4112.21731934,0.02470747
4114.14612671,0.02471652
4116.07493408,0.02465610
4118.00374145,0.02469343
4119.93254883,0.02447297
4121.86135620,0.02452069
4123.79016357,0.02440674
4125.71897095,0.02435988
4127.64777832,0.02426784
4129.57658569,0.02426429
4131.50539307,0.02427678
4133.43420044,0.02401040
4135.36300781,0.02416682
4137.29181519,0.02410350
4139.22062256,0.02390668
4141.14942993,0.02389349
4143.07823730,0.02392004
4145.00704468,0.02372072
4146.93585205,0.02375400
4148.86465942,0.02378134
4150.79346680,0.02348946
4152.72227417,0.02354083
4154.65108154,0.02338852
4156.57988892,0.02346196
4158.50869629,0.02338956
4160.43750366,0.02333600
4162.36631103,0.02337105
4164.29511841,0.02311738
4166.22392578,0.02325335
4168.15273315,0.02308237
4170.08154053,0.02310815
4172.01034790,0.02303943
4173.93915527,0.02290427
4175.86796265,0.02295778
4177.79677002,0.02281012
4179.72557739,0.02286100
4181.65438477,0.02265459
4183.58319214,0.02272445
4185.51199951,0.02269565
4187.44080688,0.02260086
4189.36961426,0.02264783
4191.29842163,0.02252870
4193.22722900,0.02246615
4195.15603638,0.02222012
4197.08484375,0.02227032
4199.01365112,0.02223720
4200.94245850,0.02221761
4202.87126587,0.02212732
4204.80007324,0.02204283
4206.72888062,0.02204873
4208.65768799,0.02184930
4210.58649536,0.02199698
4212.51530273,0.02186459
4214.44411011,0.02190061
4216.37291748,0.02186209
4218.30172485,0.02164548
4220.23053223,0.02171245
4222.15933960,0.02160481
4224.08814697,0.02163316
4226.01695435,0.02147822
4227.94576172,0.02149571
4229.87456909,0.02141774
4231.80337646,0.02128549
4233.73218384,0.02136817
4235.66099121,0.02128136
4237.58979858,0.02125152
4239.51860596,0.02106438
4241.44741333,0.02107649
4243.37622070,0.02098010
4245.30502808,0.02092626
4247.23383545,0.02096827
4249.16264282,0.02087208
4251.09145020,0.02087824
4253.02025757,0.02074658
4254.94906494,0.02081244
4256.87787231,0.02073671
4258.80667969,0.02066372
4260.73548706,0.02064306
4262.66429443,0.02058371
4264.59310181,0.02053889
4266.52190918,0.02043273
4268.45071655,0.02044737
4270.37952393,0.02033268
4272.30833130,0.02042510
4274.23713867,0.02022075
4276.16594604,0.02014663
4278.09475342,0.02025281
4280.02356079,0.02006024
4281.95236816,0.02017254
4283.88117554,0.02001562
4285.80998291,0.01994100
4287.73879028,0.01988110
4289.66759766,0.01984905
4291.59640503,0.01987415
4293.52521240,0.01974320
4295.45401978,0.01981837
4297.38282715,0.01963005
4299.31163452,0.01960286
4301.24044189,0.01962934
4303.16924927,0.01963055
4305.09805664,0.01958781
4307.02686401,0.01944172
4308.95567139,0.01937860
4310.88447876,0.01918637
4312.81328613,0.01935603
4314.74209351,0.01938269
4316.67090088,0.01925211
4318.59970825,0.01927442
4320.52851562,0.01925564
4322.45732300,0.01905543
4324.38613037,0.01887708
4326.31493774,0.01903426
4328.24374512,0.01893200
4330.17255249,0.01892095
4332.10135986,0.01885584
4334.03016724,0.01879761
4335.95897461,0.01888688
4337.88778198,0.01871409
4339.81658936,0.01868540
4341.74539673,0.01855869
4343.67420410,0.01850352
4345.60301147,0.01845394
4347.53181885,0.01840205
4349.46062622,0.01847625
4351.38943359,0.01837194
4353.31824097,0.01832233
4355.24704834,0.01835369
4357.17585571,0.01831098
4359.10466309,0.01819180
4361.03347046,0.01824363
4362.96227783,0.01813847
4364.89108520,0.01804745
4366.81989258,0.01805471
4368.74869995,0.01794142
4370.67750732,0.01793736
4372.60631470,0.01786978
4374.53512207,0.01787378
4376.46392944,0.01773235
4378.39273682,0.01779938
4380.32154419,0.01779820
4382.25035156,0.01758840
4384.17915894,0.01770232
4386.10796631,0.01755161
4388.03677368,0.01755590
4389.96558105,0.01755900
4391.89438843,0.01747439
4393.82319580,0.01739096
4395.75200317,0.01726606
4397.68081055,0.01735730
4399.60961792,0.01725089
4401.53842529,0.01729029
4403.46723267,0.01719464
4405.39604004,0.01705711
4407.32484741,0.01708823
4409.25365478,0.01706662
4411.18246216,0.01705615
4413.11126953,0.01696432
4415.04007690,0.01705047
4416.96888428,0.01687457
4418.89769165,0.01680984
4420.82649902,0.01686883
4422.75530640,0.01672904
4424.68411377,0.01672921
4426.61292114,0.01661722
4428.54172852,0.01663682
4430.47053589,0.01660274
4432.39934326,0.01652317
4434.32815063,0.01656100
4436.25695801,0.01651178
4438.18576538,0.01643721
4440.11457275,0.01643845
4442.04338013,0.01643602
4443.97218750,0.01627247
4445.90099487,0.01625527
4447.82980225,0.01620575
4449.75860962,0.01610528
4451.68741699,0.01603789
4453.61622437,0.01601736
4455.54503174,0.01609647
4457.47383911,0.01603252
4459.40264648,0.01598450
4461.33145386,0.01589240
4463.26026123,0.01580991
4465.18906860,0.01584370
4467.11787598,0.01595945
4469.04668335,0.01593320
4470.97549072,0.01578363
4472.90429810,0.01567405
4474.83310547,0.01559271
4476.76191284,0.01568177
4478.69072021,0.01558418
4480.61952759,0.01558131
4482.54833496,0.01559721
4484.47714233,0.01550425
4486.40594971,0.01549464
4488.33475708,0.01535192
4490.26356445,0.01536795
4492.19237183,0.01529476
4494.12117920,0.01529761
4496.04998657,0.01526223
4497.97879395,0.01514466
4499.90760132,0.01519865
4501.83640869,0.01511467
4503.76521606,0.01512266
4505.69402344,0.01503342
4507.62283081,0.01502936
4509.55163818,0.01499096
4511.48044556,0.01490135
4513.40925293,0.01492368
4515.33806030,0.01479217
4517.26686768,0.01482051
4519.19567505,0.01477520
4521.12448242,0.01474882
4523.05328979,0.01469001
4524.98209717,0.01463110
4526.91090454,0.01465532
4528.83971191,0.01460272
4530.76851929,0.01460900
4532.69732666,0.01446931
4534.62613403,0.01445825
4536.55494141,0.01441154
4538.48374878,0.01443434
4540.41255615,0.01440669
4542.34136353,0.01427337
4544.27017090,0.01440164
4546.19897827,0.01423354
4548.12778564,0.01422443
4550.05659302,0.01424061
4551.98540039,0.01409937
4553.91420776,0.01410688
4555.84301514,0.01401979
4557.77182251,0.01406342
4559.70062988,0.01402832
4561.62943726,0.01398591
4563.55824463,0.01394954
4565.48705200,0.01384453
4567.41585937,0.01390088
4569.34466675,0.01388506
4571.27347412,0.01377924
4573.20228149,0.01377906
4575.13108887,0.01372135
4577.05989624,0.01362022
4578.98870361,0.01361226
4580.91751099,0.01352755
4582.84631836,0.01351649
4584.77512573,0.01347758
4586.70393311,0.01351032
4588.63274048,0.01356281
4590.56154785,0.01341666
4592.49035522,0.01337871
4594.41916260,0.01329763
4596.34796997,0.01331100
4598.27677734,0.01328783
4600.20558472,0.01326151
4602.13439209,0.01322352
4604.06319946,0.01310887
4605.99200684,0.01315212
4607.92081421,0.01300927
4609.84962158,0.01309370
4611.77842895,0.01309775
4613.70723633,0.01296207
4615.63604370,0.01294896
4617.56485107,0.01277555
4619.49365845,0.01285973
4621.42246582,0.01286854
4623.35127319,0.01281658
4625.28008057,0.01277444
4627.20888794,0.01271877
4629.13769531,0.01269486
4631.06650269,0.01261646
4632.99531006,0.01263934
4634.92411743,0.01255532
4636.85292480,0.01254720
4638.78173218,0.01247867
4640.71053955,0.01250039
4642.63934692,0.01252423
4644.56815430,0.01239761
4646.49696167,0.01243633
4648.42576904,0.01236339
4650.35457642,0.01238377
4652.28338379,0.01232231
4654.21219116,0.01226658
4656.14099853,0.01232376
4658.06980591,0.01226229
4659.99861328,0.01217711
4661.92742065,0.01210259
4663.85622803,0.01220509
4665.78503540,0.01211414
4667.71384277,0.01207563
4669.64265015,0.01209116
4671.57145752,0.01197371
4673.50026489,0.01194778
4675.42907227,0.01189909
4677.35787964,0.01192770
4679.28668701,0.01182193
4681.21549438,0.01185199
4683.14430176,0.01187551
4685.07310913,0.01175466
4687.00191650,0.01175682
4688.93072388,0.01169080
4690.85953125,0.01179407
4692.78833862,0.01177645
4694.71714600,0.01166197
4696.64595337,0.01164426
4698.57476074,0.01153835
4700.50356812,0.01152141
4702.43237549,0.01151089
4704.36118286,0.01149443
4706.28999023,0.01150678
4708.21879761,0.01141458
4710.14760498,0.01136668
4712.07641235,0.01140766
4714.00521973,0.01132028
4715.93402710,0.01131109
4717.86283447,0.01127273
4719.79164185,0.01124600
4721.72044922,0.01127884
4723.64925659,0.01109936
4725.57806396,0.01114075
4727.50687134,0.01115819
4729.43567871,0.01113217
4731.36448608,0.01117946
4733.29329346,0.01101170
4735.22210083,0.01092571
4737.15090820,0.01092497
4739.07971558,0.01095012
4741.00852295,0.01091566
4742.93733032,0.01093951
4744.86613770,0.01093725
4746.79494507,0.01087202
4748.72375244,0.01086152
4750.65255981,0.01075349
4752.58136719,0.01077229
4754.51017456,0.01076895
4756.43898193,0.01070777
4758.36778931,0.01062775
4760.29659668,0.01062074
4762.22540405,0.01066446
4764.15421143,0.01056626
4766.08301880,0.01054991
4768.01182617,0.01053391
4769.94063354,0.01059389
4771.86944092,0.01052396
4773.79824829,0.01043310
4775.72705566,0.01051021
4777.65586304,0.01043524
4779.58467041,0.01042249
4781.51347778,0.01038223
4783.44228516,0.01030488
4785.37109253,0.01029545
4787.29989990,0.01026550
4789.22870728,0.01020909
4791.15751465,0.01020589
4793.08632202,0.01018056
4795.01512939,0.01010921
4796.94393677,0.01015852
4798.87274414,0.01010250
4800.80155151,0.01004642
4802.73035889,0.01000913
4804.65916626,0.00998886
4806.58797363,0.00994603
4808.51678101,0.00991250
4810.44558838,0.01000553
4812.37439575,0.00990315
4814.30320312,0.00994014
4816.23201050,0.00994902
4818.16081787,0.00985983
4820.08962524,0.00984963
4822.01843262,0.00975552
4823.94723999,0.00979239
4825.87604736,0.00977189
4827.80485474,0.00979726
4829.73366211,0.00972779
4831.66246948,0.00962630
4833.59127686,0.00965919
4835.52008423,0.00958422
4837.44889160,0.00956656
4839.37769897,0.00952831
4841.30650635,0.00956275
4843.23531372,0.00955959
4845.16412109,0.00950918
4847.09292847,0.00944143
4849.02173584,0.00935025
4850.95054321,0.00937861
4852.87935059,0.00933580
4854.80815796,0.00939553
4856.73696533,0.00939023
4858.66577270,0.00927835
4860.59458008,0.00920059
4862.52338745,0.00915842
4864.45219482,0.00926220
4866.38100220,0.00930762
4868.30980957,0.00917418
4870.23861694,0.00904268
4872.16742432,0.00915693
4874.09623169,0.00910777
4876.02503906,0.00904603
4877.95384644,0.00911951
4879.88265381,0.00901431
4881.81146118,0.00902112
4883.74026855,0.00897364
4885.66907593,0.00896360
4887.59788330,0.00897725
4889.52669067,0.00889362
4891.45549805,0.00891377
4893.38430542,0.00890557
4895.31311279,0.00885460
4897.24192017,0.00878523
4899.17072754,0.00879467
4901.09953491,0.00875434
4903.02834228,0.00875599
4904.95714966,0.00881279
4906.88595703,0.00869728
4908.81476440,0.00860490
4910.74357178,0.00858021
4912.67237915,0.00860384
4914.60118652,0.00861436
4916.52999390,0.00861712
4918.45880127,0.00863904
4920.38760864,0.00863079
4922.31641602,0.00853103
4924.24522339,0.00846067
4926.17403076,0.00846187
4928.10283813,0.00841586
4930.03164551,0.00845187
4931.96045288,0.00838139
4933.88926025,0.00833111
4935.81806763,0.00836155
4937.74687500,0.00832479
4939.67568237,0.00831614
4941.60448975,0.00823168
4943.53329712,0.00824743
4945.46210449,0.00825567
4947.39091187,0.00821077
4949.31971924,0.00823286
4951.24852661,0.00818672
4953.17733398,0.00813412
4955.10614136,0.00818296
4957.03494873,0.00816413
4958.96375610,0.00801115
4960.89256348,0.00802660
4962.82137085,0.00804389
4964.75017822,0.00806840
4966.67898560,0.00806591
4968.60779297,0.00796119
4970.53660034,0.00791466
4972.46540771,0.00782126
4974.39421509,0.00790293
4976.32302246,0.00788297
4978.25182983,0.00781716
4980.18063721,0.00785359
4982.10944458,0.00775203
4984.03825195,0.00775283
4985.96705933,0.00775572
4987.89586670,0.00777427
4989.82467407,0.00770229
4991.75348145,0.00765573
4993.68228882,0.00770034
4995.61109619,0.00761844
4997.53990356,0.00764926
4999.46871094,0.00765389
5001.39751831,0.00760721
5003.32632568,0.00757205
5005.25513306,0.00753149
5007.18394043,0.00748898
5009.11274780,0.00747673
5011.04155518,0.00748019
5012.97036255,0.00740301
5014.89916992,0.00742372
5016.82797729,0.00742051
5018.75678467,0.00740141
5020.68559204,0.00737830
5022.61439941,0.00734960
5024.54320679,0.00739683
5026.47201416,0.00732085
5028.40082153,0.00723198
5030.32962891,0.00725713
5032.25843628,0.00731180
5034.18724365,0.00724164
5036.11605103,0.00717405
5038.04485840,0.00722924
5039.97366577,0.00721838
5041.90247314,0.00708726
5043.83128052,0.00708745
5045.76008789,0.00721940
5047.68889526,0.00712508
5049.61770264,0.00709413
5051.54651001,0.00709590
5053.47531738,0.00698428
5055.40412476,0.00700836
5057.33293213,0.00699314
5059.26173950,0.00696158
5061.19054687,0.00694489
5063.11935425,0.00691922
5065.04816162,0.00686811
5066.97696899,0.00686455
5068.90577637,0.00689987
5070.83458374,0.00682894
5072.76339111,0.00679568
5074.69219849,0.00678130
5076.62100586,0.00680152
5078.54981323,0.00683628
5080.47862061,0.00680449
5082.40742798,0.00671094
5084.33623535,0.00670050
5086.26504272,0.00677108
5088.19385010,0.00669642
5090.12265747,0.00666423
5092.05146484,0.00665764
5093.98027222,0.00661930
5095.90907959,0.00664161
5097.83788696,0.00662050
5099.76669434,0.00657700
5101.69550171,0.00656783
5103.62430908,0.00652860
5105.55311645,0.00650821
5107.48192383,0.00655378
5109.41073120,0.00652533
5111.33953857,0.00650856
5113.26834595,0.00644043
5115.19715332,0.00644135
5117.12596069,0.00647468
5119.05476807,0.00637820
5120.98357544,0.00648444
5122.91238281,0.00645150
5124.84119019,0.00637102
5126.76999756,0.00638106
5128.69880493,0.00630229
5130.62761230,0.00632659
5132.55641968,0.00622190
5134.48522705,0.00623557
5136.41403442,0.00630111
5138.34284180,0.00623014
5140.27164917,0.00625400
5142.20045654,0.00618280
5144.12926392,0.00613776
5146.05807129,0.00619012
5147.98687866,0.00617545
5149.91568603,0.00610209
5151.84449341,0.00608629
5153.77330078,0.00612138
5155.70210815,0.00614670
5157.63091553,0.00612675
5159.55972290,0.00602154
5161.48853027,0.00600376
5163.41733765,0.00599954
5165.34614502,0.00592827
5167.27495239,0.00594477
5169.20375977,0.00593787
5171.13256714,0.00590771
5173.06137451,0.00593764
5174.99018188,0.00589490
5176.91898926,0.00591422
5178.84779663,0.00588645
5180.77660400,0.00580624
5182.70541138,0.00587174
5184.63421875,0.00576570
5186.56302612,0.00574282
5188.49183350,0.00578621
5190.42064087,0.00571320
5192.34944824,0.00578141
5194.27825562,0.00575465
5196.20706299,0.00568793
5198.13587036,0.00572969
5200.06467773,0.00574583
5201.99348511,0.00567108
5203.92229248,0.00571488
5205.85109985,0.00561871
5207.77990723,0.00545609
5209.70871460,0.00565886
5211.63752197,0.00565822
5213.56632935,0.00563588
5215.49513672,0.00559290
5217.42394409,0.00552440
5219.35275146,0.00563683
5221.28155884,0.00553622
5223.21036621,0.00554332
5225.13917358,0.00544463
5227.06798096,0.00541447
5228.99678833,0.00550607
5230.92559570,0.00537069
5232.85440308,0.00544408
5234.78321045,0.00547408
5236.71201782,0.00542089
5238.64082520,0.00537877
5240.56963257,0.00539380
5242.49843994,0.00540916
5244.42724731,0.00530101
5246.35605469,0.00530615
5248.28486206,0.00520210
5250.21366943,0.00521703
5252.14247681,0.00539670
5254.07128418,0.00526560
5256.00009155,0.00515946
5257.92889893,0.00529252
5259.85770630,0.00528499
5261.78651367,0.00521020
5263.71532104,0.00516351
5265.64412842,0.00514519
5267.57293579,0.00521240
5269.50174316,0.00511207
5271.43055054,0.00512011
5273.35935791,0.00513329
5275.28816528,0.00503154
5277.21697266,0.00513645
5279.14578003,0.00512083
5281.07458740,0.00511766
5283.00339478,0.00511996
5284.93220215,0.00498849
5286.86100952,0.00507030
5288.78981689,0.00504113
5290.71862427,0.00486978
5292.64743164,0.00500820
5294.57623901,0.00500798
5296.50504639,0.00490679
5298.43385376,0.00501405
5300.36266113,0.00491503
5302.29146851,0.00490983
5304.22027588,0.00492090
5306.14908325,0.00484993
5308.07789062,0.00490772
5310.00669800,0.00483126
5311.93550537,0.00485746
5313.86431274,0.00487974
5315.79312012,0.00480430
5317.72192749,0.00485186
5319.65073486,0.00491871
5321.57954224,0.00476152
5323.50834961,0.00472675
5325.43715698,0.00484585
5327.36596436,0.00459809
5329.29477173,0.00464127
5331.22357910,0.00477917
5333.15238647,0.00466798
5335.08119385,0.00472353
5337.01000122,0.00464061
5338.93880859,0.00443257
5340.86761597,0.00449831
5342.79642334,0.00466802
5344.72523071,0.00446937
5346.65403809,0.00450959
5348.58284546,0.00459971
5350.51165283,0.00454528
5352.44046020,0.00463290
5354.36926758,0.00439721
5356.29807495,0.00447826
5358.22688232,0.00451708
5360.15568970,0.00447000
5362.08449707,0.00454154
5364.01330444,0.00432666
5365.94211182,0.00447605
5367.87091919,0.00451570
5369.79972656,0.00447573
5371.72853394,0.00451440
5373.65734131,0.00447834
5375.58614868,0.00442095
5377.51495605,0.00421179
5379.44376343,0.00441572
5381.37257080,0.00449488
5383.30137817,0.00435798
5385.23018555,0.00435431
5387.15899292,0.00420868
5389.08780029,0.00424801
5391.01660767,0.00438280
5392.94541504,0.00427086
5394.87422241,0.00416223
5396.80302978,0.00428789
5398.73183716,0.00430216
5400.66064453,0.00427207
5402.58945190,0.00424442
5404.51825928,0.00416690
5406.44706665,0.00426855
5408.37587402,0.00427113
5410.30468140,0.00415182
5412.23348877,0.00410276
5414.16229614,0.00411254
5416.09110352,0.00413670
5418.01991089,0.00418639
5419.94871826,0.00415971
5421.87752563,0.00415094
5423.80633301,0.00415039
5425.73514038,0.00407577
5427.66394775,0.00410228
5429.59275513,0.00392281
5431.52156250,0.00398475
5433.45036987,0.00410984
5435.37917725,0.00389659
5437.30798462,0.00408360
5439.23679199,0.00410364
5441.16559936,0.00393598
5443.09440674,0.00402450
5445.02321411,0.00396110
5446.95202148,0.00394017
5448.88082886,0.00396579
5450.80963623,0.00391077
5452.73844360,0.00400041
5454.66725098,0.00393987
5456.59605835,0.00383985
5458.52486572,0.00399173
5460.45367310,0.00384891
5462.38248047,0.00382072
5464.31128784,0.00387260
5466.24009521,0.00376924
5468.16890259,0.00390203
5470.09770996,0.00372614
5472.02651733,0.00377075
5473.95532471,0.00388181
5475.88413208,0.00366693
5477.81293945,0.00380821
5479.74174683,0.00376144
5481.67055420,0.00366286
5483.59936157,0.00378895
5485.52816895,0.00376550
5487.45697632,0.00369469
5489.38578369,0.00371009
5491.31459106,0.00370544
5493.24339844,0.00358355
5495.17220581,0.00363771
5497.10101318,0.00372773
5499.02982056,0.00367251
5500.95862793,0.00367949
5502.88743530,0.00368114
5504.81624268,0.00363403
5506.74505005,0.00362068
5508.67385742,0.00362387
5510.60266479,0.00364229
5512.53147217,0.00363161
5514.46027954,0.00356638
5516.38908691,0.00352254
5518.31789429,0.00352774
5520.24670166,0.00356028
5522.17550903,0.00351935
5524.10431641,0.00358727
5526.03312378,0.00356772
5527.96193115,0.00342141
5529.89073853,0.00355757
5531.81954590,0.00354495
5533.74835327,0.00347981
5535.67716064,0.00348129
5537.60596802,0.00339311
5539.53477539,0.00344656
5541.46358276,0.00343189
5543.39239014,0.00338942
5545.32119751,0.00341505
5547.25000488,0.00340994
5549.17881226,0.00335889
5551.10761963,0.00340852
5553.03642700,0.00341069
5554.96523437,0.00334562
5556.89404175,0.00344674
5558.82284912,0.00336774
5560.75165649,0.00330506
5562.68046387,0.00334892
5564.60927124,0.00335574
5566.53807861,0.00337345
5568.46688599,0.00330191
5570.39569336,0.00333317
5572.32450073,0.00339390
5574.25330811,0.00333755
5576.18211548,0.00320413
5578.11092285,0.00322197
5580.03973022,0.00326551
5581.96853760,0.00326114
5583.89734497,0.00329062
5585.82615234,0.00320940
5587.75495972,0.00325497
5589.68376709,0.00322533
5591.61257446,0.00322741
5593.54138184,0.00322771
5595.47018921,0.00311692
5597.39899658,0.00323877
5599.32780395,0.00319939
5601.25661133,0.00317817
5603.18541870,0.00319703
5605.11422607,0.00311358
5607.04303345,0.00313869
5608.97184082,0.00311910
5610.90064819,0.00313849
5612.82945557,0.00316246
5614.75826294,0.00318041
5616.68707031,0.00306780
5618.61587769,0.00301031
5620.54468506,0.00312453
5622.47349243,0.00304401
5624.40229980,0.00303126
5626.33110718,0.00306439
5628.25991455,0.00304035
5630.18872192,0.00307561
5632.11752930,0.00304712
5634.04633667,0.00304036
5635.97514404,0.00301924
5637.90395142,0.00301052
5639.83275879,0.00300883
5641.76156616,0.00291308
5643.69037353,0.00297385
5645.61918091,0.00302254
5647.54798828,0.00294048
5649.47679565,0.00297596
5651.40560303,0.00297915
5653.33441040,0.00293608
5655.26321777,0.00287772
5657.19202515,0.00288277
5659.12083252,0.00290078
5661.04963989,0.00284725
5662.97844727,0.00291899
5664.90725464,0.00293024
5666.83606201,0.00290544
5668.76486938,0.00291098
5670.69367676,0.00292621
5672.62248413,0.00288221
5674.55129150,0.00278483
5676.48009888,0.00285307
5678.40890625,0.00283042
5680.33771362,0.00282809
5682.26652100,0.00285740
5684.19532837,0.00280622
5686.12413574,0.00277163
5688.05294311,0.00271667
5689.98175049,0.00276713
5691.91055786,0.00272970
5693.83936523,0.00266193
5695.76817261,0.00267517
5697.69697998,0.00275175
5699.62578735,0.00276474
5701.55459473,0.00271856
5703.48340210,0.00279962
5705.41220947,0.00273193
5707.34101685,0.00266872
5709.26982422,0.00266260
5711.19863159,0.00271517
5713.12743896,0.00271462
5715.05624634,0.00258607
5716.98505371,0.00263243
5718.91386108,0.00258159
5720.84266846,0.00256711
5722.77147583,0.00259825
5724.70028320,0.00256649
5726.62909058,0.00254103
5728.55789795,0.00254839
5730.48670532,0.00263361
5732.41551270,0.00251010
5734.34432007,0.00254279
5736.27312744,0.00262365
5738.20193481,0.00260152
5740.13074219,0.00262614
5742.05954956,0.00250626
5743.98835693,0.00256573
5745.91716431,0.00256835
5747.84597168,0.00243846
5749.77477905,0.00242202
5751.70358643,0.00242850
5753.63239380,0.00247719
5755.56120117,0.00244968
5757.49000854,0.00245612
5759.41881592,0.00248424
5761.34762329,0.00243332
5763.27643066,0.00240196
5765.20523804,0.00237137
5767.13404541,0.00242018
5769.06285278,0.00250780
5770.99166016,0.00246669
5772.92046753,0.00241815
5774.84927490,0.00238303
5776.77808228,0.00238860
5778.70688965,0.00243452
5780.63569702,0.00238511
5782.56450439,0.00240059
5784.49331177,0.00240405
5786.42211914,0.00239448
5788.35092651,0.00237308
5790.27973389,0.00231328
5792.20854126,0.00236187
5794.13734863,0.00235185
5796.06615601,0.00232603
5797.99496338,0.00229666
5799.92377075,0.00230779
5801.85257812,0.00228163
5803.78138550,0.00227280
5805.71019287,0.00234255
5807.63900024,0.00224907
5809.56780762,0.00229983
5811.49661499,0.00227764
5813.42542236,0.00224385
5815.35422974,0.00227276
5817.28303711,0.00216797
5819.21184448,0.00229482
5821.14065186,0.00227575
5823.06945923,0.00223515
5824.99826660,0.00230060
5826.92707397,0.00222218
5828.85588135,0.00217337
5830.78468872,0.00216888
5832.71349609,0.00221966
5834.64230347,0.00215082
5836.57111084,0.00216338
5838.49991821,0.00220734
5840.42872559,0.00216068
5842.35753296,0.00217015
5844.28634033,0.00212235
5846.21514770,0.00213371
5848.14395508,0.00209603
5850.07276245,0.00207610
5852.00156982,0.00213437
5853.93037720,0.00210893
5855.85918457,0.00208233
5857.78799194,0.00207735
5859.71679932,0.00208676
5861.64560669,0.00206688
5863.57441406,0.00206361
5865.50322144,0.00209831
5867.43202881,0.00207493
5869.36083618,0.00202930
5871.28964355,0.00203835
5873.21845093,0.00199319
5875.14725830,0.00200748
5877.07606567,0.00205753
5879.00487305,0.00199934
5880.93368042,0.00202457
5882.86248779,0.00199337
5884.79129517,0.00201330
5886.72010254,0.00206280
5888.64890991,0.00199504
5890.57771728,0.00202335
5892.50652466,0.00200414
5894.43533203,0.00196486
5896.36413940,0.00198057
5898.29294678,0.00199408
5900.22175415,0.00193551
5902.15056152,0.00191154
5904.07936890,0.00195558
5906.00817627,0.00192685
5907.93698364,0.00190758
5909.86579102,0.00191239
5911.79459839,0.00201483
5913.72340576,0.00195253
5915.65221313,0.00189099
5917.58102051,0.00195146
5919.50982788,0.00183410
5921.43863525,0.00191465
5923.36744263,0.00190430
5925.29625000,0.00180658
5927.22505737,0.00195507
5929.15386475,0.00188526
5931.08267212,0.00180172
5933.01147949,0.00189161
5934.94028686,0.00181768
5936.86909424,0.00179499
5938.79790161,0.00187632
5940.72670898,0.00181645
5942.65551636,0.00184222
5944.58432373,0.00186829
5946.51313110,0.00186143
5948.44193848,0.00189265
5950.37074585,0.00184541
5952.29955322,0.00187221
5954.22836060,0.00183146
5956.15716797,0.00177326
5958.08597534,0.00175766
5960.01478271,0.00175358
5961.94359009,0.00178658
5963.87239746,0.00175605
5965.80120483,0.00178149
5967.73001221,0.00174869
5969.65881958,0.00172070
5971.58762695,0.00178614
5973.51643433,0.00179928
5975.44524170,0.00176872
5977.37404907,0.00178699
5979.30285645,0.00176376
5981.23166382,0.00166906
5983.16047119,0.00174805
5985.08927856,0.00174712
5987.01808594,0.00173422
5988.94689331,0.00176216
5990.87570068,0.00161074
5992.80450806,0.00161294
5994.73331543,0.00168114
5996.66212280,0.00166589
5998.59093018,0.00167445
6000.51973755,0.00168784
