399.26312622,0.00268334
401.19193359,0.00315949
403.12074097,0.00363654
405.04954834,0.00377980
406.97835571,0.00376963
408.90716309,0.00482348
410.83597046,0.00468505
412.76477783,0.00472304
414.69358521,0.00443451
416.62239258,0.00391877
418.55119995,0.00431322
420.48000732,0.00458496
422.40881470,0.00480037
424.33762207,0.00429774
426.26642944,0.00499651
428.19523682,0.00495548
430.12404419,0.00488963
432.05285156,0.00524459
433.98165894,0.00400141
435.91046631,0.00467200
437.83927368,0.00461037
439.76808105,0.00379308
441.69688843,0.00441545
443.62569580,0.00460448
445.55450317,0.00387534
447.48331055,0.00324029
449.41211792,0.00397380
451.34092529,0.00375281
453.26973267,0.00348323
455.19854004,0.00380897
457.12734741,0.00336644
459.05615479,0.00280172
460.98496216,0.00275041
462.91376953,0.00300133
464.84257690,0.00224890
466.77138428,0.00246700
468.70019165,0.00250454
470.62899902,0.00153742
472.55780640,0.00170145
474.48661377,0.00136441
476.41542114,0.00117466
478.34422852,0.00143853
480.27303589,0.00123136
482.20184326,0.00128086
484.13065063,0.00107531
486.05945801,0.00075868
487.98826538,0.00096421
489.91707275,0.00093544
491.84588013,0.00089731
493.77468750,0.00085679
495.70349487,0.00035267
497.63230225,0.00080514
499.56110962,0.00132864
501.48991699,0.00075269
503.41872437,0.00052718
505.34753174,0.00060203
507.27633911,0.00052303
509.20514648,0.00073050
511.13395386,0.00087131
513.06276123,0.00080332
514.99156860,0.00102945
516.92037598,0.00095845
518.84918335,0.00061100
520.77799072,0.00074614
522.70679810,0.00071641
524.63560547,0.00025217
526.56441284,0.00042822
528.49322021,0.00095228
530.42202759,0.00038953
532.35083496,0.00051980
534.27964233,0.00070262
536.20844971,0.00030029
538.13725708,0.00059643
540.06606445,0.00030355
541.99487183,0.00057283
543.92367920,0.00047751
545.85248657,0.00033619
547.78129395,0.00028292
549.71010132,-0.00025757
551.63890869,0.00051754
553.56771606,0.00067684
555.49652344,0.00046223
557.42533081,0.00053531
559.35413818,0.00026726
561.28294556,0.00046360
563.21175293,0.00067950
565.14056030,0.00071831
567.06936768,0.00066848
568.99817505,0.00032015
570.92698242,0.00018455
572.85578979,0.00056637
574.78459717,0.00052116
576.71340454,0.00030570
578.64221191,0.00046482
580.57101929,0.00034814
582.49982666,0.00049924
584.42863403,0.00056464
586.35744141,0.00025588
588.28624878,0.00037392
590.21505615,0.00020941
592.14386353,0.00009408
594.07267090,0.00041523
596.00147827,0.00059488
597.93028564,0.00048819
599.85909302,0.00019560
601.78790039,0.00034204
603.71670776,0.00050881
605.64551514,0.00054871
607.57432251,0.00037086
609.50312988,0.00002710
611.43193726,0.00019349
613.36074463,0.00018024
615.28955200,0.00005857
617.21835938,0.00056999
619.14716675,0.00049402
621.07597412,-0.00001532
623.00478149,0.00046965
624.93358887,0.00028369
626.86239624,-0.00015242
628.79120361,0.00034332
630.72001099,0.00106099
632.64881836,0.00183653
634.57762573,0.00244240
636.50643311,0.00326054
638.43524048,0.00360762
640.36404785,0.00346855
642.29285522,0.00404884
644.22166260,0.00478472
646.15046997,0.00487420
648.07927734,0.00524826
650.00808472,0.00542333
651.93689209,0.00500467
653.86569946,0.00571666
655.79450684,0.00613835
657.72331421,0.00612393
659.65212158,0.00652077
661.58092896,0.00654831
663.50973633,0.00736586
665.43854370,0.00760395
667.36735107,0.00689271
669.29615845,0.00739434
671.22496582,0.00826407
673.15377319,0.00859902
675.08258057,0.00872846
677.01138794,0.00902913
678.94019531,0.00944122
680.86900269,0.00934380
682.79781006,0.00940917
684.72661743,0.00958417
686.65542480,0.00902663
688.58423218,0.00914605
690.51303955,0.00975723
692.44184692,0.01012938
694.37065430,0.01099888
696.29946167,0.01207268
698.22826904,0.01379771
700.15707642,0.01503794
702.08588379,0.01449913
704.01469116,0.01359501
705.94349854,0.01233645
707.87230591,0.01025372
709.80111328,0.00801594
711.72992065,0.00586987
713.65872803,0.00370325
715.58753540,0.00194591
717.51634277,0.00117319
719.44515015,0.00090743
721.37395752,0.00074427
723.30276489,0.00073608
725.23157227,0.00038788
727.16037964,0.00017220
729.08918701,0.00038703
731.01799438,0.00033599
732.94680176,0.00016279
734.87560913,0.00008137
736.80441650,0.00005945
738.73322388,0.00016521
740.66203125,0.00052829
742.59083862,0.00034774
744.51964600,-0.00015635
746.44845337,0.00021493
748.37726074,0.00023618
750.30606812,0.00039864
752.23487549,0.00074654
754.16368286,0.00049088
756.09249023,0.00063005
758.02129761,0.00053705
759.95010498,0.00059505
761.87891235,0.00054562
763.80771973,0.00066224
765.73652710,0.00090879
767.66533447,0.00044622
769.59414185,0.00082056
771.52294922,0.00089218
773.45175659,0.00074884
775.38056396,0.00082991
777.30937134,0.00038716
779.23817871,0.00070143
781.16698608,0.00100918
783.09579346,0.00077535
785.02460083,0.00065215
786.95340820,0.00076937
788.88221558,0.00080984
790.81102295,0.00076868
792.73983032,0.00095456
794.66863770,0.00111714
796.59744507,0.00146185
798.52625244,0.00185154
800.45505981,0.00205163
802.38386719,0.00200994
804.31267456,0.00164904
806.24148193,0.00129114
808.17028931,0.00120145
810.09909668,0.00099503
812.02790405,0.00085348
813.95671143,0.00100643
815.88551880,0.00076447
817.81432617,0.00051719
819.74313354,0.00055493
821.67194092,0.00091732
823.60074829,0.00112539
825.52955566,0.00102942
827.45836304,0.00140734
829.38717041,0.00176305
831.31597778,0.00235217
833.24478516,0.00291649
835.17359253,0.00298123
837.10239990,0.00310674
839.03120728,0.00304856
840.96001465,0.00304675
842.88882202,0.00307698
844.81762939,0.00274869
846.74643677,0.00254707
848.67524414,0.00241397
850.60405151,0.00208855
852.53285889,0.00186216
854.46166626,0.00166087
856.39047363,0.00164839
858.31928101,0.00153522
860.24808838,0.00127128
862.17689575,0.00118631
864.10570313,0.00095425
866.03451050,0.00091851
867.96331787,0.00071934
869.89212524,0.00071136
871.82093262,0.00090942
873.74973999,0.00057223
875.67854736,0.00047434
877.60735474,0.00066012
879.53616211,0.00077766
881.46496948,0.00062032
883.39377686,0.00082387
885.32258423,0.00089367
887.25139160,0.00055826
889.18019897,0.00058442
891.10900635,0.00054011
893.03781372,0.00084134
894.96662109,0.00076890
896.89542847,0.00080852
898.82423584,0.00099116
900.75304321,0.00064876
902.68185059,0.00095958
904.61065796,0.00104189
906.53946533,0.00098444
908.46827271,0.00069931
910.39708008,0.00088607
912.32588745,0.00129612
914.25469482,0.00101686
916.18350220,0.00159995
918.11230957,0.00172227
920.04111694,0.00196448
921.96992432,0.00243098
923.89873169,0.00232587
925.82753906,0.00269726
927.75634644,0.00290638
929.68515381,0.00325434
931.61396118,0.00342229
933.54276855,0.00369474
935.47157593,0.00405263
937.40038330,0.00405140
939.32919067,0.00427716
941.25799805,0.00418303
943.18680542,0.00421884
945.11561279,0.00463025
947.04442017,0.00481566
948.97322754,0.00438670
950.90203491,0.00436794
952.83084229,0.00454112
954.75964966,0.00399868
956.68845703,0.00405560
958.61726440,0.00409359
960.54607178,0.00407248
962.47487915,0.00430313
964.40368652,0.00423541
966.33249390,0.00453957
968.26130127,0.00482356
970.19010864,0.00497710
972.11891602,0.00525669
974.04772339,0.00541499
975.97653076,0.00578076
977.90533813,0.00649422
979.83414551,0.00727397
981.76295288,0.00793509
983.69176025,0.00857395
985.62056763,0.00964542
987.54937500,0.01082030
989.47818237,0.01191662
991.40698975,0.01320423
993.33579712,0.01419165
995.26460449,0.01538777
997.19341187,0.01698645
999.12221924,0.01849779
1001.05102661,0.01959382
1002.97983398,0.02069579
1004.90864136,0.02241827
1006.83744873,0.02394390
1008.76625610,0.02558997
1010.69506348,0.02697335
1012.62387085,0.02812789
1014.55267822,0.02986224
1016.48148560,0.03129314
1018.41029297,0.03274246
1020.33910034,0.03423161
1022.26790771,0.03582087
1024.19671509,0.03727861
1026.12552246,0.03853568
1028.05432983,0.03998259
1029.98313721,0.04077798
1031.91194458,0.04192065
1033.84075195,0.04302391
1035.76955933,0.04345960
1037.69836670,0.04401486
1039.62717407,0.04415252
1041.55598145,0.04415077
1043.48478882,0.04372128
1045.41359619,0.04329434
1047.34240356,0.04285086
1049.27121094,0.04162023
1051.20001831,0.04118301
1053.12882568,0.04069056
1055.05763306,0.03953627
1056.98644043,0.03889665
1058.91524780,0.03782432
1060.84405518,0.03671620
1062.77286255,0.03587090
1064.70166992,0.03453789
1066.63047729,0.03329852
1068.55928467,0.03197843
1070.48809204,0.03040221
1072.41689941,0.02903894
1074.34570679,0.02770097
1076.27451416,0.02648946
1078.20332153,0.02520303
1080.13212891,0.02366281
1082.06093628,0.02280519
1083.98974365,0.02180698
1085.91855103,0.02055140
1087.84735840,0.01984634
1089.77616577,0.01854399
1091.70497314,0.01787274
1093.63378052,0.01753714
1095.56258789,0.01652806
1097.49139526,0.01621249
1099.42020264,0.01562451
1101.34901001,0.01517006
1103.27781738,0.01503195
1105.20662476,0.01460854
1107.13543213,0.01448108
1109.06423950,0.01424290
1110.99304687,0.01396306
1112.92185425,0.01369026
1114.85066162,0.01388857
1116.77946899,0.01379377
1118.70827637,0.01343403
1120.63708374,0.01381844
1122.56589111,0.01367194
1124.49469849,0.01376022
1126.42350586,0.01429730
1128.35231323,0.01438982
1130.28112061,0.01465753
1132.20992798,0.01497957
1134.13873535,0.01555593
1136.06754272,0.01632355
1137.99635010,0.01696320
1139.92515747,0.01799132
1141.85396484,0.01930614
1143.78277222,0.02061787
1145.71157959,0.02189856
1147.64038696,0.02305384
1149.56919434,0.02439222
1151.49800171,0.02568583
1153.42680908,0.02699022
1155.35561646,0.02831565
1157.28442383,0.02913084
1159.21323120,0.03019996
1161.14203857,0.03152254
1163.07084595,0.03265237
1164.99965332,0.03379362
1166.92846069,0.03515535
1168.85726807,0.03655488
1170.78607544,0.03768679
1172.71488281,0.03915607
1174.64369019,0.04068993
1176.57249756,0.04222381
1178.50130493,0.04387783
1180.43011230,0.04543176
1182.35891968,0.04741523
1184.28772705,0.04965547
1186.21653442,0.05174361
1188.14534180,0.05412965
1190.07414917,0.05685614
1192.00295654,0.05925130
1193.93176392,0.06208833
1195.86057129,0.06502011
1197.78937866,0.06769135
1199.71818604,0.07087545
1201.64699341,0.07379216
1203.57580078,0.07686323
1205.50460815,0.07988556
1207.43341553,0.08280523
1209.36222290,0.08569410
1211.29103027,0.08813253
1213.21983765,0.09069704
1215.14864502,0.09282004
1217.07745239,0.09491138
1219.00625977,0.09664843
1220.93506714,0.09806366
1222.86387451,0.09930274
1224.79268188,0.09993205
1226.72148926,0.10097210
1228.65029663,0.10150935
1230.57910400,0.10174590
1232.50791138,0.10201488
1234.43671875,0.10211003
1236.36552612,0.10216555
1238.29433350,0.10177069
1240.22314087,0.10165019
1242.15194824,0.10123494
1244.08075562,0.10063671
1246.00956299,0.10016960
1247.93837036,0.09963912
1249.86717773,0.09897330
1251.79598511,0.09802277
1253.72479248,0.09725605
1255.65359985,0.09593478
1257.58240723,0.09461410
1259.51121460,0.09319501
1261.44002197,0.09147201
1263.36882935,0.09049953
1265.29763672,0.08947577
1267.22644409,0.08840868
1269.15525146,0.08704323
1271.08405884,0.08548048
1273.01286621,0.08435030
1274.94167358,0.08273727
1276.87048096,0.08104853
1278.79928833,0.07947343
1280.72809570,0.07769611
1282.65690308,0.07648154
1284.58571045,0.07518905
1286.51451782,0.07341019
1288.44332520,0.07211311
1290.37213257,0.07125832
1292.30093994,0.07064177
1294.22974731,0.06998669
1296.15855469,0.06944600
1298.08736206,0.06966522
1300.01616943,0.06982441
1301.94497681,0.06973593
1303.87378418,0.07044957
1305.80259155,0.07129688
1307.73139893,0.07188295
1309.66020630,0.07332964
1311.58901367,0.07449197
1313.51782104,0.07550257
1315.44662842,0.07762033
1317.37543579,0.07931501
1319.30424316,0.08121204
1321.23305054,0.08402276
1323.16185791,0.08678976
1325.09066528,0.08936349
1327.01947266,0.09164978
1328.94828003,0.09396667
1330.87708740,0.09632310
1332.80589478,0.09848581
1334.73470215,0.10035662
1336.66350952,0.10136276
1338.59231689,0.10028048
1340.52112427,0.10139223
1342.44993164,0.10589987
1344.37873901,0.10673858
1346.30754639,0.10644919
1348.23635376,0.10647999
1350.16516113,0.10543187
1352.09396851,0.10550296
1354.02277588,0.10402834
1355.95158325,0.10303074
1357.88039062,0.10256223
1359.80919800,0.10072689
1361.73800537,0.09642400
1363.66681274,0.09491248
1365.59562012,0.09982397
1367.52442749,0.09754241
1369.45323486,0.09629473
1371.38204224,0.09809235
1373.31084961,0.09256756
1375.23965698,0.09317581
1377.16846436,0.09560409
1379.09727173,0.09522803
1381.02607910,0.09545377
1382.95488647,0.09527073
1384.88369385,0.09522583
1386.81250122,0.09063029
1388.74130859,0.09195634
1390.67011597,0.09986039
1392.59892334,0.09714853
1394.52773071,0.09064825
1396.45653809,0.09539967
1398.38534546,0.09516530
1400.31415283,0.09449057
1402.24296021,0.10246652
1404.17176758,0.09664735
1406.10057495,0.09730887
1408.02938232,0.10130489
1409.95818970,0.09741680
1411.88699707,0.09956797
1413.81580444,0.09597613
1415.74461182,0.09763606
1417.67341919,0.08763690
1419.60222656,0.07823482
1421.53103394,0.09081686
1423.45984131,0.08760811
1425.38864868,0.08496716
1427.31745605,0.08639415
1429.24626343,0.07944661
1431.17507080,0.07732608
1433.10387817,0.07862005
1435.03268555,0.07135278
1436.96149292,0.06021213
1438.89030029,0.06897249
1440.81910767,0.07064158
1442.74791504,0.06516309
1444.67672241,0.06874279
1446.60552979,0.06278963
1448.53433716,0.06358251
1450.46314453,0.06574475
1452.39195190,0.06688973
1454.32075928,0.06949524
1456.24956665,0.05688416
1458.17837402,0.05958018
1460.10718140,0.07990228
1462.03598877,0.08490972
1463.96479614,0.08419587
1465.89360352,0.08769836
1467.82241089,0.10051579
1469.75121826,0.10807061
1471.68002563,0.09551224
1473.60883301,0.10077670
1475.53764038,0.11527759
1477.46644775,0.12438987
1479.39525513,0.13710627
1481.32406250,0.13885514
1483.25286987,0.14795893
1485.18167725,0.15272850
1487.11048462,0.14989769
1489.03929199,0.14913204
1490.96809937,0.15025371
1492.89690674,0.17560439
1494.82571411,0.17092198
1496.75452148,0.15326461
1498.68332886,0.17426971
1500.61213623,0.17977369
1502.54094360,0.19333094
1504.46975098,0.18187162
1506.39855835,0.13094777
1508.32736572,0.16160789
1510.25617310,0.19014278
1512.18498047,0.18418112
1514.11378784,0.20012978
1516.04259521,0.17956294
1517.97140259,0.18761876
1519.90020996,0.18070713
1521.82901733,0.15608415
1523.75782471,0.19241419
1525.68663208,0.18839335
1527.61543945,0.18810734
1529.54424683,0.20891343
1531.47305420,0.20023340
1533.40186157,0.18287168
1535.33066895,0.19465873
1537.25947632,0.20834926
1539.18828369,0.14719765
1541.11709106,0.15474668
1543.04589844,0.18628851
1544.97470581,0.17862809
1546.90351318,0.21265900
1548.83232056,0.19773272
1550.76112793,0.20412403
1552.68993530,0.20253327
1554.61874268,0.18380719
1556.54755005,0.19678111
1558.47635742,0.13658261
1560.40516479,0.14894757
1562.33397217,0.21391493
1564.26277954,0.20152077
1566.19158691,0.20769837
1568.12039429,0.20507783
1570.04920166,0.18118131
1571.97800903,0.21056081
1573.90681641,0.21224526
1575.83562378,0.16707385
1577.76443115,0.19037744
1579.69323853,0.21487558
1581.62204590,0.20559353
1583.55085327,0.21146375
1585.47966064,0.20790796
1587.40846802,0.20955367
1589.33727539,0.20771025
1591.26608276,0.20775762
1593.19489014,0.20780450
1595.12369751,0.20529458
1597.05250488,0.20841783
1598.98131226,0.20692983
1600.91011963,0.20813796
1602.83892700,0.20419498
1604.76773437,0.20786276
1606.69654175,0.20459959
1608.62534912,0.20396321
1610.55415649,0.20364240
1612.48296387,0.20510900
1614.41177124,0.20781356
1616.34057861,0.16867925
1618.26938599,0.18403105
1620.19819336,0.21458837
1622.12700073,0.18932803
1624.05580811,0.19067849
1625.98461548,0.20041016
1627.91342285,0.19928682
1629.84223022,0.19815826
1631.77103760,0.21218701
1633.69984497,0.19452022
1635.62865234,0.15938523
1637.55745972,0.18714651
1639.48626709,0.20627539
1641.41507446,0.20107867
1643.34388184,0.20682755
1645.27268921,0.18527624
1647.20149658,0.16183773
1649.13030396,0.20343938
1651.05911133,0.19167113
1652.98791870,0.12092283
1654.91672607,0.16754481
1656.84553345,0.21123478
1658.77434082,0.20182677
1660.70314819,0.20750247
1662.63195557,0.18766615
1664.56076294,0.19867671
1666.48957031,0.21368986
1668.41837769,0.18531787
1670.34718506,0.18021397
1672.27599243,0.20523189
1674.20479980,0.18847659
1676.13360718,0.18084136
1678.06241455,0.20918021
1679.99122192,0.20102631
1681.92002930,0.19852138
1683.84883667,0.15990670
1685.77764404,0.15913036
1687.70645142,0.21982846
1689.63525879,0.18954891
1691.56406616,0.20967731
1693.49287354,0.21272007
1695.42168091,0.15377140
1697.35048828,0.19170541
1699.27929565,0.16701844
1701.20810303,0.15020657
1703.13691040,0.20692343
1705.06571777,0.18886617
1706.99452515,0.19091764
1708.92333252,0.20781100
1710.85213989,0.19909027
1712.78094727,0.20280777
1714.70975464,0.18728192
1716.63856201,0.16747624
1718.56736938,0.16515610
1720.49617676,0.19691041
1722.42498413,0.20438573
1724.35379150,0.18924353
1726.28259888,0.20638798
1728.21140625,0.18987125
1730.14021362,0.19165215
1732.06902100,0.18623973
1733.99782837,0.14042383
1735.92663574,0.17679842
1737.85544312,0.19549093
1739.78425049,0.17317802
1741.71305786,0.18924803
1743.64186523,0.19169192
1745.57067261,0.19209233
1747.49947998,0.19352034
1749.42828735,0.18471389
1751.35709473,0.17660064
1753.28590210,0.19669834
1755.21470947,0.20572051
1757.14351685,0.18691233
1759.07232422,0.20639601
1761.00113159,0.19319227
1762.92993896,0.18655440
1764.85874634,0.21422288
1766.78755371,0.19177741
1768.71636108,0.19388726
1770.64516846,0.19230688
1772.57397583,0.17225048
1774.50278320,0.19319457
1776.43159058,0.20425360
1778.36039795,0.20126238
1780.28920532,0.19864124
1782.21801270,0.20042376
1784.14682007,0.19993660
1786.07562744,0.19567183
1788.00443481,0.20633724
1789.93324219,0.20060596
1791.86204956,0.18081260
1793.79085693,0.18911009
1795.71966431,0.20333752
1797.64847168,0.20061012
1799.57727905,0.19724211
1801.50608643,0.19387113
1803.43489380,0.20039867
1805.36370117,0.20468342
1807.29250854,0.20198056
1809.22131592,0.20249049
1811.15012329,0.19686630
1813.07893066,0.20334688
1815.00773804,0.20424217
1816.93654541,0.20171005
1818.86535278,0.20332347
1820.79416016,0.20265073
1822.72296753,0.20550257
1824.65177490,0.19139850
1826.58058228,0.19887207
1828.50938965,0.19899395
1830.43819702,0.18606547
1832.36700439,0.20343515
1834.29581177,0.20197946
1836.22461914,0.20153067
1838.15342651,0.20085394
1840.08223389,0.20221332
1842.01104126,0.20221095
1843.93984863,0.17850477
1845.86865601,0.19102371
1847.79746338,0.20180568
1849.72627075,0.19724897
1851.65507812,0.20333025
1853.58388550,0.19905831
1855.51269287,0.20112807
1857.44150024,0.19954443
1859.37030762,0.19848034
1861.29911499,0.20001051
1863.22792236,0.19747558
1865.15672974,0.19967455
1867.08553711,0.19248393
1869.01434448,0.18431556
1870.94315186,0.19194618
1872.87195923,0.19932756
1874.80076660,0.19599655
1876.72957397,0.19721043
1878.65838135,0.19640106
1880.58718872,0.19515583
1882.51599609,0.19703361
1884.44480347,0.19352704
1886.37361084,0.19663498
1888.30241821,0.19188425
1890.23122559,0.18796220
1892.16003296,0.19550145
1894.08884033,0.19228558
1896.01764771,0.19167040
1897.94645508,0.19380614
1899.87526245,0.19264972
1901.80406982,0.19327241
1903.73287720,0.19178742
1905.66168457,0.19264221
1907.59049194,0.19069354
1909.51929932,0.18940398
1911.44810669,0.19055378
1913.37691406,0.19088772
1915.30572144,0.19255745
1917.23452881,0.18372533
1919.16333618,0.18394125
1921.09214355,0.19099617
1923.02095093,0.18471649
1924.94975830,0.18872488
1926.87856567,0.19067875
1928.80737305,0.18826893
1930.73618042,0.19059470
1932.66498779,0.18760954
1934.59379517,0.18961571
1936.52260254,0.18812339
1938.45140991,0.18863648
1940.38021729,0.18857631
1942.30902466,0.18213820
1944.23783203,0.18589464
1946.16663940,0.18764478
1948.09544678,0.18742159
1950.02425415,0.18815568
1951.95306152,0.18733740
1953.88186890,0.18774009
1955.81067627,0.18655598
1957.73948364,0.18715969
1959.66829102,0.18662727
1961.59709839,0.18634345
1963.52590576,0.18705025
1965.45471313,0.18553971
1967.38352051,0.18365765
1969.31232788,0.18522398
1971.24113525,0.18673071
1973.16994263,0.18522725
1975.09875000,0.18587583
1977.02755737,0.18498185
1978.95636475,0.18496343
1980.88517212,0.18490620
1982.81397949,0.18405816
1984.74278687,0.18484248
1986.67159424,0.18296701
1988.60040161,0.18351808
1990.52920898,0.18177645
1992.45801636,0.17945734
1994.38682373,0.18242434
1996.31563110,0.18270326
1998.24443848,0.18171272
2000.17324585,0.18162629
2002.10205322,0.18124443
2004.03086060,0.18094303
2005.95966797,0.18047579
2007.88847534,0.17993031
2009.81728271,0.17977434
2011.74609009,0.17925808
2013.67489746,0.17908955
2015.60370483,0.17810392
2017.53251221,0.17644484
2019.46131958,0.17759302
2021.39012695,0.17730232
2023.31893433,0.17676826
2025.24774170,0.17669259
2027.17654907,0.17569523
2029.10535645,0.17597303
2031.03416382,0.17522132
2032.96297119,0.17507473
2034.89177856,0.17455205
2036.82058594,0.17399544
2038.74939331,0.17398404
2040.67820068,0.17271587
2042.60700806,0.17262143
2044.53581543,0.17251123
2046.46462280,0.17224589
2048.39343018,0.17199689
2050.32223755,0.17144963
2052.25104492,0.17112595
2054.17985229,0.17076010
2056.10865967,0.17050087
2058.03746704,0.17008975
2059.96627441,0.16967681
2061.89508179,0.16935959
2063.82388916,0.16873759
2065.75269653,0.16781542
2067.68150391,0.16816783
2069.61031128,0.16810814
2071.53911865,0.16751879
2073.46792603,0.16726449
2075.39673340,0.16663814
2077.32554077,0.16675943
2079.25434814,0.16614574
2081.18315552,0.16595373
2083.11196289,0.16572437
2085.04077026,0.16509297
2086.96957764,0.16507801
2088.89838501,0.16427267
2090.82719238,0.16417412
2092.75599976,0.16400063
2094.68480713,0.16382803
2096.61361450,0.16344345
2098.54242187,0.16284484
2100.47122925,0.16291040
2102.40003662,0.16246901
2104.32884399,0.16235816
2106.25765137,0.16196150
2108.18645874,0.16155685
2110.11526611,0.16137713
2112.04407349,0.16102940
2113.97288086,0.16065334
2115.90168823,0.16041827
2117.83049561,0.16039744
2119.75930298,0.15991241
2121.68811035,0.15973392
2123.61691772,0.15937549
2125.54572510,0.15926874
2127.47453247,0.15901205
2129.40333984,0.15859336
2131.33214722,0.15857324
2133.26095459,0.15808883
2135.18976196,0.15808560
2137.11856934,0.15770049
2139.04737671,0.15744822
2140.97618408,0.15738955
2142.90499146,0.15712149
2144.83379883,0.15701523
2146.76260620,0.15659106
2148.69141357,0.15650758
2150.62022095,0.15611407
2152.54902832,0.15599248
2154.47783569,0.15589732
2156.40664307,0.15564573
2158.33545044,0.15541060
2160.26425781,0.15498708
2162.19306519,0.15495804
2164.12187256,0.15473214
2166.05067993,0.15477264
2167.97948730,0.15441567
2169.90829468,0.15414569
2171.83710205,0.15402949
2173.76590942,0.15373114
2175.69471680,0.15376511
2177.62352417,0.15333381
2179.55233154,0.15329438
2181.48113892,0.15300551
2183.40994629,0.15277481
2185.33875366,0.15266803
2187.26756104,0.15221310
2189.19636841,0.15213816
2191.12517578,0.15189776
2193.05398315,0.15180370
2194.98279053,0.15156926
2196.91159790,0.15139663
2198.84040527,0.15113193
2200.76921265,0.15088892
2202.69802002,0.15081292
2204.62682739,0.15058267
2206.55563477,0.15043370
2208.48444214,0.15001449
2210.41324951,0.15000841
2212.34205688,0.14974695
2214.27086426,0.14949933
2216.19967163,0.14939544
2218.12847900,0.14900613
2220.05728638,0.14888212
2221.98609375,0.14862201
2223.91490112,0.14849827
2225.84370850,0.14816463
2227.77251587,0.14800996
2229.70132324,0.14770530
2231.63013062,0.14747864
2233.55893799,0.14743678
2235.48774536,0.14698052
2237.41655273,0.14694123
2239.34536011,0.14653394
2241.27416748,0.14635482
2243.20297485,0.14614160
2245.13178223,0.14585146
2247.06058960,0.14571632
2248.98939697,0.14523524
2250.91820435,0.14511231
2252.84701172,0.14479725
2254.77581909,0.14478944
2256.70462646,0.14443840
2258.63343384,0.14410119
2260.56224121,0.14402486
2262.49104858,0.14356980
2264.41985596,0.14348841
2266.34866333,0.14318022
2268.27747070,0.14312015
2270.20627808,0.14289145
2272.13508545,0.14264058
2274.06389282,0.14249554
2275.99270020,0.14229317
2277.92150757,0.14221816
2279.85031494,0.14191669
2281.77912231,0.14199539
2283.70792969,0.14154872
2285.63673706,0.14128952
2287.56554443,0.14107221
2289.49435181,0.14056933
2291.42315918,0.14035523
2293.35196655,0.13988170
2295.28077393,0.13952383
2297.20958130,0.13888022
2299.13838867,0.13858613
2301.06719604,0.13796231
2302.99600342,0.13714911
2304.92481079,0.13653617
2306.85361816,0.13537557
2308.78242554,0.13449475
2310.71123291,0.13322753
2312.64004028,0.13186428
2314.56884766,0.13061084
2316.49765503,0.12915260
2318.42646240,0.12718657
2320.35526978,0.12531108
2322.28407715,0.12358399
2324.21288452,0.12160450
2326.14169189,0.12044331
2328.07049927,0.11892148
2329.99930664,0.11745572
2331.92811401,0.11635682
2333.85692139,0.11576413
2335.78572876,0.11541551
2337.71453613,0.11499383
2339.64334351,0.11514413
2341.57215088,0.11534328
2343.50095825,0.11716299
2345.42976562,0.11941216
2347.35857300,0.12461900
2349.28738037,0.12906335
2351.21618774,0.12418061
2353.14499512,0.11751647
2355.07380249,0.11298971
2357.00260986,0.10931209
2358.93141724,0.10714789
2360.86022461,0.10581633
2362.78903198,0.10576962
2364.71783936,0.10639637
2366.64664673,0.10791753
2368.57545410,0.11009805
2370.50426147,0.11314863
2372.43306885,0.11632951
2374.36187622,0.11972982
2376.29068359,0.12317464
2378.21949097,0.12579522
2380.14829834,0.12840135
2382.07710571,0.12979168
2384.00591309,0.13066530
2385.93472046,0.13105598
2387.86352783,0.13115630
2389.79233521,0.13123509
2391.72114258,0.13081139
2393.64994995,0.13079262
2395.57875732,0.13046299
2397.50756470,0.13040876
2399.43637207,0.13004942
2401.36517944,0.12977900
2403.29398682,0.12987779
2405.22279419,0.12948199
2407.15160156,0.12954158
2409.08040894,0.12917611
2411.00921631,0.12896606
2412.93802368,0.12895316
2414.86683105,0.12871864
2416.79563843,0.12858313
2418.72444580,0.12830599
2420.65325317,0.12811835
2422.58206055,0.12782520
2424.51086792,0.12770672
2426.43967529,0.12750459
2428.36848267,0.12729701
2430.29729004,0.12704134
2432.22609741,0.12688011
2434.15490479,0.12676758
2436.08371216,0.12656808
2438.01251953,0.12652059
2439.94132690,0.12611780
2441.87013428,0.12602013
2443.79894165,0.12580994
2445.72774902,0.12565216
2447.65655640,0.12554550
2449.58536377,0.12517273
2451.51417114,0.12522238
2453.44297852,0.12492105
2455.37178589,0.12473944
2457.30059326,0.12460813
2459.22940063,0.12441543
2461.15820801,0.12425809
2463.08701538,0.12397522
2465.01582275,0.12392145
2466.94463013,0.12366502
2468.87343750,0.12349982
2470.80224487,0.12330903
2472.73105225,0.12308235
2474.65985962,0.12281474
2476.58866699,0.12275291
2478.51747437,0.12276044
2480.44628174,0.12241037
2482.37508911,0.12229012
2484.30389648,0.12206903
2486.23270386,0.12191846
2488.16151123,0.12179187
2490.09031860,0.12163538
2492.01912598,0.12138911
2493.94793335,0.12119839
2495.87674072,0.12120871
2497.80554810,0.12089191
2499.73435547,0.12082741
2501.66316284,0.12055390
2503.59197021,0.12021310
2505.52077759,0.12011746
2507.44958496,0.12002823
2509.37839233,0.11985227
2511.30719971,0.11955141
2513.23600708,0.11959545
2515.16481445,0.11936080
2517.09362183,0.11922029
2519.02242920,0.11899434
2520.95123657,0.11879209
2522.88004395,0.11869901
2524.80885132,0.11839916
2526.73765869,0.11852472
2528.66646606,0.11816210
2530.59527344,0.11795038
2532.52408081,0.11774866
2534.45288818,0.11746779
2536.38169556,0.11757442
2538.31050293,0.11723170
2540.23931030,0.11716046
2542.16811768,0.11704457
2544.09692505,0.11680380
2546.02573242,0.11659896
2547.95453979,0.11650078
2549.88334717,0.11637405
2551.81215454,0.11603597
2553.74096191,0.11596666
2555.66976929,0.11568198
2557.59857666,0.11566210
2559.52738403,0.11545771
2561.45619141,0.11509494
2563.38499878,0.11511888
2565.31380615,0.11486870
2567.24261353,0.11474018
2569.17142090,0.11466216
2571.10022827,0.11442728
2573.02903564,0.11421824
2574.95784302,0.11412910
2576.88665039,0.11387731
2578.81545776,0.11373866
2580.74426514,0.11361574
2582.67307251,0.11337157
2584.60187988,0.11342277
2586.53068726,0.11306687
2588.45949463,0.11285293
2590.38830200,0.11277524
2592.31710937,0.11253388
2594.24591675,0.11244905
2596.17472412,0.11222186
2598.10353149,0.11204742
2600.03233887,0.11189570
2601.96114624,0.11181135
2603.88995361,0.11158571
2605.81876099,0.11144006
2607.74756836,0.11126038
2609.67637573,0.11103001
2611.60518311,0.11095562
2613.53399048,0.11068805
2615.46279785,0.11061250
2617.39160522,0.11044683
2619.32041260,0.11033958
2621.24921997,0.11006531
2623.17802734,0.10976501
2625.10683472,0.10983588
2627.03564209,0.10961495
2628.96444946,0.10948954
2630.89325684,0.10928118
2632.82206421,0.10909703
2634.75087158,0.10895874
2636.67967895,0.10876957
2638.60848633,0.10861902
2640.53729370,0.10836262
2642.46610107,0.10826610
2644.39490845,0.10803131
2646.32371582,0.10787830
2648.25252319,0.10762469
2650.18133057,0.10753395
2652.11013794,0.10751550
2654.03894531,0.10720979
2655.96775269,0.10711057
2657.89656006,0.10678953
2659.82536743,0.10666513
2661.75417480,0.10657866
2663.68298218,0.10636526
2665.61178955,0.10615285
2667.54059692,0.10597523
2669.46940430,0.10599867
2671.39821167,0.10562640
2673.32701904,0.10552099
2675.25582642,0.10542996
2677.18463379,0.10518337
2679.11344116,0.10514438
2681.04224854,0.10489894
2682.97105591,0.10471946
2684.89986328,0.10453258
2686.82867065,0.10443079
2688.75747803,0.10431685
2690.68628540,0.10411583
2692.61509277,0.10394901
2694.54390015,0.10371268
2696.47270752,0.10350414
2698.40151489,0.10339119
2700.33032227,0.10333878
2702.25912964,0.10317995
2704.18793701,0.10297296
2706.11674438,0.10272908
2708.04555176,0.10255949
2709.97435913,0.10231100
2711.90316650,0.10217150
2713.83197388,0.10212401
2715.76078125,0.10189543
2717.68958862,0.10181352
2719.61839600,0.10159642
2721.54720337,0.10141526
2723.47601074,0.10120556
2725.40481812,0.10108109
2727.33362549,0.10108575
2729.26243286,0.10075397
2731.19124023,0.10057162
2733.12004761,0.10046014
2735.04885498,0.10032643
2736.97766235,0.10012561
2738.90646973,0.09996502
2740.83527710,0.09975325
2742.76408447,0.09948573
2744.69289185,0.09941077
2746.62169922,0.09916985
2748.55050659,0.09911360
2750.47931396,0.09889258
2752.40812134,0.09865450
2754.33692871,0.09864110
2756.26573608,0.09829514
2758.19454346,0.09802987
2760.12335083,0.09798326
2762.05215820,0.09791146
2763.98096558,0.09766172
2765.90977295,0.09758763
2767.83858032,0.09738307
2769.76738770,0.09709588
2771.69619507,0.09704226
2773.62500244,0.09681946
2775.55380981,0.09667262
2777.48261719,0.09641631
2779.41142456,0.09626019
2781.34023193,0.09615778
2783.26903931,0.09592845
2785.19784668,0.09572252
2787.12665405,0.09553425
2789.05546143,0.09543707
2790.98426880,0.09514345
2792.91307617,0.09503421
2794.84188354,0.09491137
2796.77069092,0.09464093
2798.69949829,0.09430982
2800.62830566,0.09416133
2802.55711304,0.09415137
2804.48592041,0.09383407
2806.41472778,0.09383748
2808.34353516,0.09354903
2810.27234253,0.09325842
2812.20114990,0.09311902
2814.12995728,0.09284171
2816.05876465,0.09289803
2817.98757202,0.09257974
2819.91637939,0.09244017
2821.84518677,0.09225792
2823.77399414,0.09199521
2825.70280151,0.09192857
2827.63160889,0.09156848
2829.56041626,0.09147967
2831.48922363,0.09130035
2833.41803101,0.09106584
2835.34683838,0.09088057
2837.27564575,0.09062906
2839.20445312,0.09035017
2841.13326050,0.09000548
2843.06206787,0.08976503
2844.99087524,0.08933136
2846.91968262,0.08879869
2848.84848999,0.08821435
2850.77729736,0.08794311
2852.70610474,0.08795071
2854.63491211,0.08781692
2856.56371948,0.08766891
2858.49252686,0.08763535
2860.42133423,0.08759180
2862.35014160,0.08732404
2864.27894897,0.08720969
2866.20775635,0.08706531
2868.13656372,0.08693506
2870.06537109,0.08677820
2871.99417847,0.08657897
2873.92298584,0.08656655
2875.85179321,0.08627237
2877.78060059,0.08615798
2879.70940796,0.08607740
2881.63821533,0.08594231
2883.56702270,0.08588713
2885.49583008,0.08561724
2887.42463745,0.08548902
2889.35344482,0.08534417
2891.28225220,0.08512322
2893.21105957,0.08481799
2895.13986694,0.08462869
2897.06867432,0.08451238
2898.99748169,0.08425021
2900.92628906,0.08403764
2902.85509644,0.08376792
2904.78390381,0.08360469
2906.71271118,0.08337058
2908.64151855,0.08294652
2910.57032593,0.08265123
2912.49913330,0.08234034
2914.42794067,0.08177026
2916.35674805,0.08143076
2918.28555542,0.08127472
2920.21436279,0.08099757
2922.14317017,0.08093144
2924.07197754,0.08080877
2926.00078491,0.08074089
2927.92959229,0.08054528
2929.85839966,0.08042055
2931.78720703,0.08054280
2933.71601440,0.08038075
2935.64482178,0.08043973
2937.57362915,0.08045784
2939.50243652,0.08048248
2941.43124390,0.08043329
2943.36005127,0.08015005
2945.28885864,0.08019953
2947.21766602,0.08007466
2949.14647339,0.07988458
2951.07528076,0.07978038
2953.00408813,0.07949032
2954.93289551,0.07920645
2956.86170288,0.07905149
2958.79051025,0.07882388
2960.71931763,0.07862651
2962.64812500,0.07848959
2964.57693237,0.07820723
2966.50573975,0.07814116
2968.43454712,0.07819231
2970.36335449,0.07832808
2972.29216187,0.07829558
2974.22096924,0.07829788
2976.14977661,0.07842068
2978.07858398,0.07822224
2980.00739136,0.07827242
2981.93619873,0.07821524
2983.86500610,0.07817473
2985.79381348,0.07814376
2987.72262085,0.07799165
2989.65142822,0.07804529
2991.58023560,0.07778648
2993.50904297,0.07760537
2995.43785034,0.07747217
2997.36665771,0.07738382
2999.29546509,0.07727882
3001.22427246,0.07709742
3003.15307983,0.07696500
3005.08188721,0.07672197
3007.01069458,0.07679415
3008.93950195,0.07659433
3010.86830933,0.07622677
3012.79711670,0.07593773
3014.72592407,0.07572347
3016.65473145,0.07574715
3018.58353882,0.07565027
3020.51234619,0.07564718
3022.44115356,0.07545614
3024.36996094,0.07517914
3026.29876831,0.07499783
3028.22757568,0.07497966
3030.15638306,0.07466877
3032.08519043,0.07421814
3034.01399780,0.07432125
3035.94280518,0.07409509
3037.87161255,0.07402733
3039.80041992,0.07389630
3041.72922729,0.07360016
3043.65803467,0.07359805
3045.58684204,0.07334839
3047.51564941,0.07330944
3049.44445679,0.07300528
3051.37326416,0.07293500
3053.30207153,0.07303716
3055.23087891,0.07256252
3057.15968628,0.07242393
3059.08849365,0.07236713
3061.01730103,0.07218780
3062.94610840,0.07198399
3064.87491577,0.07177442
3066.80372314,0.07161292
3068.73253052,0.07154693
3070.66133789,0.07158487
3072.59014526,0.07142141
3074.51895264,0.07117467
3076.44776001,0.07098363
3078.37656738,0.07087801
3080.30537476,0.07070690
3082.23418213,0.07060488
3084.16298950,0.07047056
3086.09179687,0.07027905
3088.02060425,0.07016784
3089.94941162,0.06998325
3091.87821899,0.06997193
3093.80702637,0.06967551
3095.73583374,0.06934624
3097.66464111,0.06937300
3099.59344849,0.06912497
3101.52225586,0.06885766
3103.45106323,0.06879255
3105.37987061,0.06875777
3107.30867798,0.06864040
3109.23748535,0.06837119
3111.16629272,0.06819993
3113.09510010,0.06806315
3115.02390747,0.06772799
3116.95271484,0.06757961
3118.88152222,0.06744797
3120.81032959,0.06711747
3122.73913696,0.06702676
3124.66794434,0.06693256
3126.59675171,0.06673725
3128.52555908,0.06670795
3130.45436645,0.06670296
3132.38317383,0.06627177
3134.31198120,0.06599381
3136.24078857,0.06612052
3138.16959595,0.06586525
3140.09840332,0.06558572
3142.02721069,0.06539908
3143.95601807,0.06527516
3145.88482544,0.06506799
3147.81363281,0.06481189
3149.74244019,0.06473162
3151.67124756,0.06447789
3153.60005493,0.06432337
3155.52886230,0.06413496
3157.45766968,0.06402461
3159.38647705,0.06383168
3161.31528442,0.06353241
3163.24409180,0.06351941
3165.17289917,0.06329605
3167.10170654,0.06302583
3169.03051392,0.06286199
3170.95932129,0.06275290
3172.88812866,0.06251708
3174.81693604,0.06250393
3176.74574341,0.06232198
3178.67455078,0.06183154
3180.60335815,0.06199346
3182.53216553,0.06172471
3184.46097290,0.06136044
3186.38978027,0.06139535
3188.31858765,0.06127467
3190.24739502,0.06104989
3192.17620239,0.06085625
3194.10500977,0.06091385
3196.03381714,0.06046159
3197.96262451,0.06032269
3199.89143188,0.06044735
3201.82023926,0.06017504
3203.74904663,0.06003314
3205.67785400,0.05981147
3207.60666138,0.05972120
3209.53546875,0.05953527
3211.46427612,0.05945177
3213.39308350,0.05925263
3215.32189087,0.05903416
3217.25069824,0.05905616
3219.17950562,0.05882785
3221.10831299,0.05882814
3223.03712036,0.05869830
3224.96592773,0.05851777
3226.89473511,0.05839016
3228.82354248,0.05825840
3230.75234985,0.05823299
3232.68115723,0.05809749
3234.60996460,0.05796029
3236.53877197,0.05778327
3238.46757935,0.05778283
3240.39638672,0.05766276
3242.32519409,0.05765561
3244.25400146,0.05742958
3246.18280884,0.05726264
3248.11161621,0.05747798
3250.04042358,0.05720132
3251.96923096,0.05719356
3253.89803833,0.05691823
3255.82684570,0.05682940
3257.75565308,0.05704803
3259.68446045,0.05671519
3261.61326782,0.05674345
3263.54207520,0.05670423
3265.47088257,0.05665986
3267.39968994,0.05649173
3269.32849731,0.05638994
3271.25730469,0.05637607
3273.18611206,0.05609096
3275.11491943,0.05615350
3277.04372681,0.05608206
3278.97253418,0.05606763
3280.90134155,0.05598700
3282.83014893,0.05579934
3284.75895630,0.05581704
3286.68776367,0.05578532
3288.61657104,0.05566430
3290.54537842,0.05542804
3292.47418579,0.05533280
3294.40299316,0.05526385
3296.33180054,0.05535493
3298.26060791,0.05519687
3300.18941528,0.05503403
3302.11822266,0.05509751
3304.04703003,0.05490431
3305.97583740,0.05483685
3307.90464478,0.05464200
3309.83345215,0.05457398
3311.76225952,0.05458538
3313.69106689,0.05457916
3315.61987427,0.05455451
3317.54868164,0.05440787
3319.47748901,0.05439628
3321.40629639,0.05415381
3323.33510376,0.05408433
3325.26391113,0.05397062
3327.19271851,0.05377750
3329.12152588,0.05379488
3331.05033325,0.05379152
3332.97914062,0.05375160
3334.90794800,0.05348857
3336.83675537,0.05335377
3338.76556274,0.05338854
3340.69437012,0.05338417
3342.62317749,0.05314310
3344.55198486,0.05307282
3346.48079224,0.05305069
3348.40959961,0.05286589
3350.33840698,0.05278490
3352.26721436,0.05254368
3354.19602173,0.05255967
3356.12482910,0.05244955
3358.05363647,0.05235462
3359.98244385,0.05223911
3361.91125122,0.05203612
3363.84005859,0.05206296
3365.76886597,0.05184729
3367.69767334,0.05180602
3369.62648071,0.05169249
3371.55528809,0.05173077
3373.48409546,0.05157956
3375.41290283,0.05151119
3377.34171020,0.05160530
3379.27051758,0.05119479
3381.19932495,0.05133381
3383.12813232,0.05109419
3385.05693970,0.05089094
3386.98574707,0.05088604
3388.91455444,0.05078844
3390.84336182,0.05065705
3392.77216919,0.05017625
3394.70097656,0.05045553
3396.62978394,0.05019313
3398.55859131,0.05003633
3400.48739868,0.05003265
3402.41620605,0.04971427
3404.34501343,0.04991217
3406.27382080,0.04978921
3408.20262817,0.04990662
3410.13143555,0.04963011
3412.06024292,0.04949000
3413.98905029,0.04948447
3415.91785767,0.04928475
3417.84666504,0.04931021
3419.77547241,0.04885380
3421.70427979,0.04883218
3423.63308716,0.04888228
3425.56189453,0.04894455
3427.49070190,0.04871460
3429.41950928,0.04854394
3431.34831665,0.04853792
3433.27712402,0.04830879
3435.20593140,0.04843614
3437.13473877,0.04794760
3439.06354614,0.04807444
3440.99235352,0.04795432
3442.92116089,0.04772669
3444.84996826,0.04797455
3446.77877563,0.04716571
3448.70758301,0.04739968
3450.63639038,0.04772986
3452.56519775,0.04747991
3454.49400513,0.04753856
3456.42281250,0.04739988
3458.35161987,0.04732516
3460.28042725,0.04715773
3462.20923462,0.04697207
3464.13804199,0.04695786
3466.06684937,0.04704700
3467.99565674,0.04678522
3469.92446411,0.04684722
3471.85327148,0.04692980
3473.78207886,0.04672294
3475.71088623,0.04661147
3477.63969360,0.04661756
3479.56850098,0.04661845
3481.49730835,0.04596384
3483.42611572,0.04618428
3485.35492310,0.04645628
3487.28373047,0.04619588
3489.21253784,0.04622354
3491.14134521,0.04622193
3493.07015259,0.04645320
3494.99895996,0.04611538
3496.92776733,0.04597596
3498.85657471,0.04608227
3500.78538208,0.04602227
3502.71418945,0.04527057
3504.64299683,0.04524709
3506.57180420,0.04624510
3508.50061157,0.04543620
3510.42941895,0.04540250
3512.35822632,0.04578919
3514.28703369,0.04576322
3516.21584106,0.04598518
3518.14464844,0.04558998
3520.07345581,0.04586035
3522.00226318,0.04531319
3523.93107056,0.04463612
3525.85987793,0.04483944
3527.78868530,0.04496336
3529.71749268,0.04505304
3531.64630005,0.04533368
3533.57510742,0.04577789
3535.50391479,0.04521734
3537.43272217,0.04508160
3539.36152954,0.04561753
3541.29033691,0.04543329
3543.21914429,0.04503108
3545.14795166,0.04410033
3547.07675903,0.04342740
3549.00556641,0.04486839
3550.93437378,0.04513423
3552.86318115,0.04400991
3554.79198853,0.04500621
3556.72079590,0.04521946
3558.64960327,0.04496679
3560.57841064,0.04457709
3562.50721802,0.04435694
3564.43602539,0.04466990
3566.36483276,0.04149630
3568.29364014,0.04051017
3570.22244751,0.04391615
3572.15125488,0.04507351
3574.08006226,0.04450407
3576.00886963,0.04462284
3577.93767700,0.04451427
3579.86648437,0.04440156
3581.79529175,0.04433396
3583.72409912,0.04454153
3585.65290649,0.04356361
3587.58171387,0.03982939
3589.51052124,0.04115077
3591.43932861,0.04469983
3593.36813599,0.04332180
3595.29694336,0.04264035
3597.22575073,0.04345702
3599.15455811,0.04382675
3601.08336548,0.04325984
3603.01217285,0.04373225
3604.94098022,0.04458379
3606.86978760,0.04289411
3608.79859497,0.04034704
3610.72740234,0.04130805
3612.65620972,0.04230398
3614.58501709,0.04101105
3616.51382446,0.04401825
3618.44263184,0.04063039
3620.37143921,0.03916770
3622.30024658,0.04433014
3624.22905395,0.04301118
3626.15786133,0.04494527
3628.08666870,0.03805950
3630.01547607,0.03463680
3631.94428345,0.04366449
3633.87309082,0.04248251
3635.80189819,0.04327296
3637.73070557,0.04417119
3639.65951294,0.04344703
3641.58832031,0.04380004
3643.51712769,0.04318953
3645.44593506,0.04366036
3647.37474243,0.03906751
3649.30354980,0.03583197
3651.23235718,0.03635207
3653.16116455,0.04316152
3655.08997192,0.04261229
3657.01877930,0.03819668
3658.94758667,0.04401458
3660.87639404,0.04297797
3662.80520142,0.04361179
3664.73400879,0.04340151
3666.66281616,0.04293124
3668.59162354,0.04170486
3670.52043091,0.03390629
3672.44923828,0.04116612
3674.37804565,0.03907668
3676.30685303,0.03233064
3678.23566040,0.04087114
3680.16446777,0.04173321
3682.09327515,0.04178284
3684.02208252,0.04303955
3685.95088989,0.04238699
3687.87969727,0.03805324
3689.80850464,0.03480993
3691.73731201,0.03978217
3693.66611938,0.04098440
3695.59492676,0.04201705
3697.52373413,0.04197522
3699.45254150,0.04154708
3701.38134888,0.04036850
3703.31015625,0.03887470
3705.23896362,0.04287029
3707.16777100,0.04062278
3709.09657837,0.03958880
3711.02538574,0.03725194
3712.95419312,0.03495825
3714.88300049,0.04109608
3716.81180786,0.04043423
3718.74061523,0.04071777
3720.66942261,0.03986809
3722.59822998,0.03845110
3724.52703735,0.03984396
3726.45584473,0.03696383
3728.38465210,0.04005224
3730.31345947,0.03958330
3732.24226685,0.03635155
3734.17107422,0.03546387
3736.09988159,0.03366449
3738.02868896,0.03560587
3739.95749634,0.03871725
3741.88630371,0.04064120
3743.81511108,0.03128845
3745.74391846,0.02935835
3747.67272583,0.03842931
3749.60153320,0.03305762
3751.53034058,0.03045824
3753.45914795,0.03504898
3755.38795532,0.03769517
3757.31676270,0.03920869
3759.24557007,0.03611773
3761.17437744,0.03751807
3763.10318481,0.03996433
3765.03199219,0.03714292
3766.96079956,0.03787686
3768.88960693,0.03741997
3770.81841431,0.03572556
3772.74722168,0.03872184
3774.67602905,0.03887708
3776.60483643,0.03884462
3778.53364380,0.03776938
3780.46245117,0.03628798
3782.39125854,0.03851241
3784.32006592,0.03770262
3786.24887329,0.03749257
3788.17768066,0.03826581
3790.10648804,0.03815406
3792.03529541,0.03777029
3793.96410278,0.03838330
3795.89291016,0.03615994
3797.82171753,0.03562955
3799.75052490,0.03757644
3801.67933228,0.02971281
3803.60813965,0.03486072
3805.53694702,0.03789200
3807.46575439,0.03078014
3809.39456177,0.03746098
3811.32336914,0.03667554
3813.25217651,0.03787746
3815.18098389,0.03421529
3817.10979126,0.02992080
3819.03859863,0.03790407
3820.96740601,0.03048072
3822.89621338,0.03216089
3824.82502075,0.03762851
3826.75382812,0.03388616
3828.68263550,0.03668085
3830.61144287,0.03508182
3832.54025024,0.03385839
3834.46905762,0.03471753
3836.39786499,0.03289450
3838.32667236,0.02967067
3840.25547974,0.03211639
3842.18428711,0.03469462
3844.11309448,0.03310864
3846.04190186,0.03576395
3847.97070923,0.03521724
3849.89951660,0.03542037
3851.82832397,0.03177035
3853.75713135,0.02359305
3855.68593872,0.02813715
3857.61474609,0.03533638
3859.54355347,0.03433962
3861.47236084,0.03395337
3863.40116821,0.03322383
3865.32997559,0.03083099
3867.25878296,0.03450845
3869.18759033,0.03149331
3871.11639770,0.02913268
3873.04520508,0.03462066
3874.97401245,0.03166925
3876.90281982,0.03426767
3878.83162720,0.03484432
3880.76043457,0.02983968
3882.68924194,0.03447214
3884.61804932,0.03209022
3886.54685669,0.02939435
3888.47566406,0.03444567
3890.40447144,0.03265656
3892.33327881,0.03055088
3894.26208618,0.03347031
3896.19089355,0.03410745
3898.11970093,0.03247508
3900.04850830,0.03073455
3901.97731567,0.03025081
3903.90612305,0.02997390
3905.83493042,0.03049739
3907.76373779,0.03339211
3909.69254517,0.03330077
3911.62135254,0.03294369
3913.55015991,0.03367151
3915.47896728,0.03245939
3917.40777466,0.03150273
3919.33658203,0.03125272
3921.26538940,0.03251421
3923.19419678,0.03238326
3925.12300415,0.03161688
3927.05181152,0.03217052
3928.98061890,0.03249344
3930.90942627,0.03184190
3932.83823364,0.03067081
3934.76704102,0.03203578
3936.69584839,0.03237934
3938.62465576,0.03198428
3940.55346313,0.03235786
3942.48227051,0.03106730
3944.41107788,0.03125416
3946.33988525,0.03186701
3948.26869263,0.03109132
3950.19750000,0.03102372
3952.12630737,0.03156110
3954.05511475,0.03148955
3955.98392212,0.03143686
3957.91272949,0.03146110
3959.84153687,0.03135823
3961.77034424,0.03116880
3963.69915161,0.03094604
3965.62795898,0.03132693
3967.55676636,0.03110928
3969.48557373,0.03100613
3971.41438110,0.03094184
3973.34318848,0.03079465
3975.27199585,0.03088550
3977.20080322,0.03060051
3979.12961060,0.03080150
3981.05841797,0.03054940
3982.98722534,0.03055798
3984.91603271,0.03055913
3986.84484009,0.03047811
3988.77364746,0.03053072
3990.70245483,0.03007450
3992.63126221,0.03030953
3994.56006958,0.03008133
3996.48887695,0.03009411
3998.41768433,0.03018868
4000.34649170,0.03003551
4002.27529907,0.03003090
4004.20410645,0.02976852
4006.13291382,0.02998698
4008.06172119,0.02960199
4009.99052856,0.02958802
4011.91933594,0.02968275
4013.84814331,0.02946939
4015.77695068,0.02953830
4017.70575806,0.02941267
4019.63456543,0.02944312
4021.56337280,0.02923684
4023.49218018,0.02927493
4025.42098755,0.02906765
4027.34979492,0.02901797
4029.27860229,0.02904338
4031.20740967,0.02886901
4033.13621704,0.02899737
4035.06502441,0.02874310
4036.99383179,0.02882442
4038.92263916,0.02867576
4040.85144653,0.02864808
4042.78025391,0.02858659
4044.70906128,0.02835278
4046.63786865,0.02848756
4048.56667603,0.02829272
4050.49548340,0.02842041
4052.42429077,0.02823632
4054.35309814,0.02814949
4056.28190552,0.02817738
4058.21071289,0.02802794
4060.13952026,0.02802053
4062.06832764,0.02781805
4063.99713501,0.02793237
4065.92594238,0.02778228
4067.85474976,0.02773517
4069.78355713,0.02770564
4071.71236450,0.02755626
4073.64117187,0.02752002
4075.56997925,0.02743617
4077.49878662,0.02749244
4079.42759399,0.02733073
4081.35640137,0.02732801
4083.28520874,0.02722359
4085.21401611,0.02716587
4087.14282349,0.02704430
4089.07163086,0.02696975
4091.00043823,0.02710023
4092.92924561,0.02693566
4094.85805298,0.02689732
4096.78686035,0.02672623
4098.71566772,0.02679561
4100.64447510,0.02670868
4102.57328247,0.02655848
4104.50208984,0.02653020
4106.43089722,0.02634110
4108.35970459,0.02645849
4110.28851196,0.02632286
4112.21731934,0.02629995
4114.14612671,0.02614822
4116.07493408,0.02609940
4118.00374145,0.02610734
4119.93254883,0.02598447
4121.86135620,0.02607594
4123.79016357,0.02579410
4125.71897095,0.02582242
4127.64777832,0.02575188
4129.57658569,0.02572766
4131.50539307,0.02570395
4133.43420044,0.02553279
4135.36300781,0.02563978
4137.29181519,0.02546747
4139.22062256,0.02547241
4141.14942993,0.02538361
4143.07823730,0.02538924
4145.00704468,0.02529031
4146.93585205,0.02518485
4148.86465942,0.02521658
4150.79346680,0.02502416
4152.72227417,0.02504824
4154.65108154,0.02480892
4156.57988892,0.02486774
4158.50869629,0.02477906
4160.43750366,0.02466042
4162.36631103,0.02475138
4164.29511841,0.02457230
4166.22392578,0.02462319
4168.15273315,0.02447683
4170.08154053,0.02461031
4172.01034790,0.02450987
4173.93915527,0.02434119
4175.86796265,0.02433256
4177.79677002,0.02417273
4179.72557739,0.02423592
4181.65438477,0.02405873
4183.58319214,0.02413218
4185.51199951,0.02398014
4187.44080688,0.02392974
4189.36961426,0.02395432
4191.29842163,0.02379222
4193.22722900,0.02384450
4195.15603638,0.02360882
4197.08484375,0.02368772
4199.01365112,0.02358698
4200.94245850,0.02357181
4202.87126587,0.02358787
4204.80007324,0.02336657
4206.72888062,0.02339774
4208.65768799,0.02333345
4210.58649536,0.02339070
4212.51530273,0.02319416
4214.44411011,0.02318078
4216.37291748,0.02311175
4218.30172485,0.02301046
4220.23053223,0.02310265
4222.15933960,0.02293695
4224.08814697,0.02301910
4226.01695435,0.02284527
4227.94576172,0.02273219
4229.87456909,0.02270253
4231.80337646,0.02267662
4233.73218384,0.02269665
4235.66099121,0.02256850
4237.58979858,0.02260257
4239.51860596,0.02252959
4241.44741333,0.02255358
4243.37622070,0.02236930
4245.30502808,0.02233099
4247.23383545,0.02235738
4249.16264282,0.02218007
4251.09145020,0.02215368
4253.02025757,0.02204453
4254.94906494,0.02209943
4256.87787231,0.02196233
4258.80667969,0.02194018
4260.73548706,0.02190461
4262.66429443,0.02178568
4264.59310181,0.02180828
4266.52190918,0.02167421
4268.45071655,0.02167311
4270.37952393,0.02156164
4272.30833130,0.02160368
4274.23713867,0.02151395
4276.16594604,0.02146658
4278.09475342,0.02150102
4280.02356079,0.02132543
4281.95236816,0.02140668
4283.88117554,0.02127683
4285.80998291,0.02118814
4287.73879028,0.02106856
4289.66759766,0.02109232
4291.59640503,0.02113854
4293.52521240,0.02093240
4295.45401978,0.02095930
4297.38282715,0.02089478
4299.31163452,0.02094602
4301.24044189,0.02088547
4303.16924927,0.02079270
4305.09805664,0.02073097
4307.02686401,0.02068514
4308.95567139,0.02073849
4310.88447876,0.02057365
4312.81328613,0.02054366
4314.74209351,0.02043132
4316.67090088,0.02042713
4318.59970825,0.02039029
4320.52851562,0.02025334
4322.45732300,0.02027495
4324.38613037,0.02023887
4326.31493774,0.02028001
4328.24374512,0.02015084
4330.17255249,0.02002808
4332.10135986,0.02003749
4334.03016724,0.02009408
4335.95897461,0.01991386
4337.88778198,0.01982371
4339.81658936,0.01992563
4341.74539673,0.01979798
4343.67420410,0.01981569
4345.60301147,0.01965511
4347.53181885,0.01965410
4349.46062622,0.01964213
4351.38943359,0.01951244
4353.31824097,0.01957567
4355.24704834,0.01941643
4357.17585571,0.01945182
4359.10466309,0.01942048
4361.03347046,0.01931063
4362.96227783,0.01922288
4364.89108520,0.01920058
4366.81989258,0.01919400
4368.74869995,0.01906397
4370.67750732,0.01908292
4372.60631470,0.01903631
4374.53512207,0.01908583
4376.46392944,0.01893462
4378.39273682,0.01889205
4380.32154419,0.01887596
4382.25035156,0.01870316
4384.17915894,0.01884581
4386.10796631,0.01870391
4388.03677368,0.01861140
4389.96558105,0.01859599
4391.89438843,0.01856382
4393.82319580,0.01850814
4395.75200317,0.01842600
4397.68081055,0.01850284
4399.60961792,0.01833585
4401.53842529,0.01826217
4403.46723267,0.01826317
4405.39604004,0.01828431
4407.32484741,0.01824232
4409.25365478,0.01819029
4411.18246216,0.01814346
4413.11126953,0.01801284
4415.04007690,0.01806604
4416.96888428,0.01798635
4418.89769165,0.01795984
4420.82649902,0.01787501
4422.75530640,0.01782985
4424.68411377,0.01781653
4426.61292114,0.01770998
4428.54172852,0.01770726
4430.47053589,0.01758648
4432.39934326,0.01768609
4434.32815063,0.01762494
4436.25695801,0.01749650
4438.18576538,0.01749195
4440.11457275,0.01747639
4442.04338013,0.01744756
4443.97218750,0.01732542
4445.90099487,0.01743600
4447.82980225,0.01728146
4449.75860962,0.01722351
4451.68741699,0.01721561
4453.61622437,0.01713095
4455.54503174,0.01720770
4457.47383911,0.01706208
4459.40264648,0.01702966
4461.33145386,0.01691919
4463.26026123,0.01690657
4465.18906860,0.01688426
4467.11787598,0.01689536
4469.04668335,0.01691123
4470.97549072,0.01669299
4472.90429810,0.01672537
4474.83310547,0.01658631
4476.76191284,0.01661205
4478.69072021,0.01663364
4480.61952759,0.01650574
4482.54833496,0.01656209
4484.47714233,0.01652535
4486.40594971,0.01647400
4488.33475708,0.01629619
4490.26356445,0.01636343
4492.19237183,0.01634751
4494.12117920,0.01623264
4496.04998657,0.01620529
4497.97879395,0.01608200
4499.90760132,0.01612921
4501.83640869,0.01607630
4503.76521606,0.01605707
4505.69402344,0.01599967
4507.62283081,0.01597263
4509.55163818,0.01599295
4511.48044556,0.01590610
4513.40925293,0.01583260
4515.33806030,0.01578133
4517.26686768,0.01581183
4519.19567505,0.01568619
4521.12448242,0.01565041
4523.05328979,0.01563253
4524.98209717,0.01565092
4526.91090454,0.01564111
4528.83971191,0.01550984
4530.76851929,0.01548290
4532.69732666,0.01535998
4534.62613403,0.01540210
4536.55494141,0.01531151
4538.48374878,0.01527712
4540.41255615,0.01532342
4542.34136353,0.01522977
4544.27017090,0.01525494
4546.19897827,0.01510557
4548.12778564,0.01515854
4550.05659302,0.01512997
4551.98540039,0.01501697
4553.91420776,0.01501982
4555.84301514,0.01493241
4557.77182251,0.01497707
4559.70062988,0.01489447
4561.62943726,0.01480727
4563.55824463,0.01477702
4565.48705200,0.01478955
4567.41585937,0.01472646
4569.34466675,0.01468575
4571.27347412,0.01469682
4573.20228149,0.01457205
4575.13108887,0.01464448
4577.05989624,0.01460224
4578.98870361,0.01445300
4580.91751099,0.01442531
4582.84631836,0.01439453
4584.77512573,0.01435570
4586.70393311,0.01435842
4588.63274048,0.01428068
4590.56154785,0.01422647
4592.49035522,0.01428841
4594.41916260,0.01419523
4596.34796997,0.01429288
4598.27677734,0.01417681
4600.20558472,0.01399976
4602.13439209,0.01410171
4604.06319946,0.01401330
4605.99200684,0.01400285
4607.92081421,0.01392435
4609.84962158,0.01391751
4611.77842895,0.01391634
4613.70723633,0.01387691
4615.63604370,0.01380303
4617.56485107,0.01373764
4619.49365845,0.01383307
4621.42246582,0.01363921
4623.35127319,0.01366287
4625.28008057,0.01361920
4627.20888794,0.01353409
4629.13769531,0.01358716
4631.06650269,0.01342926
4632.99531006,0.01348182
4634.92411743,0.01338406
4636.85292480,0.01340175
4638.78173218,0.01342840
4640.71053955,0.01328622
4642.63934692,0.01329501
4644.56815430,0.01326907
4646.49696167,0.01326967
4648.42576904,0.01317464
4650.35457642,0.01315190
4652.28338379,0.01310931
4654.21219116,0.01311144
4656.14099853,0.01309280
4658.06980591,0.01296448
4659.99861328,0.01292332
4661.92742065,0.01285708
4663.85622803,0.01292275
4665.78503540,0.01289662
4667.71384277,0.01290692
4669.64265015,0.01288439
4671.57145752,0.01279778
4673.50026489,0.01280104
4675.42907227,0.01269729
4677.35787964,0.01267713
4679.28668701,0.01263546
4681.21549438,0.01264495
4683.14430176,0.01261782
4685.07310913,0.01260225
4687.00191650,0.01254230
4688.93072388,0.01245230
4690.85953125,0.01254409
4692.78833862,0.01243651
4694.71714600,0.01237554
4696.64595337,0.01235484
4698.57476074,0.01237629
4700.50356812,0.01234272
4702.43237549,0.01222894
4704.36118286,0.01223017
4706.28999023,0.01214277
4708.21879761,0.01219472
4710.14760498,0.01215629
4712.07641235,0.01214024
4714.00521973,0.01210366
4715.93402710,0.01201457
4717.86283447,0.01205665
4719.79164185,0.01196254
4721.72044922,0.01198442
4723.64925659,0.01192532
4725.57806396,0.01186230
4727.50687134,0.01182859
4729.43567871,0.01179702
4731.36448608,0.01179471
4733.29329346,0.01173618
4735.22210083,0.01181548
4737.15090820,0.01170590
4739.07971558,0.01171801
4741.00852295,0.01167294
4742.93733032,0.01150171
4744.86613770,0.01161816
4746.79494507,0.01164548
4748.72375244,0.01161398
4750.65255981,0.01149874
4752.58136719,0.01145438
4754.51017456,0.01150738
4756.43898193,0.01147805
4758.36778931,0.01141782
4760.29659668,0.01140188
4762.22540405,0.01141208
4764.15421143,0.01132683
4766.08301880,0.01126541
4768.01182617,0.01122813
4769.94063354,0.01127585
4771.86944092,0.01120254
4773.79824829,0.01116262
4775.72705566,0.01120611
4777.65586304,0.01109283
4779.58467041,0.01110728
4781.51347778,0.01107017
4783.44228516,0.01097020
4785.37109253,0.01089327
4787.29989990,0.01097431
4789.22870728,0.01104470
4791.15751465,0.01089680
4793.08632202,0.01085237
4795.01512939,0.01084740
4796.94393677,0.01082570
4798.87274414,0.01076885
4800.80155151,0.01082499
4802.73035889,0.01077331
4804.65916626,0.01072608
4806.58797363,0.01075993
4808.51678101,0.01060947
4810.44558838,0.01060480
4812.37439575,0.01054699
4814.30320312,0.01062757
4816.23201050,0.01057801
4818.16081787,0.01046506
4820.08962524,0.01059621
4822.01843262,0.01042191
4823.94723999,0.01041290
4825.87604736,0.01036371
4827.80485474,0.01031108
4829.73366211,0.01036179
4831.66246948,0.01026442
4833.59127686,0.01029578
4835.52008423,0.01021622
4837.44889160,0.01026395
4839.37769897,0.01028517
4841.30650635,0.01022572
4843.23531372,0.01018636
4845.16412109,0.01009079
4847.09292847,0.01013275
4849.02173584,0.01003032
4850.95054321,0.01003806
4852.87935059,0.01008465
4854.80815796,0.01001769
4856.73696533,0.01000066
4858.66577270,0.00989540
4860.59458008,0.00991234
4862.52338745,0.00991041
4864.45219482,0.00982802
4866.38100220,0.00984179
4868.30980957,0.00980256
4870.23861694,0.00974661
4872.16742432,0.00971950
4874.09623169,0.00970979
4876.02503906,0.00973501
4877.95384644,0.00970563
4879.88265381,0.00969823
4881.81146118,0.00966731
4883.74026855,0.00962741
4885.66907593,0.00962897
4887.59788330,0.00953822
4889.52669067,0.00952107
4891.45549805,0.00948725
4893.38430542,0.00948537
4895.31311279,0.00951025
4897.24192017,0.00941005
4899.17072754,0.00938897
4901.09953491,0.00936004
4903.02834228,0.00935298
4904.95714966,0.00929807
4906.88595703,0.00926915
4908.81476440,0.00928263
4910.74357178,0.00923371
4912.67237915,0.00927863
4914.60118652,0.00923130
4916.52999390,0.00916273
4918.45880127,0.00912964
4920.38760864,0.00916347
4922.31641602,0.00908490
4924.24522339,0.00894829
4926.17403076,0.00904475
4928.10283813,0.00900026
4930.03164551,0.00896078
4931.96045288,0.00896236
4933.88926025,0.00896041
4935.81806763,0.00901988
4937.74687500,0.00894882
4939.67568237,0.00888068
4941.60448975,0.00882314
4943.53329712,0.00879484
4945.46210449,0.00882047
4947.39091187,0.00879183
4949.31971924,0.00871369
4951.24852661,0.00876926
4953.17733398,0.00873373
4955.10614136,0.00863486
4957.03494873,0.00865003
4958.96375610,0.00854237
4960.89256348,0.00859578
4962.82137085,0.00864645
4964.75017822,0.00861607
4966.67898560,0.00859564
4968.60779297,0.00855022
4970.53660034,0.00856417
4972.46540771,0.00847599
4974.39421509,0.00855080
4976.32302246,0.00848825
4978.25182983,0.00832194
4980.18063721,0.00838197
4982.10944458,0.00835606
4984.03825195,0.00829693
4985.96705933,0.00833096
4987.89586670,0.00835882
4989.82467407,0.00821641
4991.75348145,0.00822067
4993.68228882,0.00821279
4995.61109619,0.00816987
4997.53990356,0.00825700
4999.46871094,0.00812282
5001.39751831,0.00808360
5003.32632568,0.00811614
5005.25513306,0.00809187
5007.18394043,0.00800387
5009.11274780,0.00801275
5011.04155518,0.00808791
5012.97036255,0.00795004
5014.89916992,0.00798050
5016.82797729,0.00800540
5018.75678467,0.00798401
5020.68559204,0.00794531
5022.61439941,0.00785009
5024.54320679,0.00787359
5026.47201416,0.00783833
5028.40082153,0.00780711
5030.32962891,0.00781285
5032.25843628,0.00782229
5034.18724365,0.00772980
5036.11605103,0.00769590
5038.04485840,0.00772593
5039.97366577,0.00764840
5041.90247314,0.00764610
5043.83128052,0.00769358
5045.76008789,0.00765355
5047.68889526,0.00749975
5049.61770264,0.00753799
5051.54651001,0.00757312
5053.47531738,0.00756353
5055.40412476,0.00759657
5057.33293213,0.00744814
5059.26173950,0.00746171
5061.19054687,0.00745676
5063.11935425,0.00740118
5065.04816162,0.00741316
5066.97696899,0.00733569
5068.90577637,0.00729934
5070.83458374,0.00733548
5072.76339111,0.00737796
5074.69219849,0.00731120
5076.62100586,0.00727127
5078.54981323,0.00728276
5080.47862061,0.00731339
5082.40742798,0.00724703
5084.33623535,0.00719064
5086.26504272,0.00723790
5088.19385010,0.00717596
5090.12265747,0.00721738
5092.05146484,0.00720296
5093.98027222,0.00712049
5095.90907959,0.00711005
5097.83788696,0.00710061
5099.76669434,0.00709751
5101.69550171,0.00706895
5103.62430908,0.00701646
5105.55311645,0.00696876
5107.48192383,0.00707668
5109.41073120,0.00703631
5111.33953857,0.00699815
5113.26834595,0.00694100
5115.19715332,0.00680412
5117.12596069,0.00687784
5119.05476807,0.00681221
5120.98357544,0.00684585
5122.91238281,0.00683578
5124.84119019,0.00683511
5126.76999756,0.00691691
5128.69880493,0.00679588
5130.62761230,0.00678268
5132.55641968,0.00671726
5134.48522705,0.00669528
5136.41403442,0.00660548
5138.34284180,0.00665660
5140.27164917,0.00675270
5142.20045654,0.00662076
5144.12926392,0.00669084
5146.05807129,0.00655841
5147.98687866,0.00655962
5149.91568603,0.00662369
5151.84449341,0.00651161
5153.77330078,0.00654248
5155.70210815,0.00649720
5157.63091553,0.00653136
5159.55972290,0.00647487
5161.48853027,0.00646229
5163.41733765,0.00641504
5165.34614502,0.00633173
5167.27495239,0.00650555
5169.20375977,0.00645957
5171.13256714,0.00637075
5173.06137451,0.00634280
5174.99018188,0.00629925
5176.91898926,0.00635365
5178.84779663,0.00632230
5180.77660400,0.00628937
5182.70541138,0.00629826
5184.63421875,0.00620692
5186.56302612,0.00615167
5188.49183350,0.00623252
5190.42064087,0.00619360
5192.34944824,0.00613089
5194.27825562,0.00623771
5196.20706299,0.00619323
5198.13587036,0.00604347
5200.06467773,0.00609079
5201.99348511,0.00607179
5203.92229248,0.00603067
5205.85109985,0.00597255
5207.77990723,0.00586258
5209.70871460,0.00598886
5211.63752197,0.00598684
5213.56632935,0.00600335
5215.49513672,0.00603488
5217.42394409,0.00592095
5219.35275146,0.00593616
5221.28155884,0.00591309
5223.21036621,0.00595800
5225.13917358,0.00589156
5227.06798096,0.00588416
5228.99678833,0.00590090
5230.92559570,0.00582848
5232.85440308,0.00589750
5234.78321045,0.00578019
5236.71201782,0.00583540
5238.64082520,0.00583384
5240.56963257,0.00583803
5242.49843994,0.00588470
5244.42724731,0.00568628
5246.35605469,0.00577667
5248.28486206,0.00562056
5250.21366943,0.00561087
5252.14247681,0.00580659
5254.07128418,0.00561129
5256.00009155,0.00563077
5257.92889893,0.00566680
5259.85770630,0.00565686
5261.78651367,0.00559618
5263.71532104,0.00547637
5265.64412842,0.00557363
5267.57293579,0.00566112
5269.50174316,0.00559617
5271.43055054,0.00552894
5273.35935791,0.00553611
5275.28816528,0.00548065
5277.21697266,0.00554066
5279.14578003,0.00554905
5281.07458740,0.00544414
5283.00339478,0.00545457
5284.93220215,0.00537290
5286.86100952,0.00542879
5288.78981689,0.00551097
5290.71862427,0.00541504
5292.64743164,0.00533857
5294.57623901,0.00530340
5296.50504639,0.00542538
5298.43385376,0.00539561
5300.36266113,0.00525858
5302.29146851,0.00532912
5304.22027588,0.00534125
5306.14908325,0.00527769
5308.07789062,0.00517114
5310.00669800,0.00522907
5311.93550537,0.00536035
5313.86431274,0.00522385
5315.79312012,0.00516993
5317.72192749,0.00520409
5319.65073486,0.00520739
5321.57954224,0.00516241
5323.50834961,0.00511775
5325.43715698,0.00515981
5327.36596436,0.00508313
5329.29477173,0.00504165
5331.22357910,0.00505117
5333.15238647,0.00502301
5335.08119385,0.00503564
5337.01000122,0.00501161
5338.93880859,0.00483897
5340.86761597,0.00495922
5342.79642334,0.00515133
5344.72523071,0.00481229
5346.65403809,0.00487959
5348.58284546,0.00502410
5350.51165283,0.00486485
5352.44046020,0.00485843
5354.36926758,0.00473421
5356.29807495,0.00485045
5358.22688232,0.00486361
5360.15568970,0.00485595
5362.08449707,0.00487815
5364.01330444,0.00473413
5365.94211182,0.00482593
5367.87091919,0.00479238
5369.79972656,0.00482026
5371.72853394,0.00478008
5373.65734131,0.00473104
5375.58614868,0.00472732
5377.51495605,0.00460124
5379.44376343,0.00469269
5381.37257080,0.00470302
5383.30137817,0.00475285
5385.23018555,0.00464159
5387.15899292,0.00457829
5389.08780029,0.00470729
5391.01660767,0.00462015
5392.94541504,0.00459569
5394.87422241,0.00446662
5396.80302978,0.00451191
5398.73183716,0.00459396
5400.66064453,0.00452331
5402.58945190,0.00454125
5404.51825928,0.00448878
5406.44706665,0.00454453
5408.37587402,0.00447920
5410.30468140,0.00435679
5412.23348877,0.00437654
5414.16229614,0.00431390
5416.09110352,0.00434920
5418.01991089,0.00453686
5419.94871826,0.00446810
5421.87752563,0.00439518
5423.80633301,0.00445999
5425.73514038,0.00437323
5427.66394775,0.00440032
5429.59275513,0.00424842
5431.52156250,0.00430244
5433.45036987,0.00448354
5435.37917725,0.00422184
5437.30798462,0.00432376
5439.23679199,0.00435612
5441.16559936,0.00420528
5443.09440674,0.00424324
5445.02321411,0.00413390
5446.95202148,0.00416291
5448.88082886,0.00423636
5450.80963623,0.00418422
5452.73844360,0.00422414
5454.66725098,0.00422053
5456.59605835,0.00415516
5458.52486572,0.00424976
5460.45367310,0.00417940
5462.38248047,0.00415103
5464.31128784,0.00422304
5466.24009521,0.00408327
5468.16890259,0.00413104
5470.09770996,0.00408543
5472.02651733,0.00408536
5473.95532471,0.00412547
5475.88413208,0.00395621
5477.81293945,0.00404232
5479.74174683,0.00408944
5481.67055420,0.00405598
5483.59936157,0.00409133
5485.52816895,0.00406268
5487.45697632,0.00396855
5489.38578369,0.00398180
5491.31459106,0.00398507
5493.24339844,0.00385832
5495.17220581,0.00396379
5497.10101318,0.00398117
5499.02982056,0.00391996
5500.95862793,0.00394351
5502.88743530,0.00390420
5504.81624268,0.00392513
5506.74505005,0.00387734
5508.67385742,0.00383083
5510.60266479,0.00383282
5512.53147217,0.00390263
5514.46027954,0.00393496
5516.38908691,0.00382333
5518.31789429,0.00383364
5520.24670166,0.00388378
5522.17550903,0.00380063
5524.10431641,0.00373890
5526.03312378,0.00379750
5527.96193115,0.00384277
5529.89073853,0.00378129
5531.81954590,0.00373627
5533.74835327,0.00386417
5535.67716064,0.00383983
5537.60596802,0.00367707
5539.53477539,0.00374006
5541.46358276,0.00374373
5543.39239014,0.00372986
5545.32119751,0.00374885
5547.25000488,0.00364306
5549.17881226,0.00360478
5551.10761963,0.00365587
5553.03642700,0.00369310
5554.96523437,0.00369307
5556.89404175,0.00368279
5558.82284912,0.00368314
5560.75165649,0.00371049
5562.68046387,0.00364202
5564.60927124,0.00354257
5566.53807861,0.00356354
5568.46688599,0.00357576
5570.39569336,0.00348812
5572.32450073,0.00346436
5574.25330811,0.00355350
5576.18211548,0.00352197
5578.11092285,0.00348562
5580.03973022,0.00341456
5581.96853760,0.00342155
5583.89734497,0.00352897
5585.82615234,0.00344891
5587.75495972,0.00350964
5589.68376709,0.00355998
5591.61257446,0.00349973
5593.54138184,0.00347253
5595.47018921,0.00349011
5597.39899658,0.00350362
5599.32780395,0.00338487
5601.25661133,0.00342418
5603.18541870,0.00341600
5605.11422607,0.00340418
5607.04303345,0.00339827
5608.97184082,0.00334027
5610.90064819,0.00344945
5612.82945557,0.00337850
5614.75826294,0.00333700
5616.68707031,0.00334994
5618.61587769,0.00334203
5620.54468506,0.00335341
5622.47349243,0.00326482
5624.40229980,0.00330952
5626.33110718,0.00328405
5628.25991455,0.00320972
5630.18872192,0.00324457
5632.11752930,0.00325440
5634.04633667,0.00318781
5635.97514404,0.00319427
5637.90395142,0.00327128
5639.83275879,0.00320299
5641.76156616,0.00322715
5643.69037353,0.00326529
5645.61918091,0.00316190
5647.54798828,0.00318869
5649.47679565,0.00326568
5651.40560303,0.00316138
5653.33441040,0.00314631
5655.26321777,0.00322855
5657.19202515,0.00315161
5659.12083252,0.00316679
5661.04963989,0.00317548
5662.97844727,0.00313856
5664.90725464,0.00309831
5666.83606201,0.00304492
5668.76486938,0.00309083
5670.69367676,0.00302185
5672.62248413,0.00304614
5674.55129150,0.00308991
5676.48009888,0.00301267
5678.40890625,0.00304453
5680.33771362,0.00304991
5682.26652100,0.00304446
5684.19532837,0.00299690
5686.12413574,0.00297279
5688.05294311,0.00305501
5689.98175049,0.00299864
5691.91055786,0.00294444
5693.83936523,0.00297803
5695.76817261,0.00296963
5697.69697998,0.00303904
5699.62578735,0.00299871
5701.55459473,0.00292852
5703.48340210,0.00295165
5705.41220947,0.00291085
5707.34101685,0.00301480
5709.26982422,0.00293781
5711.19863159,0.00285408
5713.12743896,0.00293797
5715.05624634,0.00281386
5716.98505371,0.00287018
5718.91386108,0.00289267
5720.84266846,0.00281158
5722.77147583,0.00281780
5724.70028320,0.00278247
5726.62909058,0.00279540
5728.55789795,0.00279337
5730.48670532,0.00286251
5732.41551270,0.00282866
5734.34432007,0.00277748
5736.27312744,0.00281060
5738.20193481,0.00273934
5740.13074219,0.00272836
5742.05954956,0.00276272
5743.98835693,0.00278003
5745.91716431,0.00273904
5747.84597168,0.00274643
5749.77477905,0.00276664
5751.70358643,0.00273255
5753.63239380,0.00270705
5755.56120117,0.00268024
5757.49000854,0.00275095
5759.41881592,0.00270674
5761.34762329,0.00262978
5763.27643066,0.00262705
5765.20523804,0.00259962
5767.13404541,0.00263907
5769.06285278,0.00264892
5770.99166016,0.00263625
5772.92046753,0.00257613
5774.84927490,0.00255592
5776.77808228,0.00259351
5778.70688965,0.00255662
5780.63569702,0.00256105
5782.56450439,0.00259218
5784.49331177,0.00259747
5786.42211914,0.00251875
5788.35092651,0.00250195
5790.27973389,0.00259582
5792.20854126,0.00255219
5794.13734863,0.00251035
5796.06615601,0.00250532
5797.99496338,0.00249023
5799.92377075,0.00251110
5801.85257812,0.00249037
5803.78138550,0.00249796
5805.71019287,0.00247661
5807.63900024,0.00250697
5809.56780762,0.00249174
5811.49661499,0.00235279
5813.42542236,0.00244825
5815.35422974,0.00249785
5817.28303711,0.00244266
5819.21184448,0.00242895
5821.14065186,0.00242007
5823.06945923,0.00246661
5824.99826660,0.00238925
5826.92707397,0.00243973
5828.85588135,0.00241138
5830.78468872,0.00231350
5832.71349609,0.00243977
5834.64230347,0.00237302
5836.57111084,0.00231925
5838.49991821,0.00235027
5840.42872559,0.00233336
5842.35753296,0.00232595
5844.28634033,0.00232360
5846.21514770,0.00233268
5848.14395508,0.00227664
5850.07276245,0.00229351
5852.00156982,0.00232754
5853.93037720,0.00236162
5855.85918457,0.00229814
5857.78799194,0.00223248
5859.71679932,0.00229702
5861.64560669,0.00226366
5863.57441406,0.00225495
5865.50322144,0.00224396
5867.43202881,0.00223072
5869.36083618,0.00219341
5871.28964355,0.00221862
5873.21845093,0.00233367
5875.14725830,0.00225041
5877.07606567,0.00221353
5879.00487305,0.00219773
5880.93368042,0.00212265
5882.86248779,0.00215228
5884.79129517,0.00219560
5886.72010254,0.00219699
5888.64890991,0.00213888
5890.57771728,0.00212762
5892.50652466,0.00219738
5894.43533203,0.00214798
5896.36413940,0.00213020
5898.29294678,0.00226195
5900.22175415,0.00213646
5902.15056152,0.00208588
5904.07936890,0.00220628
5906.00817627,0.00214258
5907.93698364,0.00212215
5909.86579102,0.00204994
5911.79459839,0.00207365
5913.72340576,0.00210780
5915.65221313,0.00208316
5917.58102051,0.00211023
5919.50982788,0.00202362
5921.43863525,0.00208440
5923.36744263,0.00204952
5925.29625000,0.00199361
5927.22505737,0.00207793
5929.15386475,0.00204331
5931.08267212,0.00202090
5933.01147949,0.00199463
5934.94028686,0.00198426
5936.86909424,0.00198986
5938.79790161,0.00204349
5940.72670898,0.00204040
5942.65551636,0.00198727
5944.58432373,0.00201257
5946.51313110,0.00203730
5948.44193848,0.00200349
5950.37074585,0.00190245
5952.29955322,0.00197849
5954.22836060,0.00195607
5956.15716797,0.00189686
5958.08597534,0.00199098
5960.01478271,0.00189472
5961.94359009,0.00188203
5963.87239746,0.00195013
5965.80120483,0.00194200
5967.73001221,0.00189070
5969.65881958,0.00186593
5971.58762695,0.00195027
5973.51643433,0.00195740
5975.44524170,0.00187953
5977.37404907,0.00185758
5979.30285645,0.00192158
5981.23166382,0.00188501
5983.16047119,0.00187501
5985.08927856,0.00189757
5987.01808594,0.00183072
5988.94689331,0.00186143
5990.87570068,0.00183944
5992.80450806,0.00180125
5994.73331543,0.00184670
5996.66212280,0.00185398
5998.59093018,0.00183301
6000.51973755,0.00183629
