399.26312622,0.00063618
401.19193359,0.00081436
403.12074097,0.00026102
405.04954834,0.00025411
406.97835571,0.00059568
408.90716309,0.00066935
410.83597046,0.00048556
412.76477783,0.00039527
414.69358521,0.00060173
416.62239258,0.00052300
418.55119995,0.00063495
420.48000732,0.00062133
422.40881470,0.00065335
424.33762207,0.00059725
426.26642944,0.00063271
428.19523682,0.00077864
430.12404419,0.00020486
432.05285156,0.00049086
433.98165894,0.00063828
435.91046631,0.00016131
437.83927368,0.00013593
439.76808105,0.00021027
441.69688843,0.00052117
443.62569580,0.00052156
445.55450317,0.00081760
447.48331055,0.00064191
449.41211792,0.00033853
451.34092529,0.00063084
453.26973267,0.00019253
455.19854004,0.00035326
457.12734741,0.00054137
459.05615479,0.00055191
460.98496216,0.00062086
462.91376953,0.00008943
464.84257690,0.00031282
466.77138428,0.00041482
468.70019165,0.00025976
470.62899902,0.00053809
472.55780640,0.00027005
474.48661377,0.00012051
476.41542114,0.00037024
478.34422852,0.00024049
480.27303589,0.00030324
482.20184326,0.00027155
484.13065063,0.00041157
486.05945801,0.00044965
487.98826538,0.00036028
489.91707275,0.00008265
491.84588013,0.00013608
493.77468750,0.00034506
495.70349487,0.00022888
497.63230225,0.00019921
499.56110962,-0.00019293
501.48991699,0.00041969
503.41872437,0.00060011
505.34753174,-0.00006542
507.27633911,0.00040907
509.20514648,0.00013366
511.13395386,0.00014731
513.06276123,0.00042106
514.99156860,0.00022217
516.92037598,0.00073589
518.84918335,0.00039613
520.77799072,0.00021366
522.70679810,0.00033042
524.63560547,0.00026314
526.56441284,0.00056735
528.49322021,0.00022896
530.42202759,0.00018215
532.35083496,0.00030213
534.27964233,0.00025673
536.20844971,0.00015030
538.13725708,-0.00009528
540.06606445,0.00006613
541.99487183,0.00017189
543.92367920,0.00032291
545.85248657,0.00007251
547.78129395,0.00015777
549.71010132,0.00034474
551.63890869,-0.00015541
553.56771606,0.00021406
555.49652344,0.00048663
557.42533081,0.00034649
559.35413818,0.00035491
561.28294556,0.00032586
563.21175293,0.00024169
565.14056030,-0.00012194
567.06936768,0.00001416
568.99817505,0.00028267
570.92698242,0.00019768
572.85578979,-0.00016605
574.78459717,-0.00007929
576.71340454,0.00034488
578.64221191,0.00013564
580.57101929,0.00026007
582.49982666,0.00024207
584.42863403,0.00004292
586.35744141,0.00007121
588.28624878,-0.00019924
590.21505615,0.00018643
592.14386353,0.00022480
594.07267090,0.00000526
596.00147827,0.00045539
597.93028564,0.00024191
599.85909302,0.00034126
601.78790039,0.00052387
603.71670776,-0.00007025
605.64551514,0.00023656
607.57432251,0.00029472
609.50312988,0.00001591
611.43193726,0.00052547
613.36074463,0.00029033
615.28955200,0.00019562
617.21835938,0.00039839
619.14716675,0.00022869
621.07597412,0.00036199
623.00478149,0.00006616
624.93358887,0.00014240
626.86239624,0.00033919
628.79120361,0.00004905
630.72001099,0.00025447
632.64881836,0.00026889
634.57762573,0.00036835
636.50643311,0.00057180
638.43524048,0.00041717
640.36404785,0.00049002
642.29285522,0.00065579
644.22166260,0.00082969
646.15046997,0.00074500
648.07927734,0.00082125
650.00808472,0.00093804
651.93689209,0.00060177
653.86569946,0.00085437
655.79450684,0.00096884
657.72331421,0.00082448
659.65212158,0.00099020
661.58092896,0.00100914
663.50973633,0.00129721
665.43854370,0.00121033
667.36735107,0.00113624
669.29615845,0.00122560
671.22496582,0.00109003
673.15377319,0.00132260
675.08258057,0.00109809
677.01138794,0.00136444
678.94019531,0.00165268
680.86900269,0.00117309
682.79781006,0.00136186
684.72661743,0.00129474
686.65542480,0.00143524
688.58423218,0.00157696
690.51303955,0.00115755
692.44184692,0.00148555
694.37065430,0.00166911
696.29946167,0.00169161
698.22826904,0.00201442
700.15707642,0.00222351
702.08588379,0.00206760
704.01469116,0.00168797
705.94349854,0.00169588
707.87230591,0.00151963
709.80111328,0.00108570
711.72992065,0.00094332
713.65872803,0.00075422
715.58753540,0.00049246
717.51634277,0.00043173
719.44515015,0.00018649
721.37395752,0.00017032
723.30276489,0.00040443
725.23157227,0.00035128
727.16037964,0.00039193
729.08918701,0.00010640
731.01799438,0.00011768
732.94680176,0.00019377
734.87560913,0.00009374
736.80441650,0.00025433
738.73322388,0.00004486
740.66203125,0.00021857
742.59083862,0.00008275
744.51964600,-0.00003567
746.44845337,0.00007190
748.37726074,0.00020898
750.30606812,0.00023989
752.23487549,-0.00016080
754.16368286,0.00026369
756.09249023,0.00019239
758.02129761,0.00021756
759.95010498,0.00027849
761.87891235,0.00015811
763.80771973,0.00051849
765.73652710,-0.00002592
767.66533447,0.00019188
769.59414185,0.00023746
771.52294922,0.00000694
773.45175659,0.00050842
775.38056396,0.00034469
777.30937134,0.00040560
779.23817871,0.00041495
781.16698608,0.00043338
783.09579346,0.00052333
785.02460083,0.00027426
786.95340820,0.00028631
788.88221558,0.00048463
790.81102295,0.00046177
792.73983032,0.00027689
794.66863770,0.00038819
796.59744507,0.00051946
798.52625244,0.00062119
800.45505981,0.00049934
802.38386719,0.00040068
804.31267456,0.00024640
806.24148193,0.00014719
808.17028931,0.00039997
810.09909668,0.00028920
812.02790405,0.00045193
813.95671143,0.00037693
815.88551880,0.00038436
817.81432617,0.00064830
819.74313354,0.00035877
821.67194092,0.00031196
823.60074829,0.00008853
825.52955566,0.00030421
827.45836304,0.00045771
829.38717041,0.00022656
831.31597778,0.00055805
833.24478516,0.00041003
835.17359253,0.00041605
837.10239990,0.00065657
839.03120728,0.00050473
840.96001465,0.00047341
842.88882202,0.00053096
844.81762939,0.00049555
846.74643677,0.00056192
848.67524414,0.00056829
850.60405151,0.00038030
852.53285889,0.00044025
854.46166626,0.00031142
856.39047363,0.00023095
858.31928101,0.00012343
860.24808838,0.00014509
862.17689575,0.00056548
864.10570313,0.00036562
866.03451050,0.00034620
867.96331787,0.00050910
869.89212524,0.00032979
871.82093262,0.00019075
873.74973999,0.00054891
875.67854736,0.00058059
877.60735474,0.00006923
879.53616211,0.00041058
881.46496948,0.00030448
883.39377686,0.00016816
885.32258423,0.00032393
887.25139160,0.00023470
889.18019897,0.00059320
891.10900635,0.00055513
893.03781372,0.00053482
894.96662109,0.00048160
896.89542847,0.00021768
898.82423584,0.00025906
900.75304321,0.00040997
902.68185059,0.00057587
904.61065796,0.00048265
906.53946533,0.00042082
908.46827271,0.00044572
910.39708008,0.00051709
912.32588745,0.00056182
914.25469482,0.00074898
916.18350220,0.00073654
918.11230957,0.00027551
920.04111694,0.00048538
921.96992432,0.00074534
923.89873169,0.00052477
925.82753906,0.00053469
927.75634644,0.00064742
929.68515381,0.00070174
931.61396118,0.00069504
933.54276855,0.00071758
935.47157593,0.00075739
937.40038330,0.00080816
939.32919067,0.00098020
941.25799805,0.00104915
943.18680542,0.00102738
945.11561279,0.00094337
947.04442017,0.00072217
948.97322754,0.00098969
950.90203491,0.00130402
952.83084229,0.00091296
954.75964966,0.00076715
956.68845703,0.00091130
958.61726440,0.00084086
960.54607178,0.00098664
962.47487915,0.00108829
964.40368652,0.00084884
966.33249390,0.00099557
968.26130127,0.00112573
970.19010864,0.00101592
972.11891602,0.00136193
974.04772339,0.00125036
975.97653076,0.00106234
977.90533813,0.00130322
979.83414551,0.00138823
981.76295288,0.00148854
983.69176025,0.00136554
985.62056763,0.00153549
987.54937500,0.00181854
989.47818237,0.00190426
991.40698975,0.00212035
993.33579712,0.00235215
995.26460449,0.00257310
997.19341187,0.00261154
999.12221924,0.00305803
1001.05102661,0.00328174
1002.97983398,0.00320516
1004.90864136,0.00347232
1006.83744873,0.00355045
1008.76625610,0.00392823
1010.69506348,0.00412552
1012.62387085,0.00421745
1014.55267822,0.00453905
1016.48148560,0.00466432
1018.41029297,0.00506445
1020.33910034,0.00524274
1022.26790771,0.00536065
1024.19671509,0.00560014
1026.12552246,0.00566835
1028.05432983,0.00583881
1029.98313721,0.00589812
1031.91194458,0.00618066
1033.84075195,0.00653578
1035.76955933,0.00641525
1037.69836670,0.00632488
1039.62717407,0.00645847
1041.55598145,0.00646684
1043.48478882,0.00647847
1045.41359619,0.00650492
1047.34240356,0.00634911
1049.27121094,0.00616375
1051.20001831,0.00613790
1053.12882568,0.00622682
1055.05763306,0.00598264
1056.98644043,0.00563536
1058.91524780,0.00566849
1060.84405518,0.00553621
1062.77286255,0.00514055
1064.70166992,0.00514925
1066.63047729,0.00512360
1068.55928467,0.00473562
1070.48809204,0.00458511
1072.41689941,0.00436680
1074.34570679,0.00419767
1076.27451416,0.00398582
1078.20332153,0.00363138
1080.13212891,0.00366467
1082.06093628,0.00354123
1083.98974365,0.00353032
1085.91855103,0.00324455
1087.84735840,0.00287735
1089.77616577,0.00324337
1091.70497314,0.00302146
1093.63378052,0.00278226
1095.56258789,0.00291786
1097.49139526,0.00266369
1099.42020264,0.00240875
1101.34901001,0.00238290
1103.27781738,0.00272640
1105.20662476,0.00278974
1107.13543213,0.00245518
1109.06423950,0.00240033
1110.99304687,0.00251118
1112.92185425,0.00243263
1114.85066162,0.00238706
1116.77946899,0.00251649
1118.70827637,0.00228450
1120.63708374,0.00235552
1122.56589111,0.00266963
1124.49469849,0.00230440
1126.42350586,0.00252049
1128.35231323,0.00282551
1130.28112061,0.00244520
1132.20992798,0.00269536
1134.13873535,0.00273050
1136.06754272,0.00275608
1137.99635010,0.00318292
1139.92515747,0.00312165
1141.85396484,0.00346102
1143.78277222,0.00348881
1145.71157959,0.00353087
1147.64038696,0.00414017
1149.56919434,0.00377964
1151.49800171,0.00389879
1153.42680908,0.00453725
1155.35561646,0.00442987
1157.28442383,0.00458879
1159.21323120,0.00477482
1161.14203857,0.00485615
1163.07084595,0.00513987
1164.99965332,0.00517204
1166.92846069,0.00536410
1168.85726807,0.00577633
1170.78607544,0.00592928
1172.71488281,0.00605245
1174.64369019,0.00629135
1176.57249756,0.00664512
1178.50130493,0.00665539
1180.43011230,0.00676129
1182.35891968,0.00750319
1184.28772705,0.00772997
1186.21653442,0.00799198
1188.14534180,0.00852419
1190.07414917,0.00865920
1192.00295654,0.00906460
1193.93176392,0.00936982
1195.86057129,0.00959509
1197.78937866,0.01014421
1199.71818604,0.01060929
1201.64699341,0.01093532
1203.57580078,0.01137734
1205.50460815,0.01187700
1207.43341553,0.01227973
1209.36222290,0.01272037
1211.29103027,0.01302835
1213.21983765,0.01328449
1215.14864502,0.01352370
1217.07745239,0.01403589
1219.00625977,0.01450527
1220.93506714,0.01447322
1222.86387451,0.01476767
1224.79268188,0.01479924
1226.72148926,0.01469379
1228.65029663,0.01498379
1230.57910400,0.01492207
1232.50791138,0.01480959
1234.43671875,0.01488650
1236.36552612,0.01492550
1238.29433350,0.01497883
1240.22314087,0.01513233
1242.15194824,0.01480903
1244.08075562,0.01481063
1246.00956299,0.01504769
1247.93837036,0.01446328
1249.86717773,0.01465594
1251.79598511,0.01478465
1253.72479248,0.01451455
1255.65359985,0.01458619
1257.58240723,0.01408007
1259.51121460,0.01387703
1261.44002197,0.01370544
1263.36882935,0.01353401
1265.29763672,0.01351170
1267.22644409,0.01323903
1269.15525146,0.01319803
1271.08405884,0.01290295
1273.01286621,0.01273527
1274.94167358,0.01272036
1276.87048096,0.01244688
1278.79928833,0.01217434
1280.72809570,0.01186820
1282.65690308,0.01161919
1284.58571045,0.01138382
1286.51451782,0.01114972
1288.44332520,0.01094264
1290.37213257,0.01096986
1292.30093994,0.01095007
1294.22974731,0.01080178
1296.15855469,0.01073820
1298.08736206,0.01072850
1300.01616943,0.01084872
1301.94497681,0.01072531
1303.87378418,0.01073509
1305.80259155,0.01095221
1307.73139893,0.01102807
1309.66020630,0.01122075
1311.58901367,0.01149763
1313.51782104,0.01162982
1315.44662842,0.01174389
1317.37543579,0.01223220
1319.30424316,0.01261216
1321.23305054,0.01297003
1323.16185791,0.01328551
1325.09066528,0.01342196
1327.01947266,0.01404061
1328.94828003,0.01435273
1330.87708740,0.01443950
1332.80589478,0.01490088
1334.73470215,0.01521691
1336.66350952,0.01534865
1338.59231689,0.01533680
1340.52112427,0.01545676
1342.44993164,0.01593988
1344.37873901,0.01614551
1346.30754639,0.01599453
1348.23635376,0.01602638
1350.16516113,0.01590663
1352.09396851,0.01581331
1354.02277588,0.01578723
1355.95158325,0.01564898
1357.88039062,0.01555322
1359.80919800,0.01512342
1361.73800537,0.01465002
1363.66681274,0.01457897
1365.59562012,0.01502221
1367.52442749,0.01493045
1369.45323486,0.01472969
1371.38204224,0.01469853
1373.31084961,0.01392595
1375.23965698,0.01424659
1377.16846436,0.01459547
1379.09727173,0.01442889
1381.02607910,0.01469496
1382.95488647,0.01456541
1384.88369385,0.01451378
1386.81250122,0.01381841
1388.74130859,0.01402763
1390.67011597,0.01530679
1392.59892334,0.01464315
1394.52773071,0.01388367
1396.45653809,0.01461601
1398.38534546,0.01434870
1400.31415283,0.01438818
1402.24296021,0.01549900
1404.17176758,0.01468172
1406.10057495,0.01482768
1408.02938232,0.01527045
1409.95818970,0.01469526
1411.88699707,0.01505106
1413.81580444,0.01449145
1415.74461182,0.01478482
1417.67341919,0.01349206
1419.60222656,0.01211809
1421.53103394,0.01389949
1423.45984131,0.01349551
1425.38864868,0.01302776
1427.31745605,0.01321202
1429.24626343,0.01227734
1431.17507080,0.01188376
1433.10387817,0.01220412
1435.03268555,0.01130275
1436.96149292,0.00970436
1438.89030029,0.01087862
1440.81910767,0.01091884
1442.74791504,0.01015786
1444.67672241,0.01067552
1446.60552979,0.01004883
1448.53433716,0.01018977
1450.46314453,0.01032326
1452.39195190,0.01071751
1454.32075928,0.01083954
1456.24956665,0.00907920
1458.17837402,0.00970884
1460.10718140,0.01233291
1462.03598877,0.01316630
1463.96479614,0.01301091
1465.89360352,0.01345025
1467.82241089,0.01541726
1469.75121826,0.01630814
1471.68002563,0.01465274
1473.60883301,0.01552551
1475.53764038,0.01741787
1477.46644775,0.01867825
1479.39525513,0.02043666
1481.32406250,0.02078224
1483.25286987,0.02210531
1485.18167725,0.02260179
1487.11048462,0.02228486
1489.03929199,0.02216740
1490.96809937,0.02227398
1492.89690674,0.02589326
1494.82571411,0.02519077
1496.75452148,0.02283392
1498.68332886,0.02572726
1500.61213623,0.02644455
1502.54094360,0.02823858
1504.46975098,0.02647894
1506.39855835,0.01976674
1508.32736572,0.02407242
1510.25617310,0.02785298
1512.18498047,0.02705562
1514.11378784,0.02910051
1516.04259521,0.02644244
1517.97140259,0.02764964
1519.90020996,0.02654316
1521.82901733,0.02329050
1523.75782471,0.02826030
1525.68663208,0.02757718
1527.61543945,0.02755321
1529.54424683,0.03046839
1531.47305420,0.02921023
1533.40186157,0.02686636
1535.33066895,0.02857528
1537.25947632,0.03008627
1539.18828369,0.02196183
1541.11709106,0.02322950
1543.04589844,0.02713136
1544.97470581,0.02641937
1546.90351318,0.03095670
1548.83232056,0.02870810
1550.76112793,0.02990672
1552.68993530,0.02935731
1554.61874268,0.02684446
1556.54755005,0.02875133
1558.47635742,0.02059715
1560.40516479,0.02271785
1562.33397217,0.03130914
1564.26277954,0.02931864
1566.19158691,0.03032159
1568.12039429,0.02991343
1570.04920166,0.02678097
1571.97800903,0.03085376
1573.90681641,0.03078257
1575.83562378,0.02481216
1577.76443115,0.02814599
1579.69323853,0.03128143
1581.62204590,0.03005382
1583.55085327,0.03078679
1585.47966064,0.03031599
1587.40846802,0.03054822
1589.33727539,0.03026378
1591.26608276,0.03031860
1593.19489014,0.03020908
1595.12369751,0.03000922
1597.05250488,0.03051327
1598.98131226,0.03018307
1600.91011963,0.03023537
1602.83892700,0.02963728
1604.76773437,0.03035480
1606.69654175,0.03002484
1608.62534912,0.02986742
1610.55415649,0.02972249
1612.48296387,0.02984831
1614.41177124,0.03023386
1616.34057861,0.02502102
1618.26938599,0.02717579
1620.19819336,0.03118537
1622.12700073,0.02775210
1624.05580811,0.02794158
1625.98461548,0.02921523
1627.91342285,0.02920783
1629.84223022,0.02904823
1631.77103760,0.03076430
1633.69984497,0.02822560
1635.62865234,0.02370885
1637.55745972,0.02771364
1639.48626709,0.03008959
1641.41507446,0.02946146
1643.34388184,0.03023594
1645.27268921,0.02706433
1647.20149658,0.02410990
1649.13030396,0.02971595
1651.05911133,0.02783936
1652.98791870,0.01844026
1654.91672607,0.02493924
1656.84553345,0.03080427
1658.77434082,0.02954668
1660.70314819,0.03030043
1662.63195557,0.02754520
1664.56076294,0.02916386
1666.48957031,0.03116559
1668.41837769,0.02713910
1670.34718506,0.02656896
1672.27599243,0.02989295
1674.20479980,0.02760198
1676.13360718,0.02692781
1678.06241455,0.03064646
1679.99122192,0.02953253
1681.92002930,0.02924407
1683.84883667,0.02360423
1685.77764404,0.02391018
1687.70645142,0.03223161
1689.63525879,0.02784930
1691.56406616,0.03093202
1693.49287354,0.03095024
1695.42168091,0.02287819
1697.35048828,0.02810555
1699.27929565,0.02461839
1701.20810303,0.02291533
1703.13691040,0.03044352
1705.06571777,0.02778095
1706.99452515,0.02812308
1708.92333252,0.03042549
1710.85213989,0.02952205
1712.78094727,0.02976335
1714.70975464,0.02766961
1716.63856201,0.02495183
1718.56736938,0.02459057
1720.49617676,0.02910269
1722.42498413,0.02989959
1724.35379150,0.02810860
1726.28259888,0.03030895
1728.21140625,0.02793382
1730.14021362,0.02842286
1732.06902100,0.02727516
1733.99782837,0.02125846
1735.92663574,0.02628519
1737.85544312,0.02861462
1739.78425049,0.02578657
1741.71305786,0.02788250
1743.64186523,0.02839756
1745.57067261,0.02844452
1747.49947998,0.02839990
1749.42828735,0.02718494
1751.35709473,0.02619670
1753.28590210,0.02896871
1755.21470947,0.02988091
1757.14351685,0.02767996
1759.07232422,0.03041802
1761.00113159,0.02841111
1762.92993896,0.02774366
1764.85874634,0.03115224
1766.78755371,0.02827933
1768.71636108,0.02867914
1770.64516846,0.02807331
1772.57397583,0.02567513
1774.50278320,0.02863052
1776.43159058,0.03003213
1778.36039795,0.02956746
1780.28920532,0.02921201
1782.21801270,0.02953057
1784.14682007,0.02937834
1786.07562744,0.02887528
1788.00443481,0.03029848
1789.93324219,0.02942884
1791.86204956,0.02685197
1793.79085693,0.02808957
1795.71966431,0.02991865
1797.64847168,0.02939127
1799.57727905,0.02889058
1801.50608643,0.02847738
1803.43489380,0.02945819
1805.36370117,0.03003121
1807.29250854,0.02966132
1809.22131592,0.02965232
1811.15012329,0.02893859
1813.07893066,0.02986437
1815.00773804,0.02987859
1816.93654541,0.02958340
1818.86535278,0.02968843
1820.79416016,0.02968493
1822.72296753,0.03012848
1824.65177490,0.02805734
1826.58058228,0.02920618
1828.50938965,0.02923037
1830.43819702,0.02750985
1832.36700439,0.02991017
1834.29581177,0.02961167
1836.22461914,0.02950329
1838.15342651,0.02953614
1840.08223389,0.02974604
1842.01104126,0.02942879
1843.93984863,0.02631205
1845.86865601,0.02816007
1847.79746338,0.02955933
1849.72627075,0.02896858
1851.65507812,0.02966796
1853.58388550,0.02914117
1855.51269287,0.02939308
1857.44150024,0.02917812
1859.37030762,0.02910483
1861.29911499,0.02919420
1863.22792236,0.02896214
1865.15672974,0.02921202
1867.08553711,0.02823877
1869.01434448,0.02722357
1870.94315186,0.02811656
1872.87195923,0.02913858
1874.80076660,0.02870281
1876.72957397,0.02891036
1878.65838135,0.02872856
1880.58718872,0.02853722
1882.51599609,0.02888902
1884.44480347,0.02830376
1886.37361084,0.02881987
1888.30241821,0.02820843
1890.23122559,0.02762624
1892.16003296,0.02854205
1894.08884033,0.02803214
1896.01764771,0.02807828
1897.94645508,0.02829653
1899.87526245,0.02812421
1901.80406982,0.02815039
1903.73287720,0.02815500
1905.66168457,0.02838160
1907.59049194,0.02783116
1909.51929932,0.02779143
1911.44810669,0.02793984
1913.37691406,0.02795763
1915.30572144,0.02813801
1917.23452881,0.02688076
1919.16333618,0.02700631
1921.09214355,0.02789168
1923.02095093,0.02723318
1924.94975830,0.02772160
1926.87856567,0.02790029
1928.80737305,0.02746538
1930.73618042,0.02759128
1932.66498779,0.02748692
1934.59379517,0.02778610
1936.52260254,0.02757508
1938.45140991,0.02764403
1940.38021729,0.02757131
1942.30902466,0.02683187
1944.23783203,0.02728520
1946.16663940,0.02747940
1948.09544678,0.02744656
1950.02425415,0.02748603
1951.95306152,0.02732366
1953.88186890,0.02748908
1955.81067627,0.02740592
1957.73948364,0.02736660
1959.66829102,0.02720599
1961.59709839,0.02720626
1963.52590576,0.02732331
1965.45471313,0.02707697
1967.38352051,0.02694561
1969.31232788,0.02699827
1971.24113525,0.02716108
1973.16994263,0.02714088
1975.09875000,0.02712496
1977.02755737,0.02707007
1978.95636475,0.02701937
1980.88517212,0.02700145
1982.81397949,0.02688532
1984.74278687,0.02693225
1986.67159424,0.02683832
1988.60040161,0.02681581
1990.52920898,0.02659198
1992.45801636,0.02634699
1994.38682373,0.02655705
1996.31563110,0.02655654
1998.24443848,0.02654397
2000.17324585,0.02651055
2002.10205322,0.02641659
2004.03086060,0.02639877
2005.95966797,0.02629232
2007.88847534,0.02628248
2009.81728271,0.02623845
2011.74609009,0.02613037
2013.67489746,0.02622497
2015.60370483,0.02617030
2017.53251221,0.02574271
2019.46131958,0.02573745
2021.39012695,0.02589128
2023.31893433,0.02574433
2025.24774170,0.02575270
2027.17654907,0.02572927
2029.10535645,0.02570082
2031.03416382,0.02561510
2032.96297119,0.02553055
2034.89177856,0.02549198
2036.82058594,0.02534085
2038.74939331,0.02532801
2040.67820068,0.02518190
2042.60700806,0.02520015
2044.53581543,0.02527764
2046.46462280,0.02501956
2048.39343018,0.02496758
2050.32223755,0.02494879
2052.25104492,0.02498501
2054.17985229,0.02495152
2056.10865967,0.02482901
2058.03746704,0.02490895
2059.96627441,0.02473618
2061.89508179,0.02464276
2063.82388916,0.02456184
2065.75269653,0.02445985
2067.68150391,0.02463913
2069.61031128,0.02447504
2071.53911865,0.02436945
2073.46792603,0.02440658
2075.39673340,0.02424143
2077.32554077,0.02424314
2079.25434814,0.02425067
2081.18315552,0.02422527
2083.11196289,0.02408395
2085.04077026,0.02393746
2086.96957764,0.02407508
2088.89838501,0.02408509
2090.82719238,0.02393198
2092.75599976,0.02384805
2094.68480713,0.02387417
2096.61361450,0.02396114
2098.54242187,0.02383461
2100.47122925,0.02376797
2102.40003662,0.02377633
2104.32884399,0.02362781
2106.25765137,0.02375123
2108.18645874,0.02373274
2110.11526611,0.02350771
2112.04407349,0.02350308
2113.97288086,0.02335305
2115.90168823,0.02332198
2117.83049561,0.02345276
2119.75930298,0.02337079
2121.68811035,0.02320816
2123.61691772,0.02329318
2125.54572510,0.02335035
2127.47453247,0.02321717
2129.40333984,0.02327986
2131.33214722,0.02311774
2133.26095459,0.02298602
2135.18976196,0.02298177
2137.11856934,0.02288515
2139.04737671,0.02297702
2140.97618408,0.02293492
2142.90499146,0.02301026
2144.83379883,0.02295073
2146.76260620,0.02281434
2148.69141357,0.02290468
2150.62022095,0.02277916
2152.54902832,0.02275120
2154.47783569,0.02275258
2156.40664307,0.02274276
2158.33545044,0.02269166
2160.26425781,0.02261196
2162.19306519,0.02257932
2164.12187256,0.02251646
2166.05067993,0.02256889
2167.97948730,0.02249205
2169.90829468,0.02246930
2171.83710205,0.02238084
2173.76590942,0.02243080
2175.69471680,0.02251800
2177.62352417,0.02225590
2179.55233154,0.02241043
2181.48113892,0.02242551
2183.40994629,0.02228722
2185.33875366,0.02234385
2187.26756104,0.02223036
2189.19636841,0.02238178
2191.12517578,0.02239290
2193.05398315,0.02213179
2194.98279053,0.02216792
2196.91159790,0.02221634
2198.84040527,0.02207509
2200.76921265,0.02221682
2202.69802002,0.02221707
2204.62682739,0.02193305
2206.55563477,0.02208334
2208.48444214,0.02201601
2210.41324951,0.02181372
2212.34205688,0.02192592
2214.27086426,0.02188608
2216.19967163,0.02179215
2218.12847900,0.02169455
2220.05728638,0.02173094
2221.98609375,0.02179744
2223.91490112,0.02177487
2225.84370850,0.02176293
2227.77251587,0.02164807
2229.70132324,0.02165321
2231.63013062,0.02154399
2233.55893799,0.02137648
2235.48774536,0.02148217
2237.41655273,0.02149592
2239.34536011,0.02150489
2241.27416748,0.02142881
2243.20297485,0.02129242
2245.13178223,0.02135236
2247.06058960,0.02133735
2248.98939697,0.02133135
2250.91820435,0.02121104
2252.84701172,0.02107392
2254.77581909,0.02103652
2256.70462646,0.02107785
2258.63343384,0.02125270
2260.56224121,0.02104145
2262.49104858,0.02097516
2264.41985596,0.02099732
2266.34866333,0.02084760
2268.27747070,0.02097453
2270.20627808,0.02086846
2272.13508545,0.02092158
2274.06389282,0.02096805
2275.99270020,0.02070514
2277.92150757,0.02070394
2279.85031494,0.02069601
2281.77912231,0.02075017
2283.70792969,0.02075487
2285.63673706,0.02065954
2287.56554443,0.02066617
2289.49435181,0.02055744
2291.42315918,0.02047886
2293.35196655,0.02046400
2295.28077393,0.02032810
2297.20958130,0.02026833
2299.13838867,0.02024110
2301.06719604,0.02016260
2302.99600342,0.02024125
2304.92481079,0.02009083
2306.85361816,0.01984608
2308.78242554,0.01970867
2310.71123291,0.01949146
2312.64004028,0.01937396
2314.56884766,0.01920089
2316.49765503,0.01898557
2318.42646240,0.01863140
2320.35526978,0.01840915
2322.28407715,0.01830687
2324.21288452,0.01800330
2326.14169189,0.01779139
2328.07049927,0.01754686
2329.99930664,0.01738408
2331.92811401,0.01715438
2333.85692139,0.01707207
2335.78572876,0.01712552
2337.71453613,0.01695922
2339.64334351,0.01693565
2341.57215088,0.01691625
2343.50095825,0.01723702
2345.42976562,0.01772034
2347.35857300,0.01843242
2349.28738037,0.01897896
2351.21618774,0.01822775
2353.14499512,0.01728527
2355.07380249,0.01667674
2357.00260986,0.01629556
2358.93141724,0.01604147
2360.86022461,0.01574799
2362.78903198,0.01569999
2364.71783936,0.01576727
2366.64664673,0.01607612
2368.57545410,0.01635286
2370.50426147,0.01668649
2372.43306885,0.01717219
2374.36187622,0.01752709
2376.29068359,0.01814434
2378.21949097,0.01871071
2380.14829834,0.01872091
2382.07710571,0.01882230
2384.00591309,0.01914718
2385.93472046,0.01915450
2387.86352783,0.01923089
2389.79233521,0.01924541
2391.72114258,0.01912509
2393.64994995,0.01910789
2395.57875732,0.01904121
2397.50756470,0.01913294
2399.43637207,0.01909946
2401.36517944,0.01905274
2403.29398682,0.01904954
2405.22279419,0.01900571
2407.15160156,0.01896159
2409.08040894,0.01889466
2411.00921631,0.01892509
2412.93802368,0.01879779
2414.86683105,0.01876598
2416.79563843,0.01867675
2418.72444580,0.01878372
2420.65325317,0.01884472
2422.58206055,0.01862556
2424.51086792,0.01878375
2426.43967529,0.01850406
2428.36848267,0.01845305
2430.29729004,0.01863689
2432.22609741,0.01851072
2434.15490479,0.01860546
2436.08371216,0.01842603
2438.01251953,0.01845107
2439.94132690,0.01844782
2441.87013428,0.01835777
2443.79894165,0.01849737
2445.72774902,0.01845190
2447.65655640,0.01837838
2449.58536377,0.01827212
2451.51417114,0.01829212
2453.44297852,0.01821440
2455.37178589,0.01820363
2457.30059326,0.01829632
2459.22940063,0.01821748
2461.15820801,0.01815463
2463.08701538,0.01810519
2465.01582275,0.01814234
2466.94463013,0.01805400
2468.87343750,0.01806958
2470.80224487,0.01805182
2472.73105225,0.01797695
2474.65985962,0.01801855
2476.58866699,0.01788976
2478.51747437,0.01791650
2480.44628174,0.01789390
2482.37508911,0.01783921
2484.30389648,0.01780794
2486.23270386,0.01768818
2488.16151123,0.01764969
2490.09031860,0.01765701
2492.01912598,0.01770187
2493.94793335,0.01765124
2495.87674072,0.01775936
2497.80554810,0.01770025
2499.73435547,0.01748052
2501.66316284,0.01755097
2503.59197021,0.01753460
2505.52077759,0.01747838
2507.44958496,0.01751729
2509.37839233,0.01750034
2511.30719971,0.01741930
2513.23600708,0.01747998
2515.16481445,0.01740632
2517.09362183,0.01729734
2519.02242920,0.01740054
2520.95123657,0.01727972
2522.88004395,0.01726358
2524.80885132,0.01732305
2526.73765869,0.01724529
2528.66646606,0.01724504
2530.59527344,0.01723506
2532.52408081,0.01715216
2534.45288818,0.01711381
2536.38169556,0.01716292
2538.31050293,0.01711219
2540.23931030,0.01711638
2542.16811768,0.01705916
2544.09692505,0.01696040
2546.02573242,0.01694106
2547.95453979,0.01692783
2549.88334717,0.01700819
2551.81215454,0.01689504
2553.74096191,0.01685548
2555.66976929,0.01690507
2557.59857666,0.01684571
2559.52738403,0.01681572
2561.45619141,0.01674093
2563.38499878,0.01681492
2565.31380615,0.01684375
2567.24261353,0.01672738
2569.17142090,0.01670310
2571.10022827,0.01672622
2573.02903564,0.01667637
2574.95784302,0.01662317
2576.88665039,0.01655383
2578.81545776,0.01650042
2580.74426514,0.01662463
2582.67307251,0.01655227
2584.60187988,0.01643107
2586.53068726,0.01652804
2588.45949463,0.01653051
2590.38830200,0.01646239
2592.31710937,0.01647848
2594.24591675,0.01651763
2596.17472412,0.01640207
2598.10353149,0.01628063
2600.03233887,0.01629038
2601.96114624,0.01624377
2603.88995361,0.01615857
2605.81876099,0.01624184
2607.74756836,0.01621715
2609.67637573,0.01616827
2611.60518311,0.01624593
2613.53399048,0.01605558
2615.46279785,0.01601060
2617.39160522,0.01606335
2619.32041260,0.01608902
2621.24921997,0.01609629
2623.17802734,0.01596925
2625.10683472,0.01603771
2627.03564209,0.01595736
2628.96444946,0.01598681
2630.89325684,0.01597957
2632.82206421,0.01587719
2634.75087158,0.01598414
2636.67967895,0.01579926
2638.60848633,0.01572162
2640.53729370,0.01566961
2642.46610107,0.01572756
2644.39490845,0.01577594
2646.32371582,0.01564069
2648.25252319,0.01579496
2650.18133057,0.01567766
2652.11013794,0.01560363
2654.03894531,0.01561618
2655.96775269,0.01557127
2657.89656006,0.01560597
2659.82536743,0.01551718
2661.75417480,0.01564313
2663.68298218,0.01554816
2665.61178955,0.01545634
2667.54059692,0.01547620
2669.46940430,0.01535073
2671.39821167,0.01546833
2673.32701904,0.01540095
2675.25582642,0.01534350
2677.18463379,0.01535788
2679.11344116,0.01526667
2681.04224854,0.01538050
2682.97105591,0.01534091
2684.89986328,0.01523148
2686.82867065,0.01516194
2688.75747803,0.01514418
2690.68628540,0.01527192
2692.61509277,0.01513902
2694.54390015,0.01507622
2696.47270752,0.01512019
2698.40151489,0.01497580
2700.33032227,0.01503069
2702.25912964,0.01511101
2704.18793701,0.01505002
2706.11674438,0.01496784
2708.04555176,0.01489384
2709.97435913,0.01481788
2711.90316650,0.01476419
2713.83197388,0.01478858
2715.76078125,0.01478874
2717.68958862,0.01481743
2719.61839600,0.01478089
2721.54720337,0.01479788
2723.47601074,0.01474581
2725.40481812,0.01467183
2727.33362549,0.01477657
2729.26243286,0.01462593
2731.19124023,0.01464570
2733.12004761,0.01472061
2735.04885498,0.01461265
2736.97766235,0.01459773
2738.90646973,0.01448600
2740.83527710,0.01449673
2742.76408447,0.01449995
2744.69289185,0.01445274
2746.62169922,0.01439047
2748.55050659,0.01438267
2750.47931396,0.01443104
2752.40812134,0.01441557
2754.33692871,0.01446475
2756.26573608,0.01437177
2758.19454346,0.01432220
2760.12335083,0.01416245
2762.05215820,0.01413898
2763.98096558,0.01428727
2765.90977295,0.01409402
2767.83858032,0.01410598
2769.76738770,0.01416028
2771.69619507,0.01419073
2773.62500244,0.01421788
2775.55380981,0.01404834
2777.48261719,0.01398653
2779.41142456,0.01405314
2781.34023193,0.01401937
2783.26903931,0.01386913
2785.19784668,0.01393123
2787.12665405,0.01383897
2789.05546143,0.01380014
2790.98426880,0.01384173
2792.91307617,0.01367062
2794.84188354,0.01379109
2796.77069092,0.01381704
2798.69949829,0.01374778
2800.62830566,0.01367119
2802.55711304,0.01364510
2804.48592041,0.01372446
2806.41472778,0.01361039
2808.34353516,0.01359476
2810.27234253,0.01363960
2812.20114990,0.01365040
2814.12995728,0.01347513
2816.05876465,0.01337825
2817.98757202,0.01341110
2819.91637939,0.01333229
2821.84518677,0.01338115
2823.77399414,0.01340067
2825.70280151,0.01343266
2827.63160889,0.01330959
2829.56041626,0.01323992
2831.48922363,0.01331547
2833.41803101,0.01324372
2835.34683838,0.01322697
2837.27564575,0.01321347
2839.20445312,0.01320052
2841.13326050,0.01298458
2843.06206787,0.01288713
2844.99087524,0.01290644
2846.91968262,0.01280079
2848.84848999,0.01280792
2850.77729736,0.01271888
2852.70610474,0.01276808
2854.63491211,0.01274177
2856.56371948,0.01269959
2858.49252686,0.01276980
2860.42133423,0.01266187
2862.35014160,0.01267003
2864.27894897,0.01261083
2866.20775635,0.01256934
2868.13656372,0.01255499
2870.06537109,0.01253301
2871.99417847,0.01258133
2873.92298584,0.01254158
2875.85179321,0.01260668
2877.78060059,0.01254956
2879.70940796,0.01245260
2881.63821533,0.01244303
2883.56702270,0.01241067
2885.49583008,0.01249024
2887.42463745,0.01240152
2889.35344482,0.01230001
2891.28225220,0.01235573
2893.21105957,0.01226796
2895.13986694,0.01228137
2897.06867432,0.01235585
2898.99748169,0.01219821
2900.92628906,0.01212061
2902.85509644,0.01213413
2904.78390381,0.01206517
2906.71271118,0.01204258
2908.64151855,0.01204774
2910.57032593,0.01197519
2912.49913330,0.01192677
2914.42794067,0.01186962
2916.35674805,0.01176323
2918.28555542,0.01177772
2920.21436279,0.01168649
2922.14317017,0.01164028
2924.07197754,0.01174816
2926.00078491,0.01169592
2927.92959229,0.01164827
2929.85839966,0.01162380
2931.78720703,0.01163234
2933.71601440,0.01164865
2935.64482178,0.01163239
2937.57362915,0.01160088
2939.50243652,0.01161524
2941.43124390,0.01162546
2943.36005127,0.01155433
2945.28885864,0.01165127
2947.21766602,0.01158189
2949.14647339,0.01155550
2951.07528076,0.01155728
2953.00408813,0.01138679
2954.93289551,0.01153906
2956.86170288,0.01143860
2958.79051025,0.01135885
2960.71931763,0.01144392
2962.64812500,0.01125389
2964.57693237,0.01133432
2966.50573975,0.01133149
2968.43454712,0.01112202
2970.36335449,0.01115532
2972.29216187,0.01123387
2974.22096924,0.01124834
2976.14977661,0.01131523
2978.07858398,0.01130678
2980.00739136,0.01127562
2981.93619873,0.01130756
2983.86500610,0.01125062
2985.79381348,0.01121246
2987.72262085,0.01123802
2989.65142822,0.01129514
2991.58023560,0.01121304
2993.50904297,0.01117999
2995.43785034,0.01123265
2997.36665771,0.01110767
2999.29546509,0.01110811
3001.22427246,0.01112096
3003.15307983,0.01109080
3005.08188721,0.01108772
3007.01069458,0.01108067
3008.93950195,0.01106794
3010.86830933,0.01101289
3012.79711670,0.01098923
3014.72592407,0.01088236
3016.65473145,0.01087181
3018.58353882,0.01093349
3020.51234619,0.01094908
3022.44115356,0.01089043
3024.36996094,0.01085537
3026.29876831,0.01083710
3028.22757568,0.01075289
3030.15638306,0.01081046
3032.08519043,0.01064403
3034.01399780,0.01060612
3035.94280518,0.01077587
3037.87161255,0.01076772
3039.80041992,0.01071727
3041.72922729,0.01058513
3043.65803467,0.01063016
3045.58684204,0.01053376
3047.51564941,0.01050856
3049.44445679,0.01058316
3051.37326416,0.01054654
3053.30207153,0.01055936
3055.23087891,0.01037614
3057.15968628,0.01047232
3059.08849365,0.01043028
3061.01730103,0.01041393
3062.94610840,0.01054664
3064.87491577,0.01030154
3066.80372314,0.01033803
3068.73253052,0.01036491
3070.66133789,0.01035258
3072.59014526,0.01031038
3074.51895264,0.01020264
3076.44776001,0.01020609
3078.37656738,0.01011195
3080.30537476,0.01014465
3082.23418213,0.01006199
3084.16298950,0.01002783
3086.09179687,0.01011425
3088.02060425,0.01013318
3089.94941162,0.01014286
3091.87821899,0.01015755
3093.80702637,0.01012399
3095.73583374,0.00994998
3097.66464111,0.00995831
3099.59344849,0.00988429
3101.52225586,0.00994071
3103.45106323,0.01005749
3105.37987061,0.00990077
3107.30867798,0.00987212
3109.23748535,0.00983109
3111.16629272,0.00990647
3113.09510010,0.00979301
3115.02390747,0.00969928
3116.95271484,0.00979297
3118.88152222,0.00973013
3120.81032959,0.00980321
3122.73913696,0.00965704
3124.66794434,0.00967509
3126.59675171,0.00970055
3128.52555908,0.00951793
3130.45436645,0.00965087
3132.38317383,0.00958093
3134.31198120,0.00950013
3136.24078857,0.00947503
3138.16959595,0.00939955
3140.09840332,0.00940026
3142.02721069,0.00938747
3143.95601807,0.00946976
3145.88482544,0.00941677
3147.81363281,0.00939712
3149.74244019,0.00937990
3151.67124756,0.00923423
3153.60005493,0.00916107
3155.52886230,0.00916631
3157.45766968,0.00921982
3159.38647705,0.00911086
3161.31528442,0.00909190
3163.24409180,0.00912529
3165.17289917,0.00906728
3167.10170654,0.00909238
3169.03051392,0.00899472
3170.95932129,0.00898324
3172.88812866,0.00898196
3174.81693604,0.00889309
3176.74574341,0.00887269
3178.67455078,0.00885327
3180.60335815,0.00893111
3182.53216553,0.00887143
3184.46097290,0.00882741
3186.38978027,0.00881108
3188.31858765,0.00868542
3190.24739502,0.00872149
3192.17620239,0.00869997
3194.10500977,0.00860832
3196.03381714,0.00853670
3197.96262451,0.00859258
3199.89143188,0.00861611
3201.82023926,0.00854238
3203.74904663,0.00858801
3205.67785400,0.00849296
3207.60666138,0.00850827
3209.53546875,0.00850358
3211.46427612,0.00842698
3213.39308350,0.00847546
3215.32189087,0.00840940
3217.25069824,0.00848537
3219.17950562,0.00846011
3221.10831299,0.00833767
3223.03712036,0.00839078
3224.96592773,0.00843619
3226.89473511,0.00833582
3228.82354248,0.00822145
3230.75234985,0.00834924
3232.68115723,0.00831764
3234.60996460,0.00825289
3236.53877197,0.00831413
3238.46757935,0.00829462
3240.39638672,0.00828835
3242.32519409,0.00819997
3244.25400146,0.00815272
3246.18280884,0.00816204
3248.11161621,0.00821248
3250.04042358,0.00821211
3251.96923096,0.00817162
3253.89803833,0.00818811
3255.82684570,0.00812753
3257.75565308,0.00810492
3259.68446045,0.00814322
3261.61326782,0.00816905
3263.54207520,0.00806145
3265.47088257,0.00806092
3267.39968994,0.00806968
3269.32849731,0.00793997
3271.25730469,0.00803717
3273.18611206,0.00805199
3275.11491943,0.00805246
3277.04372681,0.00802866
3278.97253418,0.00793824
3280.90134155,0.00800640
3282.83014893,0.00795343
3284.75895630,0.00797186
3286.68776367,0.00801235
3288.61657104,0.00798582
3290.54537842,0.00794312
3292.47418579,0.00789337
3294.40299316,0.00796844
3296.33180054,0.00792057
3298.26060791,0.00795358
3300.18941528,0.00799427
3302.11822266,0.00793696
3304.04703003,0.00794238
3305.97583740,0.00780532
3307.90464478,0.00790408
3309.83345215,0.00796846
3311.76225952,0.00773722
3313.69106689,0.00777190
3315.61987427,0.00782638
3317.54868164,0.00783206
3319.47748901,0.00781910
3321.40629639,0.00777038
3323.33510376,0.00780060
3325.26391113,0.00774712
3327.19271851,0.00784580
3329.12152588,0.00782443
3331.05033325,0.00770848
3332.97914062,0.00779177
3334.90794800,0.00771674
3336.83675537,0.00771778
3338.76556274,0.00769925
3340.69437012,0.00763194
3342.62317749,0.00769587
3344.55198486,0.00757171
3346.48079224,0.00753181
3348.40959961,0.00762906
3350.33840698,0.00752902
3352.26721436,0.00755374
3354.19602173,0.00770915
3356.12482910,0.00757210
3358.05363647,0.00749338
3359.98244385,0.00754617
3361.91125122,0.00757373
3363.84005859,0.00757180
3365.76886597,0.00748674
3367.69767334,0.00758913
3369.62648071,0.00747371
3371.55528809,0.00737093
3373.48409546,0.00747144
3375.41290283,0.00735797
3377.34171020,0.00741686
3379.27051758,0.00749540
3381.19932495,0.00750409
3383.12813232,0.00740224
3385.05693970,0.00729696
3386.98574707,0.00733898
3388.91455444,0.00730720
3390.84336182,0.00733373
3392.77216919,0.00721492
3394.70097656,0.00722847
3396.62978394,0.00729163
3398.55859131,0.00715053
3400.48739868,0.00716416
3402.41620605,0.00712564
3404.34501343,0.00710872
3406.27382080,0.00715687
3408.20262817,0.00714725
3410.13143555,0.00717096
3412.06024292,0.00719237
3413.98905029,0.00711529
3415.91785767,0.00713245
3417.84666504,0.00721206
3419.77547241,0.00712016
3421.70427979,0.00712433
3423.63308716,0.00714246
3425.56189453,0.00715472
3427.49070190,0.00710715
3429.41950928,0.00704274
3431.34831665,0.00707314
3433.27712402,0.00701559
3435.20593140,0.00704666
3437.13473877,0.00694583
3439.06354614,0.00693028
3440.99235352,0.00698342
3442.92116089,0.00688134
3444.84996826,0.00692568
3446.77877563,0.00687211
3448.70758301,0.00692348
3450.63639038,0.00696990
3452.56519775,0.00687031
3454.49400513,0.00684944
3456.42281250,0.00683883
3458.35161987,0.00689558
3460.28042725,0.00686267
3462.20923462,0.00683589
3464.13804199,0.00679769
3466.06684937,0.00677426
3467.99565674,0.00682352
3469.92446411,0.00676633
3471.85327148,0.00679896
3473.78207886,0.00680745
3475.71088623,0.00673480
3477.63969360,0.00681370
3479.56850098,0.00679362
3481.49730835,0.00664340
3483.42611572,0.00677101
3485.35492310,0.00685887
3487.28373047,0.00671541
3489.21253784,0.00674811
3491.14134521,0.00676463
3493.07015259,0.00667965
3494.99895996,0.00671129
3496.92776733,0.00667582
3498.85657471,0.00659834
3500.78538208,0.00662595
3502.71418945,0.00656252
3504.64299683,0.00662405
3506.57180420,0.00670647
3508.50061157,0.00662645
3510.42941895,0.00668619
3512.35822632,0.00663149
3514.28703369,0.00665203
3516.21584106,0.00671231
3518.14464844,0.00666240
3520.07345581,0.00669185
3522.00226318,0.00656388
3523.93107056,0.00654106
3525.85987793,0.00656883
3527.78868530,0.00654927
3529.71749268,0.00658016
3531.64630005,0.00664759
3533.57510742,0.00664257
3535.50391479,0.00647835
3537.43272217,0.00659948
3539.36152954,0.00669457
3541.29033691,0.00659709
3543.21914429,0.00655127
3545.14795166,0.00643046
3547.07675903,0.00638286
3549.00556641,0.00651444
3550.93437378,0.00651834
3552.86318115,0.00644081
3554.79198853,0.00659725
3556.72079590,0.00654989
3558.64960327,0.00650161
3560.57841064,0.00651844
3562.50721802,0.00651626
3564.43602539,0.00652637
3566.36483276,0.00596042
3568.29364014,0.00593975
3570.22244751,0.00648813
3572.15125488,0.00644906
3574.08006226,0.00639014
3576.00886963,0.00649956
3577.93767700,0.00647499
3579.86648437,0.00642559
3581.79529175,0.00650605
3583.72409912,0.00656409
3585.65290649,0.00632630
3587.58171387,0.00588225
3589.51052124,0.00609766
3591.43932861,0.00651431
3593.36813599,0.00621895
3595.29694336,0.00615595
3597.22575073,0.00637773
3599.15455811,0.00642808
3601.08336548,0.00635155
3603.01217285,0.00633968
3604.94098022,0.00649519
3606.86978760,0.00631978
3608.79859497,0.00596477
3610.72740234,0.00615708
3612.65620972,0.00625567
3614.58501709,0.00617641
3616.51382446,0.00659777
3618.44263184,0.00594192
3620.37143921,0.00578009
3622.30024658,0.00645786
3624.22905395,0.00626045
3626.15786133,0.00662386
3628.08666870,0.00553541
3630.01547607,0.00514011
3631.94428345,0.00643529
3633.87309082,0.00614095
3635.80189819,0.00638321
3637.73070557,0.00645908
3639.65951294,0.00640967
3641.58832031,0.00652692
3643.51712769,0.00628083
3645.44593506,0.00642559
3647.37474243,0.00580298
3649.30354980,0.00539454
3651.23235718,0.00544463
3653.16116455,0.00631579
3655.08997192,0.00636437
3657.01877930,0.00571537
3658.94758667,0.00649343
3660.87639404,0.00632166
3662.80520142,0.00637499
3664.73400879,0.00639251
3666.66281616,0.00634148
3668.59162354,0.00616184
3670.52043091,0.00505768
3672.44923828,0.00606081
3674.37804565,0.00577327
3676.30685303,0.00492312
3678.23566040,0.00604251
3680.16446777,0.00611697
3682.09327515,0.00616770
3684.02208252,0.00627043
3685.95088989,0.00618360
3687.87969727,0.00554589
3689.80850464,0.00516888
3691.73731201,0.00587097
3693.66611938,0.00607249
3695.59492676,0.00628724
3697.52373413,0.00614560
3699.45254150,0.00617813
3701.38134888,0.00594240
3703.31015625,0.00571102
3705.23896362,0.00637404
3707.16777100,0.00597429
3709.09657837,0.00583269
3711.02538574,0.00541570
3712.95419312,0.00519828
3714.88300049,0.00606767
3716.81180786,0.00596147
3718.74061523,0.00607442
3720.66942261,0.00581730
3722.59822998,0.00579740
3724.52703735,0.00590740
3726.45584473,0.00539563
3728.38465210,0.00598917
3730.31345947,0.00580919
3732.24226685,0.00543034
3734.17107422,0.00531182
3736.09988159,0.00495384
3738.02868896,0.00528710
3739.95749634,0.00572753
3741.88630371,0.00590270
3743.81511108,0.00465396
3745.74391846,0.00456620
3747.67272583,0.00565897
3749.60153320,0.00485242
3751.53034058,0.00462586
3753.45914795,0.00521019
3755.38795532,0.00556214
3757.31676270,0.00570046
3759.24557007,0.00536274
3761.17437744,0.00567464
3763.10318481,0.00584959
3765.03199219,0.00550148
3766.96079956,0.00569669
3768.88960693,0.00551797
3770.81841431,0.00527609
3772.74722168,0.00579339
3774.67602905,0.00585227
3776.60483643,0.00567814
3778.53364380,0.00548270
3780.46245117,0.00548600
3782.39125854,0.00574572
3784.32006592,0.00559568
3786.24887329,0.00560855
3788.17768066,0.00560941
3790.10648804,0.00565810
3792.03529541,0.00565969
3793.96410278,0.00566816
3795.89291016,0.00540307
3797.82171753,0.00536248
3799.75052490,0.00549152
3801.67933228,0.00448291
3803.60813965,0.00523904
3805.53694702,0.00551060
3807.46575439,0.00470980
3809.39456177,0.00555276
3811.32336914,0.00537228
3813.25217651,0.00565600
3815.18098389,0.00504792
3817.10979126,0.00457345
3819.03859863,0.00556290
3820.96740601,0.00460071
3822.89621338,0.00498606
3824.82502075,0.00547828
3826.75382812,0.00507065
3828.68263550,0.00543542
3830.61144287,0.00514232
3832.54025024,0.00504760
3834.46905762,0.00505957
3836.39786499,0.00489321
3838.32667236,0.00446535
3840.25547974,0.00480871
3842.18428711,0.00524560
3844.11309448,0.00496036
3846.04190186,0.00525813
3847.97070923,0.00523335
3849.89951660,0.00524915
3851.82832397,0.00464211
3853.75713135,0.00364981
3855.68593872,0.00429982
3857.61474609,0.00518973
3859.54355347,0.00507267
3861.47236084,0.00498222
3863.40116821,0.00493657
3865.32997559,0.00463109
3867.25878296,0.00514905
3869.18759033,0.00472770
3871.11639770,0.00431282
3873.04520508,0.00512312
3874.97401245,0.00474244
3876.90281982,0.00511381
3878.83162720,0.00518429
3880.76043457,0.00445816
3882.68924194,0.00512212
3884.61804932,0.00476442
3886.54685669,0.00445295
3888.47566406,0.00512438
3890.40447144,0.00483314
3892.33327881,0.00461811
3894.26208618,0.00491571
3896.19089355,0.00494322
3898.11970093,0.00476845
3900.04850830,0.00457700
3901.97731567,0.00457653
3903.90612305,0.00457819
3905.83493042,0.00459000
3907.76373779,0.00487931
3909.69254517,0.00493858
3911.62135254,0.00489120
3913.55015991,0.00498158
3915.47896728,0.00486592
3917.40777466,0.00469253
3919.33658203,0.00468175
3921.26538940,0.00481483
3923.19419678,0.00484424
3925.12300415,0.00475831
3927.05181152,0.00478202
3928.98061890,0.00482888
3930.90942627,0.00464368
3932.83823364,0.00458420
3934.76704102,0.00475070
3936.69584839,0.00474524
3938.62465576,0.00476548
3940.55346313,0.00470867
3942.48227051,0.00457542
3944.41107788,0.00457206
3946.33988525,0.00467142
3948.26869263,0.00462299
3950.19750000,0.00454040
3952.12630737,0.00472360
3954.05511475,0.00462900
3955.98392212,0.00458026
3957.91272949,0.00464571
3959.84153687,0.00461047
3961.77034424,0.00466938
3963.69915161,0.00456612
3965.62795898,0.00465809
3967.55676636,0.00466176
3969.48557373,0.00460796
3971.41438110,0.00466824
3973.34318848,0.00451824
3975.27199585,0.00455666
3977.20080322,0.00452453
3979.12961060,0.00447942
3981.05841797,0.00454849
3982.98722534,0.00451877
3984.91603271,0.00460433
3986.84484009,0.00456048
3988.77364746,0.00447077
3990.70245483,0.00452360
3992.63126221,0.00445569
3994.56006958,0.00444122
3996.48887695,0.00450398
3998.41768433,0.00444785
4000.34649170,0.00448827
4002.27529907,0.00450294
4004.20410645,0.00444449
4006.13291382,0.00440490
4008.06172119,0.00435079
4009.99052856,0.00443784
4011.91933594,0.00443903
4013.84814331,0.00436170
4015.77695068,0.00437970
4017.70575806,0.00441858
4019.63456543,0.00433751
4021.56337280,0.00424688
4023.49218018,0.00434967
4025.42098755,0.00433603
4027.34979492,0.00428433
4029.27860229,0.00425637
4031.20740967,0.00426254
4033.13621704,0.00437295
4035.06502441,0.00430802
4036.99383179,0.00421439
4038.92263916,0.00422142
4040.85144653,0.00428891
4042.78025391,0.00428345
4044.70906128,0.00421567
4046.63786865,0.00423997
4048.56667603,0.00419733
4050.49548340,0.00413086
4052.42429077,0.00418541
4054.35309814,0.00419695
4056.28190552,0.00412023
4058.21071289,0.00412935
4060.13952026,0.00412592
4062.06832764,0.00419351
4063.99713501,0.00416679
4065.92594238,0.00402034
4067.85474976,0.00414890
4069.78355713,0.00411542
4071.71236450,0.00403873
4073.64117187,0.00407640
4075.56997925,0.00401336
4077.49878662,0.00408038
4079.42759399,0.00407534
4081.35640137,0.00401654
4083.28520874,0.00399829
4085.21401611,0.00402700
4087.14282349,0.00404204
4089.07163086,0.00397999
4091.00043823,0.00402649
4092.92924561,0.00401956
4094.85805298,0.00394915
4096.78686035,0.00389333
4098.71566772,0.00391946
4100.64447510,0.00397547
4102.57328247,0.00392003
4104.50208984,0.00393665
4106.43089722,0.00396851
4108.35970459,0.00395876
4110.28851196,0.00392886
4112.21731934,0.00387221
4114.14612671,0.00386406
4116.07493408,0.00385748
4118.00374145,0.00381161
4119.93254883,0.00376620
4121.86135620,0.00383858
4123.79016357,0.00390043
4125.71897095,0.00385540
4127.64777832,0.00386539
4129.57658569,0.00386982
4131.50539307,0.00383402
4133.43420044,0.00381630
4135.36300781,0.00383631
4137.29181519,0.00384621
4139.22062256,0.00378937
4141.14942993,0.00376948
4143.07823730,0.00376280
4145.00704468,0.00375774
4146.93585205,0.00372953
4148.86465942,0.00365363
4150.79346680,0.00363809
4152.72227417,0.00371546
4154.65108154,0.00378818
4156.57988892,0.00366913
4158.50869629,0.00368358
4160.43750366,0.00376644
4162.36631103,0.00364222
4164.29511841,0.00364263
4166.22392578,0.00357214
4168.15273315,0.00356095
4170.08154053,0.00372109
4172.01034790,0.00372019
4173.93915527,0.00359436
4175.86796265,0.00356498
4177.79677002,0.00367086
4179.72557739,0.00353969
4181.65438477,0.00356553
4183.58319214,0.00368218
4185.51199951,0.00362343
4187.44080688,0.00365572
4189.36961426,0.00354291
4191.29842163,0.00361273
4193.22722900,0.00355549
4195.15603638,0.00340658
4197.08484375,0.00352397
4199.01365112,0.00342018
4200.94245850,0.00343980
4202.87126587,0.00349569
4204.80007324,0.00346844
4206.72888062,0.00345877
4208.65768799,0.00343881
4210.58649536,0.00355448
4212.51530273,0.00352975
4214.44411011,0.00345046
4216.37291748,0.00340489
4218.30172485,0.00341878
4220.23053223,0.00346053
4222.15933960,0.00343270
4224.08814697,0.00344978
4226.01695435,0.00344367
4227.94576172,0.00339457
4229.87456909,0.00339617
4231.80337646,0.00345867
4233.73218384,0.00341358
4235.66099121,0.00341349
4237.58979858,0.00338855
4239.51860596,0.00327663
4241.44741333,0.00332820
4243.37622070,0.00330909
4245.30502808,0.00336459
4247.23383545,0.00343097
4249.16264282,0.00328563
4251.09145020,0.00323658
4253.02025757,0.00331252
4254.94906494,0.00333277
4256.87787231,0.00327934
4258.80667969,0.00332257
4260.73548706,0.00332410
4262.66429443,0.00326781
4264.59310181,0.00327004
4266.52190918,0.00326744
4268.45071655,0.00324829
4270.37952393,0.00314721
4272.30833130,0.00315897
4274.23713867,0.00321114
4276.16594604,0.00321461
4278.09475342,0.00323990
4280.02356079,0.00318015
4281.95236816,0.00317016
4283.88117554,0.00313855
4285.80998291,0.00316224
4287.73879028,0.00322694
4289.66759766,0.00312228
4291.59640503,0.00313421
4293.52521240,0.00312335
4295.45401978,0.00308754
4297.38282715,0.00318428
4299.31163452,0.00313138
4301.24044189,0.00307432
4303.16924927,0.00306916
4305.09805664,0.00311610
4307.02686401,0.00308433
4308.95567139,0.00295832
4310.88447876,0.00305555
4312.81328613,0.00301335
4314.74209351,0.00293983
4316.67090088,0.00301631
4318.59970825,0.00301569
4320.52851562,0.00300958
4322.45732300,0.00296786
4324.38613037,0.00297143
4326.31493774,0.00293891
4328.24374512,0.00299402
4330.17255249,0.00300609
4332.10135986,0.00293170
4334.03016724,0.00308204
4335.95897461,0.00300059
4337.88778198,0.00289742
4339.81658936,0.00300273
4341.74539673,0.00296580
4343.67420410,0.00293426
4345.60301147,0.00301664
4347.53181885,0.00302183
4349.46062622,0.00294155
4351.38943359,0.00296858
4353.31824097,0.00297192
4355.24704834,0.00293843
4357.17585571,0.00283148
4359.10466309,0.00282224
4361.03347046,0.00290812
4362.96227783,0.00282762
4364.89108520,0.00290120
4366.81989258,0.00287192
4368.74869995,0.00279241
4370.67750732,0.00286457
4372.60631470,0.00288422
4374.53512207,0.00290937
4376.46392944,0.00280914
4378.39273682,0.00283532
4380.32154419,0.00293550
4382.25035156,0.00286936
4384.17915894,0.00276137
4386.10796631,0.00275044
4388.03677368,0.00279554
4389.96558105,0.00274711
4391.89438843,0.00275673
4393.82319580,0.00272741
4395.75200317,0.00269885
4397.68081055,0.00270949
4399.60961792,0.00271991
4401.53842529,0.00271220
4403.46723267,0.00263960
4405.39604004,0.00269535
4407.32484741,0.00267249
4409.25365478,0.00266955
4411.18246216,0.00276539
4413.11126953,0.00271607
4415.04007690,0.00268752
4416.96888428,0.00271888
4418.89769165,0.00266247
4420.82649902,0.00263516
4422.75530640,0.00268618
4424.68411377,0.00264944
4426.61292114,0.00270646
4428.54172852,0.00263238
4430.47053589,0.00251838
4432.39934326,0.00267535
4434.32815063,0.00264327
4436.25695801,0.00258066
4438.18576538,0.00266416
4440.11457275,0.00269514
4442.04338013,0.00257632
4443.97218750,0.00254993
4445.90099487,0.00262794
4447.82980225,0.00257358
4449.75860962,0.00255158
4451.68741699,0.00247950
4453.61622437,0.00255076
4455.54503174,0.00254699
4457.47383911,0.00248734
4459.40264648,0.00260621
4461.33145386,0.00255711
4463.26026123,0.00256144
4465.18906860,0.00252249
4467.11787598,0.00259083
4469.04668335,0.00257209
4470.97549072,0.00240926
4472.90429810,0.00256614
4474.83310547,0.00252422
4476.76191284,0.00248174
4478.69072021,0.00249495
4480.61952759,0.00245943
4482.54833496,0.00252974
4484.47714233,0.00250458
4486.40594971,0.00246831
4488.33475708,0.00240648
4490.26356445,0.00250266
4492.19237183,0.00249397
4494.12117920,0.00236787
4496.04998657,0.00244945
4497.97879395,0.00241234
4499.90760132,0.00239516
4501.83640869,0.00243381
4503.76521606,0.00235370
4505.69402344,0.00237368
4507.62283081,0.00245753
4509.55163818,0.00235941
4511.48044556,0.00229433
4513.40925293,0.00239140
4515.33806030,0.00241238
4517.26686768,0.00236143
4519.19567505,0.00227908
4521.12448242,0.00229787
4523.05328979,0.00240422
4524.98209717,0.00239043
4526.91090454,0.00233902
4528.83971191,0.00234513
4530.76851929,0.00230354
4532.69732666,0.00229221
4534.62613403,0.00235642
4536.55494141,0.00230900
4538.48374878,0.00231004
4540.41255615,0.00233990
4542.34136353,0.00227632
4544.27017090,0.00223068
4546.19897827,0.00219494
4548.12778564,0.00225619
4550.05659302,0.00229710
4551.98540039,0.00222736
4553.91420776,0.00222395
4555.84301514,0.00227595
4557.77182251,0.00225541
4559.70062988,0.00223229
4561.62943726,0.00221536
4563.55824463,0.00216072
4565.48705200,0.00219537
4567.41585937,0.00222697
4569.34466675,0.00220164
4571.27347412,0.00218570
4573.20228149,0.00218602
4575.13108887,0.00214916
4577.05989624,0.00214068
4578.98870361,0.00218213
4580.91751099,0.00213073
4582.84631836,0.00217587
4584.77512573,0.00217531
4586.70393311,0.00213048
4588.63274048,0.00218512
4590.56154785,0.00213389
4592.49035522,0.00213186
4594.41916260,0.00208051
4596.34796997,0.00208131
4598.27677734,0.00216978
4600.20558472,0.00210449
4602.13439209,0.00210672
4604.06319946,0.00209978
4605.99200684,0.00208128
4607.92081421,0.00207291
4609.84962158,0.00207848
4611.77842895,0.00214803
4613.70723633,0.00203347
4615.63604370,0.00198453
4617.56485107,0.00205563
4619.49365845,0.00200563
4621.42246582,0.00204564
4623.35127319,0.00208834
4625.28008057,0.00202933
4627.20888794,0.00206214
4629.13769531,0.00212935
4631.06650269,0.00206398
4632.99531006,0.00197023
4634.92411743,0.00202400
4636.85292480,0.00205509
4638.78173218,0.00203668
4640.71053955,0.00206051
4642.63934692,0.00202387
4644.56815430,0.00195828
4646.49696167,0.00192028
4648.42576904,0.00202112
4650.35457642,0.00205683
4652.28338379,0.00192247
4654.21219116,0.00194748
4656.14099853,0.00201455
4658.06980591,0.00198100
4659.99861328,0.00192776
4661.92742065,0.00193214
4663.85622803,0.00192016
4665.78503540,0.00186925
4667.71384277,0.00193612
4669.64265015,0.00196421
4671.57145752,0.00193882
4673.50026489,0.00192251
4675.42907227,0.00190255
4677.35787964,0.00189748
4679.28668701,0.00185874
4681.21549438,0.00189432
4683.14430176,0.00186367
4685.07310913,0.00177457
4687.00191650,0.00186326
4688.93072388,0.00183619
4690.85953125,0.00178877
4692.78833862,0.00191657
4694.71714600,0.00184848
4696.64595337,0.00181309
4698.57476074,0.00183791
4700.50356812,0.00181708
4702.43237549,0.00192703
4704.36118286,0.00186121
4706.28999023,0.00186301
4708.21879761,0.00189335
4710.14760498,0.00177215
4712.07641235,0.00178008
4714.00521973,0.00178976
4715.93402710,0.00185870
4717.86283447,0.00183977
4719.79164185,0.00178028
4721.72044922,0.00179873
4723.64925659,0.00172096
4725.57806396,0.00168069
4727.50687134,0.00177618
4729.43567871,0.00187602
4731.36448608,0.00172894
4733.29329346,0.00169522
4735.22210083,0.00178212
4737.15090820,0.00174302
4739.07971558,0.00176393
4741.00852295,0.00176489
4742.93733032,0.00177716
4744.86613770,0.00174815
4746.79494507,0.00179034
4748.72375244,0.00176813
4750.65255981,0.00166724
4752.58136719,0.00172215
4754.51017456,0.00173185
4756.43898193,0.00178611
4758.36778931,0.00171070
4760.29659668,0.00168931
4762.22540405,0.00177111
4764.15421143,0.00166695
4766.08301880,0.00168415
4768.01182617,0.00171798
4769.94063354,0.00172265
4771.86944092,0.00169886
4773.79824829,0.00163920
4775.72705566,0.00165730
4777.65586304,0.00172617
4779.58467041,0.00173465
4781.51347778,0.00164120
4783.44228516,0.00166503
4785.37109253,0.00167057
4787.29989990,0.00168233
4789.22870728,0.00169815
4791.15751465,0.00164118
4793.08632202,0.00168828
4795.01512939,0.00168644
4796.94393677,0.00159731
4798.87274414,0.00155829
4800.80155151,0.00162436
4802.73035889,0.00164061
4804.65916626,0.00166353
4806.58797363,0.00166482
4808.51678101,0.00155641
4810.44558838,0.00161342
4812.37439575,0.00165549
4814.30320312,0.00164880
4816.23201050,0.00164986
4818.16081787,0.00161604
4820.08962524,0.00161568
4822.01843262,0.00157793
4823.94723999,0.00159455
4825.87604736,0.00155540
4827.80485474,0.00150766
4829.73366211,0.00161191
4831.66246948,0.00162761
4833.59127686,0.00152708
4835.52008423,0.00154871
4837.44889160,0.00160553
4839.37769897,0.00155368
4841.30650635,0.00149513
4843.23531372,0.00148428
4845.16412109,0.00154894
4847.09292847,0.00155805
4849.02173584,0.00153363
4850.95054321,0.00154061
4852.87935059,0.00152284
4854.80815796,0.00150484
4856.73696533,0.00146318
4858.66577270,0.00150236
4860.59458008,0.00149250
4862.52338745,0.00147290
4864.45219482,0.00150193
4866.38100220,0.00146334
4868.30980957,0.00148666
4870.23861694,0.00146456
4872.16742432,0.00153044
4874.09623169,0.00157985
4876.02503906,0.00145817
4877.95384644,0.00150680
4879.88265381,0.00153057
4881.81146118,0.00146866
4883.74026855,0.00146313
4885.66907593,0.00136692
4887.59788330,0.00135446
4889.52669067,0.00146215
4891.45549805,0.00143899
4893.38430542,0.00143254
4895.31311279,0.00146700
4897.24192017,0.00142284
4899.17072754,0.00142193
4901.09953491,0.00139426
4903.02834228,0.00141311
4904.95714966,0.00150111
4906.88595703,0.00146652
4908.81476440,0.00142201
4910.74357178,0.00143669
4912.67237915,0.00140982
4914.60118652,0.00138804
4916.52999390,0.00141500
4918.45880127,0.00140194
4920.38760864,0.00140123
4922.31641602,0.00142496
4924.24522339,0.00138607
4926.17403076,0.00136309
4928.10283813,0.00140701
4930.03164551,0.00139696
4931.96045288,0.00137790
4933.88926025,0.00137827
4935.81806763,0.00126528
4937.74687500,0.00129867
4939.67568237,0.00138749
4941.60448975,0.00131181
4943.53329712,0.00126503
4945.46210449,0.00128046
4947.39091187,0.00138448
4949.31971924,0.00134743
4951.24852661,0.00132430
4953.17733398,0.00139658
4955.10614136,0.00127135
4957.03494873,0.00127259
4958.96375610,0.00131067
4960.89256348,0.00123243
4962.82137085,0.00126127
4964.75017822,0.00132326
4966.67898560,0.00128761
4968.60779297,0.00128124
4970.53660034,0.00133005
4972.46540771,0.00124192
4974.39421509,0.00125072
4976.32302246,0.00129887
4978.25182983,0.00122629
4980.18063721,0.00121307
4982.10944458,0.00118722
4984.03825195,0.00121755
4985.96705933,0.00128639
4987.89586670,0.00127860
4989.82467407,0.00123877
4991.75348145,0.00121631
4993.68228882,0.00124795
4995.61109619,0.00126612
4997.53990356,0.00123331
4999.46871094,0.00119775
5001.39751831,0.00123096
5003.32632568,0.00125087
5005.25513306,0.00119008
5007.18394043,0.00116516
5009.11274780,0.00121536
5011.04155518,0.00125979
5012.97036255,0.00123928
5014.89916992,0.00118689
5016.82797729,0.00117186
5018.75678467,0.00119805
5020.68559204,0.00118445
5022.61439941,0.00115802
5024.54320679,0.00119051
5026.47201416,0.00118700
5028.40082153,0.00116401
5030.32962891,0.00121216
5032.25843628,0.00119386
5034.18724365,0.00114299
5036.11605103,0.00113359
5038.04485840,0.00112801
5039.97366577,0.00117449
5041.90247314,0.00109297
5043.83128052,0.00107984
5045.76008789,0.00119720
5047.68889526,0.00110478
5049.61770264,0.00108211
5051.54651001,0.00113156
5053.47531738,0.00110700
5055.40412476,0.00112505
5057.33293213,0.00112102
5059.26173950,0.00113656
5061.19054687,0.00115927
5063.11935425,0.00113623
5065.04816162,0.00113554
5066.97696899,0.00116727
5068.90577637,0.00112034
5070.83458374,0.00107274
5072.76339111,0.00111063
5074.69219849,0.00116461
5076.62100586,0.00113578
5078.54981323,0.00105455
5080.47862061,0.00112180
5082.40742798,0.00114085
5084.33623535,0.00112827
5086.26504272,0.00115427
5088.19385010,0.00107147
5090.12265747,0.00106849
5092.05146484,0.00112437
5093.98027222,0.00118873
5095.90907959,0.00114831
5097.83788696,0.00106120
5099.76669434,0.00110326
5101.69550171,0.00109611
5103.62430908,0.00107922
5105.55311645,0.00108403
5107.48192383,0.00107547
5109.41073120,0.00108181
5111.33953857,0.00109816
5113.26834595,0.00102050
5115.19715332,0.00095272
5117.12596069,0.00104584
5119.05476807,0.00106667
5120.98357544,0.00106683
5122.91238281,0.00108444
5124.84119019,0.00106381
5126.76999756,0.00101296
5128.69880493,0.00103177
5130.62761230,0.00112206
5132.55641968,0.00100202
5134.48522705,0.00103144
5136.41403442,0.00110525
5138.34284180,0.00098358
5140.27164917,0.00103785
5142.20045654,0.00100965
5144.12926392,0.00100528
5146.05807129,0.00106031
5147.98687866,0.00099020
5149.91568603,0.00105159
5151.84449341,0.00096718
5153.77330078,0.00086711
5155.70210815,0.00098354
5157.63091553,0.00101668
5159.55972290,0.00099341
5161.48853027,0.00096606
5163.41733765,0.00100384
5165.34614502,0.00099902
5167.27495239,0.00097009
5169.20375977,0.00097662
5171.13256714,0.00089447
5173.06137451,0.00098363
5174.99018188,0.00103130
5176.91898926,0.00099130
5178.84779663,0.00099683
5180.77660400,0.00089777
5182.70541138,0.00094635
5184.63421875,0.00096530
5186.56302612,0.00094792
5188.49183350,0.00095757
5190.42064087,0.00089069
5192.34944824,0.00093497
5194.27825562,0.00095686
5196.20706299,0.00093473
5198.13587036,0.00090475
5200.06467773,0.00096526
5201.99348511,0.00095375
5203.92229248,0.00085008
5205.85109985,0.00093910
5207.77990723,0.00091278
5209.70871460,0.00089610
5211.63752197,0.00096376
5213.56632935,0.00092402
5215.49513672,0.00088589
5217.42394409,0.00088086
5219.35275146,0.00088298
5221.28155884,0.00084117
5223.21036621,0.00093096
5225.13917358,0.00091619
5227.06798096,0.00081505
5228.99678833,0.00090558
5230.92559570,0.00086709
5232.85440308,0.00086840
5234.78321045,0.00095919
5236.71201782,0.00091851
5238.64082520,0.00091353
5240.56963257,0.00088649
5242.49843994,0.00082888
5244.42724731,0.00087923
5246.35605469,0.00086738
5248.28486206,0.00080907
5250.21366943,0.00089095
5252.14247681,0.00090718
5254.07128418,0.00084008
5256.00009155,0.00088197
5257.92889893,0.00092616
5259.85770630,0.00090292
5261.78651367,0.00087055
5263.71532104,0.00078122
5265.64412842,0.00077658
5267.57293579,0.00086806
5269.50174316,0.00080256
5271.43055054,0.00082059
5273.35935791,0.00084943
5275.28816528,0.00077566
5277.21697266,0.00089211
5279.14578003,0.00091487
5281.07458740,0.00083607
5283.00339478,0.00084081
5284.93220215,0.00080997
5286.86100952,0.00081956
5288.78981689,0.00084530
5290.71862427,0.00082242
5292.64743164,0.00079352
5294.57623901,0.00079271
5296.50504639,0.00081941
5298.43385376,0.00081399
5300.36266113,0.00081767
5302.29146851,0.00087027
5304.22027588,0.00082800
5306.14908325,0.00080136
5308.07789062,0.00085898
5310.00669800,0.00084056
5311.93550537,0.00083845
5313.86431274,0.00080746
5315.79312012,0.00076617
5317.72192749,0.00079264
5319.65073486,0.00082265
5321.57954224,0.00083234
5323.50834961,0.00077788
5325.43715698,0.00080410
5327.36596436,0.00082145
5329.29477173,0.00075357
5331.22357910,0.00073938
5333.15238647,0.00071901
5335.08119385,0.00073064
5337.01000122,0.00074415
5338.93880859,0.00069320
5340.86761597,0.00068400
5342.79642334,0.00071599
5344.72523071,0.00071073
5346.65403809,0.00073968
5348.58284546,0.00078411
5350.51165283,0.00077190
5352.44046020,0.00077637
5354.36926758,0.00077116
5356.29807495,0.00080458
5358.22688232,0.00079888
5360.15568970,0.00073458
5362.08449707,0.00079075
5364.01330444,0.00071915
5365.94211182,0.00065776
5367.87091919,0.00080268
5369.79972656,0.00077071
5371.72853394,0.00071842
5373.65734131,0.00070966
5375.58614868,0.00064833
5377.51495605,0.00070787
5379.44376343,0.00075345
5381.37257080,0.00082245
5383.30137817,0.00076535
5385.23018555,0.00068355
5387.15899292,0.00079302
5389.08780029,0.00072719
5391.01660767,0.00070835
5392.94541504,0.00072515
5394.87422241,0.00066128
5396.80302978,0.00065223
5398.73183716,0.00063826
5400.66064453,0.00076204
5402.58945190,0.00074231
5404.51825928,0.00067318
5406.44706665,0.00072193
5408.37587402,0.00069199
5410.30468140,0.00065555
5412.23348877,0.00063699
5414.16229614,0.00074069
5416.09110352,0.00073516
5418.01991089,0.00064404
5419.94871826,0.00064530
5421.87752563,0.00063347
5423.80633301,0.00067167
5425.73514038,0.00068283
5427.66394775,0.00069667
5429.59275513,0.00064512
5431.52156250,0.00061360
5433.45036987,0.00067286
5435.37917725,0.00064456
5437.30798462,0.00068021
5439.23679199,0.00068952
5441.16559936,0.00062759
5443.09440674,0.00064323
5445.02321411,0.00062315
5446.95202148,0.00063182
5448.88082886,0.00071477
5450.80963623,0.00064814
5452.73844360,0.00059468
5454.66725098,0.00064499
5456.59605835,0.00062365
5458.52486572,0.00065897
5460.45367310,0.00066869
5462.38248047,0.00066089
5464.31128784,0.00061909
5466.24009521,0.00055407
5468.16890259,0.00066842
5470.09770996,0.00066473
5472.02651733,0.00060925
5473.95532471,0.00063800
5475.88413208,0.00057813
5477.81293945,0.00058411
5479.74174683,0.00065356
5481.67055420,0.00063235
5483.59936157,0.00060260
5485.52816895,0.00062996
5487.45697632,0.00060509
5489.38578369,0.00061805
5491.31459106,0.00063809
5493.24339844,0.00056578
5495.17220581,0.00060584
5497.10101318,0.00066950
5499.02982056,0.00061205
5500.95862793,0.00060538
5502.88743530,0.00062625
5504.81624268,0.00060230
5506.74505005,0.00061606
5508.67385742,0.00059575
5510.60266479,0.00059043
5512.53147217,0.00058498
5514.46027954,0.00059027
5516.38908691,0.00063251
5518.31789429,0.00056242
5520.24670166,0.00057216
5522.17550903,0.00054732
5524.10431641,0.00055221
5526.03312378,0.00065804
5527.96193115,0.00061011
5529.89073853,0.00065919
5531.81954590,0.00064358
5533.74835327,0.00058480
5535.67716064,0.00059131
5537.60596802,0.00055986
5539.53477539,0.00062213
5541.46358276,0.00055814
5543.39239014,0.00052494
5545.32119751,0.00057763
5547.25000488,0.00052182
5549.17881226,0.00054398
5551.10761963,0.00064592
5553.03642700,0.00061668
5554.96523437,0.00053723
5556.89404175,0.00060510
5558.82284912,0.00061234
5560.75165649,0.00056045
5562.68046387,0.00052361
5564.60927124,0.00052320
5566.53807861,0.00062570
5568.46688599,0.00057353
5570.39569336,0.00047082
5572.32450073,0.00057747
5574.25330811,0.00061712
5576.18211548,0.00050195
5578.11092285,0.00055676
5580.03973022,0.00054462
5581.96853760,0.00047858
5583.89734497,0.00055411
5585.82615234,0.00049356
5587.75495972,0.00054733
5589.68376709,0.00059064
5591.61257446,0.00052800
5593.54138184,0.00056746
5595.47018921,0.00051255
5597.39899658,0.00050222
5599.32780395,0.00053920
5601.25661133,0.00053983
5603.18541870,0.00050911
5605.11422607,0.00050546
5607.04303345,0.00052065
5608.97184082,0.00049826
5610.90064819,0.00053474
5612.82945557,0.00051438
5614.75826294,0.00054699
5616.68707031,0.00057038
5618.61587769,0.00050647
5620.54468506,0.00053559
5622.47349243,0.00057035
5624.40229980,0.00053569
5626.33110718,0.00048449
5628.25991455,0.00055767
5630.18872192,0.00054278
5632.11752930,0.00046788
5634.04633667,0.00052475
5635.97514404,0.00053050
5637.90395142,0.00054451
5639.83275879,0.00056122
5641.76156616,0.00058343
5643.69037353,0.00051621
5645.61918091,0.00044936
5647.54798828,0.00052010
5649.47679565,0.00047325
5651.40560303,0.00051312
5653.33441040,0.00056896
5655.26321777,0.00049298
5657.19202515,0.00047710
5659.12083252,0.00046713
5661.04963989,0.00048531
5662.97844727,0.00045345
5664.90725464,0.00045678
5666.83606201,0.00047899
5668.76486938,0.00043885
5670.69367676,0.00051673
5672.62248413,0.00050149
5674.55129150,0.00042069
5676.48009888,0.00047309
5678.40890625,0.00050289
5680.33771362,0.00047998
5682.26652100,0.00052259
5684.19532837,0.00054219
5686.12413574,0.00046626
5688.05294311,0.00047835
5689.98175049,0.00044169
5691.91055786,0.00040106
5693.83936523,0.00048091
5695.76817261,0.00044480
5697.69697998,0.00041535
5699.62578735,0.00044851
5701.55459473,0.00048628
5703.48340210,0.00047349
5705.41220947,0.00044018
5707.34101685,0.00048846
5709.26982422,0.00046742
5711.19863159,0.00046498
5713.12743896,0.00048730
5715.05624634,0.00046773
5716.98505371,0.00047974
5718.91386108,0.00046952
5720.84266846,0.00042108
5722.77147583,0.00042315
5724.70028320,0.00045839
5726.62909058,0.00041496
5728.55789795,0.00044046
5730.48670532,0.00048716
5732.41551270,0.00046362
5734.34432007,0.00047219
5736.27312744,0.00046681
5738.20193481,0.00039680
5740.13074219,0.00037419
5742.05954956,0.00046811
5743.98835693,0.00039061
5745.91716431,0.00038400
5747.84597168,0.00047133
5749.77477905,0.00038424
5751.70358643,0.00046130
5753.63239380,0.00050801
5755.56120117,0.00049540
5757.49000854,0.00045212
5759.41881592,0.00037245
5761.34762329,0.00042957
5763.27643066,0.00041352
5765.20523804,0.00044598
5767.13404541,0.00043617
5769.06285278,0.00042291
5770.99166016,0.00049659
5772.92046753,0.00045962
5774.84927490,0.00046868
5776.77808228,0.00047661
5778.70688965,0.00045372
5780.63569702,0.00044563
5782.56450439,0.00042237
5784.49331177,0.00041091
5786.42211914,0.00042978
5788.35092651,0.00044139
5790.27973389,0.00043350
5792.20854126,0.00041133
5794.13734863,0.00040392
5796.06615601,0.00045176
5797.99496338,0.00037440
5799.92377075,0.00040651
5801.85257812,0.00049481
5803.78138550,0.00038934
5805.71019287,0.00034643
5807.63900024,0.00036909
5809.56780762,0.00042453
5811.49661499,0.00035631
5813.42542236,0.00034962
5815.35422974,0.00040176
5817.28303711,0.00033132
5819.21184448,0.00040389
5821.14065186,0.00039802
5823.06945923,0.00036578
5824.99826660,0.00036548
5826.92707397,0.00037946
5828.85588135,0.00044184
5830.78468872,0.00038621
5832.71349609,0.00043486
5834.64230347,0.00047040
5836.57111084,0.00035963
5838.49991821,0.00031855
5840.42872559,0.00040092
5842.35753296,0.00040709
5844.28634033,0.00035237
5846.21514770,0.00038107
5848.14395508,0.00035683
5850.07276245,0.00033936
5852.00156982,0.00035310
5853.93037720,0.00034921
5855.85918457,0.00034899
5857.78799194,0.00043950
5859.71679932,0.00041176
5861.64560669,0.00029379
5863.57441406,0.00039208
5865.50322144,0.00036658
5867.43202881,0.00038018
5869.36083618,0.00042836
5871.28964355,0.00032234
5873.21845093,0.00034966
5875.14725830,0.00034425
5877.07606567,0.00032344
5879.00487305,0.00035282
5880.93368042,0.00037119
5882.86248779,0.00032400
5884.79129517,0.00029440
5886.72010254,0.00036295
5888.64890991,0.00034747
5890.57771728,0.00032153
5892.50652466,0.00031884
5894.43533203,0.00031820
5896.36413940,0.00034933
5898.29294678,0.00038105
5900.22175415,0.00034649
5902.15056152,0.00035034
5904.07936890,0.00037448
5906.00817627,0.00033031
5907.93698364,0.00036433
5909.86579102,0.00038528
5911.79459839,0.00040481
5913.72340576,0.00033483
5915.65221313,0.00033072
5917.58102051,0.00037052
5919.50982788,0.00027089
5921.43863525,0.00041912
5923.36744263,0.00041337
5925.29625000,0.00031393
5927.22505737,0.00037318
5929.15386475,0.00029472
5931.08267212,0.00032720
5933.01147949,0.00037970
5934.94028686,0.00036540
5936.86909424,0.00034169
5938.79790161,0.00034417
5940.72670898,0.00033455
5942.65551636,0.00029535
5944.58432373,0.00033192
5946.51313110,0.00032539
5948.44193848,0.00033932
5950.37074585,0.00031774
5952.29955322,0.00030695
5954.22836060,0.00032337
5956.15716797,0.00032525
5958.08597534,0.00039541
5960.01478271,0.00034391
5961.94359009,0.00030280
5963.87239746,0.00035543
5965.80120483,0.00032357
5967.73001221,0.00026939
5969.65881958,0.00029745
5971.58762695,0.00031977
5973.51643433,0.00034518
5975.44524170,0.00037740
5977.37404907,0.00033280
5979.30285645,0.00032406
5981.23166382,0.00030354
5983.16047119,0.00029584
5985.08927856,0.00025255
5987.01808594,0.00024688
5988.94689331,0.00036565
5990.87570068,0.00034628
5992.80450806,0.00034770
5994.73331543,0.00035244
5996.66212280,0.00031920
5998.59093018,0.00032034
6000.51973755,0.00026196
