399.26312622,0.00293058
401.19193359,0.00295239
403.12074097,0.00298079
405.04954834,0.00365781
406.97835571,0.00380418
408.90716309,0.00395107
410.83597046,0.00417989
412.76477783,0.00420577
414.69358521,0.00464390
416.62239258,0.00461115
418.55119995,0.00396210
420.48000732,0.00403559
422.40881470,0.00443663
424.33762207,0.00519854
426.26642944,0.00494832
428.19523682,0.00446681
430.12404419,0.00528857
432.05285156,0.00498009
433.98165894,0.00455037
435.91046631,0.00413338
437.83927368,0.00382718
439.76808105,0.00465478
441.69688843,0.00464328
443.62569580,0.00446028
445.55450317,0.00444102
447.48331055,0.00403905
449.41211792,0.00397251
451.34092529,0.00412280
453.26973267,0.00382266
455.19854004,0.00340125
457.12734741,0.00311388
459.05615479,0.00274335
460.98496216,0.00260114
462.91376953,0.00249053
464.84257690,0.00271462
466.77138428,0.00237971
468.70019165,0.00207349
470.62899902,0.00227828
472.55780640,0.00170973
474.48661377,0.00160710
476.41542114,0.00174290
478.34422852,0.00182622
480.27303589,0.00128170
482.20184326,0.00087215
484.13065063,0.00129634
486.05945801,0.00080822
487.98826538,0.00077435
489.91707275,0.00087511
491.84588013,0.00079081
493.77468750,0.00072862
495.70349487,0.00073766
497.63230225,0.00073942
499.56110962,-0.00004453
501.48991699,0.00047802
503.41872437,0.00069800
505.34753174,0.00024537
507.27633911,0.00042054
509.20514648,0.00032564
511.13395386,0.00050191
513.06276123,0.00040535
514.99156860,0.00050410
516.92037598,0.00052101
518.84918335,0.00035830
520.77799072,0.00039141
522.70679810,0.00059717
524.63560547,0.00074163
526.56441284,0.00015909
528.49322021,0.00038304
530.42202759,0.00036020
532.35083496,0.00001115
534.27964233,0.00044549
536.20844971,0.00049318
538.13725708,0.00029226
540.06606445,0.00012836
541.99487183,0.00015637
543.92367920,0.00013366
545.85248657,0.00033738
547.78129395,0.00049822
549.71010132,0.00026574
551.63890869,0.00021221
553.56771606,-0.00001379
555.49652344,0.00012253
557.42533081,0.00048224
559.35413818,0.00016477
561.28294556,-0.00006005
563.21175293,0.00001721
565.14056030,0.00000574
567.06936768,0.00022170
568.99817505,0.00007491
570.92698242,0.00009601
572.85578979,0.00048707
574.78459717,0.00006207
576.71340454,0.00002016
578.64221191,0.00024567
580.57101929,0.00034894
582.49982666,0.00014469
584.42863403,0.00009964
586.35744141,0.00021321
588.28624878,-0.00033544
590.21505615,0.00014536
592.14386353,0.00033914
594.07267090,-0.00048152
596.00147827,-0.00016736
597.93028564,0.00042015
599.85909302,0.00025313
601.78790039,0.00014774
603.71670776,0.00005071
605.64551514,-0.00006235
607.57432251,0.00015053
609.50312988,0.00042879
611.43193726,0.00005202
613.36074463,-0.00008344
615.28955200,-0.00011228
617.21835938,-0.00033075
619.14716675,-0.00002393
621.07597412,-0.00024978
623.00478149,-0.00015459
624.93358887,0.00023494
626.86239624,0.00020201
628.79120361,0.00003280
630.72001099,0.00092188
632.64881836,0.00201544
634.57762573,0.00217454
636.50643311,0.00297055
638.43524048,0.00296982
640.36404785,0.00321811
642.29285522,0.00393075
644.22166260,0.00397004
646.15046997,0.00479410
648.07927734,0.00502821
650.00808472,0.00510870
651.93689209,0.00517059
653.86569946,0.00535865
655.79450684,0.00571769
657.72331421,0.00590427
659.65212158,0.00668697
661.58092896,0.00616878
663.50973633,0.00652921
665.43854370,0.00718285
667.36735107,0.00615637
669.29615845,0.00716801
671.22496582,0.00822204
673.15377319,0.00802589
675.08258057,0.00841655
677.01138794,0.00857458
678.94019531,0.00869046
680.86900269,0.00889470
682.79781006,0.00894254
684.72661743,0.00878550
686.65542480,0.00852454
688.58423218,0.00862740
690.51303955,0.00908695
692.44184692,0.00944446
694.37065430,0.00992844
696.29946167,0.01131715
698.22826904,0.01309167
700.15707642,0.01400268
702.08588379,0.01361161
704.01469116,0.01255980
705.94349854,0.01140800
707.87230591,0.00991687
709.80111328,0.00797502
711.72992065,0.00569698
713.65872803,0.00322216
715.58753540,0.00176576
717.51634277,0.00160476
719.44515015,0.00091396
721.37395752,0.00048144
723.30276489,0.00090743
725.23157227,0.00064834
727.16037964,0.00035784
729.08918701,0.00035016
731.01799438,0.00044259
732.94680176,0.00040078
734.87560913,0.00016257
736.80441650,0.00023631
738.73322388,0.00001449
740.66203125,-0.00004071
742.59083862,0.00004965
744.51964600,0.00012552
746.44845337,0.00032331
748.37726074,0.00000603
750.30606812,0.00017265
752.23487549,0.00049806
754.16368286,0.00044803
756.09249023,0.00038371
758.02129761,0.00028125
759.95010498,0.00065446
761.87891235,0.00064876
763.80771973,0.00052399
765.73652710,0.00069399
767.66533447,0.00043925
769.59414185,0.00046773
771.52294922,0.00061470
773.45175659,0.00054213
775.38056396,0.00086965
777.30937134,0.00082876
779.23817871,0.00042306
781.16698608,0.00071392
783.09579346,0.00093585
785.02460083,0.00101037
786.95340820,0.00106237
788.88221558,0.00090673
790.81102295,0.00081233
792.73983032,0.00081486
794.66863770,0.00113881
796.59744507,0.00113645
798.52625244,0.00156836
800.45505981,0.00215317
802.38386719,0.00177211
804.31267456,0.00145434
806.24148193,0.00120456
808.17028931,0.00105374
810.09909668,0.00075762
812.02790405,0.00061357
813.95671143,0.00091162
815.88551880,0.00092201
817.81432617,0.00079321
819.74313354,0.00057871
821.67194092,0.00063679
823.60074829,0.00093476
825.52955566,0.00112806
827.45836304,0.00090561
829.38717041,0.00121343
831.31597778,0.00203203
833.24478516,0.00240955
835.17359253,0.00286425
837.10239990,0.00279577
839.03120728,0.00316164
840.96001465,0.00295852
842.88882202,0.00219225
844.81762939,0.00262104
846.74643677,0.00209321
848.67524414,0.00184811
850.60405151,0.00202945
852.53285889,0.00179347
854.46166626,0.00182206
856.39047363,0.00152279
858.31928101,0.00152313
860.24808838,0.00110597
862.17689575,0.00071900
864.10570313,0.00088018
866.03451050,0.00084274
867.96331787,0.00068278
869.89212524,0.00065094
871.82093262,0.00076575
873.74973999,0.00050408
875.67854736,0.00065140
877.60735474,0.00079477
879.53616211,0.00048036
881.46496948,0.00030868
883.39377686,0.00039162
885.32258423,0.00069455
887.25139160,0.00069873
889.18019897,0.00075233
891.10900635,0.00063208
893.03781372,0.00051028
894.96662109,0.00069843
896.89542847,0.00068721
898.82423584,0.00072417
900.75304321,0.00073936
902.68185059,0.00071934
904.61065796,0.00062827
906.53946533,0.00076486
908.46827271,0.00093938
910.39708008,0.00067829
912.32588745,0.00102190
914.25469482,0.00150339
916.18350220,0.00135161
918.11230957,0.00183556
920.04111694,0.00214716
921.96992432,0.00197996
923.89873169,0.00251459
925.82753906,0.00248029
927.75634644,0.00269715
929.68515381,0.00330459
931.61396118,0.00321250
933.54276855,0.00348428
935.47157593,0.00370584
937.40038330,0.00407543
939.32919067,0.00424679
941.25799805,0.00426164
943.18680542,0.00454703
945.11561279,0.00441975
947.04442017,0.00438733
948.97322754,0.00417219
950.90203491,0.00412326
952.83084229,0.00408946
954.75964966,0.00406981
956.68845703,0.00423753
958.61726440,0.00403228
960.54607178,0.00419764
962.47487915,0.00443426
964.40368652,0.00444719
966.33249390,0.00425678
968.26130127,0.00440106
970.19010864,0.00475526
972.11891602,0.00502811
974.04772339,0.00558267
975.97653076,0.00580559
977.90533813,0.00624701
979.83414551,0.00659795
981.76295288,0.00729971
983.69176025,0.00852498
985.62056763,0.00915712
987.54937500,0.00996043
989.47818237,0.01117143
991.40698975,0.01251010
993.33579712,0.01360289
995.26460449,0.01504967
997.19341187,0.01644165
999.12221924,0.01737439
1001.05102661,0.01854042
1002.97983398,0.01984038
1004.90864136,0.02161468
1006.83744873,0.02274855
1008.76625610,0.02397377
1010.69506348,0.02564566
1012.62387085,0.02697315
1014.55267822,0.02860870
1016.48148560,0.02979549
1018.41029297,0.03119787
1020.33910034,0.03275523
1022.26790771,0.03406344
1024.19671509,0.03526104
1026.12552246,0.03647712
1028.05432983,0.03810271
1029.98313721,0.03893668
1031.91194458,0.03985689
1033.84075195,0.04087617
1035.76955933,0.04149736
1037.69836670,0.04209081
1039.62717407,0.04180378
1041.55598145,0.04182556
1043.48478882,0.04185973
1045.41359619,0.04111293
1047.34240356,0.04059865
1049.27121094,0.03998945
1051.20001831,0.03941885
1053.12882568,0.03880837
1055.05763306,0.03782164
1056.98644043,0.03701170
1058.91524780,0.03614427
1060.84405518,0.03518141
1062.77286255,0.03407060
1064.70166992,0.03283955
1066.63047729,0.03174401
1068.55928467,0.03045160
1070.48809204,0.02929759
1072.41689941,0.02794146
1074.34570679,0.02637241
1076.27451416,0.02512871
1078.20332153,0.02399519
1080.13212891,0.02291097
1082.06093628,0.02169427
1083.98974365,0.02097545
1085.91855103,0.02012536
1087.84735840,0.01882465
1089.77616577,0.01799938
1091.70497314,0.01719504
1093.63378052,0.01660583
1095.56258789,0.01594519
1097.49139526,0.01528861
1099.42020264,0.01515949
1101.34901001,0.01476544
1103.27781738,0.01419669
1105.20662476,0.01381962
1107.13543213,0.01346934
1109.06423950,0.01333758
1110.99304687,0.01323524
1112.92185425,0.01297574
1114.85066162,0.01305174
1116.77946899,0.01297624
1118.70827637,0.01292286
1120.63708374,0.01306977
1122.56589111,0.01305281
1124.49469849,0.01338887
1126.42350586,0.01359248
1128.35231323,0.01387424
1130.28112061,0.01401115
1132.20992798,0.01429780
1134.13873535,0.01513017
1136.06754272,0.01542063
1137.99635010,0.01629926
1139.92515747,0.01739502
1141.85396484,0.01827643
1143.78277222,0.01975213
1145.71157959,0.02114149
1147.64038696,0.02223030
1149.56919434,0.02319354
1151.49800171,0.02453759
1153.42680908,0.02573675
1155.35561646,0.02663626
1157.28442383,0.02783172
1159.21323120,0.02908897
1161.14203857,0.03029821
1163.07084595,0.03141316
1164.99965332,0.03258776
1166.92846069,0.03373303
1168.85726807,0.03483357
1170.78607544,0.03606667
1172.71488281,0.03762522
1174.64369019,0.03903077
1176.57249756,0.04023166
1178.50130493,0.04170951
1180.43011230,0.04333374
1182.35891968,0.04554374
1184.28772705,0.04749784
1186.21653442,0.04923720
1188.14534180,0.05165452
1190.07414917,0.05406545
1192.00295654,0.05650969
1193.93176392,0.05902535
1195.86057129,0.06175563
1197.78937866,0.06471774
1199.71818604,0.06763251
1201.64699341,0.07040768
1203.57580078,0.07331058
1205.50460815,0.07634708
1207.43341553,0.07891968
1209.36222290,0.08167777
1211.29103027,0.08439883
1213.21983765,0.08668670
1215.14864502,0.08879834
1217.07745239,0.09064169
1219.00625977,0.09241612
1220.93506714,0.09368038
1222.86387451,0.09475428
1224.79268188,0.09565895
1226.72148926,0.09641361
1228.65029663,0.09728114
1230.57910400,0.09744413
1232.50791138,0.09748627
1234.43671875,0.09762369
1236.36552612,0.09766598
1238.29433350,0.09762545
1240.22314087,0.09714939
1242.15194824,0.09680997
1244.08075562,0.09635197
1246.00956299,0.09591925
1247.93837036,0.09552409
1249.86717773,0.09464642
1251.79598511,0.09395471
1253.72479248,0.09299053
1255.65359985,0.09179091
1257.58240723,0.09065986
1259.51121460,0.08915105
1261.44002197,0.08786180
1263.36882935,0.08671200
1265.29763672,0.08548111
1267.22644409,0.08449718
1269.15525146,0.08339927
1271.08405884,0.08184710
1273.01286621,0.08054003
1274.94167358,0.07938510
1276.87048096,0.07768883
1278.79928833,0.07610935
1280.72809570,0.07459119
1282.65690308,0.07304133
1284.58571045,0.07167573
1286.51451782,0.07025828
1288.44332520,0.06905078
1290.37213257,0.06812728
1292.30093994,0.06750822
1294.22974731,0.06695512
1296.15855469,0.06646574
1298.08736206,0.06635053
1300.01616943,0.06666060
1301.94497681,0.06705782
1303.87378418,0.06747392
1305.80259155,0.06816941
1307.73139893,0.06885374
1309.66020630,0.07011673
1311.58901367,0.07130262
1313.51782104,0.07226436
1315.44662842,0.07424515
1317.37543579,0.07593198
1319.30424316,0.07783338
1321.23305054,0.08055389
1323.16185791,0.08271478
1325.09066528,0.08511721
1327.01947266,0.08780590
1328.94828003,0.08993126
1330.87708740,0.09220639
1332.80589478,0.09431301
1334.73470215,0.09594715
1336.66350952,0.09708004
1338.59231689,0.09611185
1340.52112427,0.09728741
1342.44993164,0.10161244
1344.37873901,0.10228696
1346.30754639,0.10191205
1348.23635376,0.10178425
1350.16516113,0.10107002
1352.09396851,0.10128351
1354.02277588,0.09960990
1355.95158325,0.09886701
1357.88039062,0.09853365
1359.80919800,0.09656945
1361.73800537,0.09242782
1363.66681274,0.09077905
1365.59562012,0.09568017
1367.52442749,0.09368692
1369.45323486,0.09214647
1371.38204224,0.09395903
1373.31084961,0.08856743
1375.23965698,0.08920851
1377.16846436,0.09185331
1379.09727173,0.09119402
1381.02607910,0.09135760
1382.95488647,0.09139071
1384.88369385,0.09139419
1386.81250122,0.08682436
1388.74130859,0.08798205
1390.67011597,0.09561646
1392.59892334,0.09310809
1394.52773071,0.08687317
1396.45653809,0.09136305
1398.38534546,0.09129216
1400.31415283,0.09047392
1402.24296021,0.09825256
1404.17176758,0.09268375
1406.10057495,0.09303623
1408.02938232,0.09712666
1409.95818970,0.09324303
1411.88699707,0.09548493
1413.81580444,0.09190112
1415.74461182,0.09334208
1417.67341919,0.08426499
1419.60222656,0.07475462
1421.53103394,0.08702242
1423.45984131,0.08431326
1425.38864868,0.08138016
1427.31745605,0.08295480
1429.24626343,0.07634118
1431.17507080,0.07403504
1433.10387817,0.07542337
1435.03268555,0.06866653
1436.96149292,0.05745823
1438.89030029,0.06577121
1440.81910767,0.06778127
1442.74791504,0.06244662
1444.67672241,0.06574830
1446.60552979,0.06000945
1448.53433716,0.06098981
1450.46314453,0.06306341
1452.39195190,0.06418832
1454.32075928,0.06665844
1456.24956665,0.05429697
1458.17837402,0.05686293
1460.10718140,0.07639909
1462.03598877,0.08150261
1463.96479614,0.08083816
1465.89360352,0.08401275
1467.82241089,0.09615543
1469.75121826,0.10355041
1471.68002563,0.09161806
1473.60883301,0.09633615
1475.53764038,0.11055721
1477.46644775,0.11926683
1479.39525513,0.13145614
1481.32406250,0.13334209
1483.25286987,0.14167927
1485.18167725,0.14649716
1487.11048462,0.14397569
1489.03929199,0.14289364
1490.96809937,0.14357951
1492.89690674,0.16828778
1494.82571411,0.16448645
1496.75452148,0.14681235
1498.68332886,0.16676518
1500.61213623,0.17255574
1502.54094360,0.18554492
1504.46975098,0.17521045
1506.39855835,0.12548238
1508.32736572,0.15404388
1510.25617310,0.18273601
1512.18498047,0.17658567
1514.11378784,0.19204432
1516.04259521,0.17261200
1517.97140259,0.17980453
1519.90020996,0.17414570
1521.82901733,0.14939925
1523.75782471,0.18426472
1525.68663208,0.18133795
1527.61543945,0.18012837
1529.54424683,0.20054865
1531.47305420,0.19268209
1533.40186157,0.17570421
1535.33066895,0.18649158
1537.25947632,0.20079330
1539.18828369,0.14169817
1541.11709106,0.14757515
1543.04589844,0.17906407
1544.97470581,0.17090976
1546.90351318,0.20422620
1548.83232056,0.19026545
1550.76112793,0.19579238
1552.68993530,0.19538744
1554.61874268,0.17613393
1556.54755005,0.18949407
1558.47635742,0.13163972
1560.40516479,0.14170495
1562.33397217,0.20570180
1564.26277954,0.19377631
1566.19158691,0.19947597
1568.12039429,0.19769683
1570.04920166,0.17375927
1571.97800903,0.20208609
1573.90681641,0.20512138
1575.83562378,0.16079980
1577.76443115,0.18239355
1579.69323853,0.20705590
1581.62204590,0.19800109
1583.55085327,0.20338432
1585.47966064,0.20008409
1587.40846802,0.20175470
1589.33727539,0.20003302
1591.26608276,0.19992156
1593.19489014,0.20017454
1595.12369751,0.19772115
1597.05250488,0.20054531
1598.98131226,0.19911370
1600.91011963,0.20053867
1602.83892700,0.19643182
1604.76773437,0.20000029
1606.69654175,0.19721487
1608.62534912,0.19659773
1610.55415649,0.19644682
1612.48296387,0.19749834
1614.41177124,0.20072094
1616.34057861,0.16251917
1618.26938599,0.17661774
1620.19819336,0.20739794
1622.12700073,0.18269768
1624.05580811,0.18338811
1625.98461548,0.19301862
1627.91342285,0.19211382
1629.84223022,0.19067600
1631.77103760,0.20429990
1633.69984497,0.18808691
1635.62865234,0.15329541
1637.55745972,0.17966145
1639.48626709,0.19880973
1641.41507446,0.19387037
1643.34388184,0.19927751
1645.27268921,0.17879516
1647.20149658,0.15561175
1649.13030396,0.19550483
1651.05911133,0.18583477
1652.98791870,0.11624314
1654.91672607,0.16016786
1656.84553345,0.20392081
1658.77434082,0.19465657
1660.70314819,0.20024171
1662.63195557,0.18112642
1664.56076294,0.19139245
1666.48957031,0.20648949
1668.41837769,0.17897066
1670.34718506,0.17311382
1672.27599243,0.19792703
1674.20479980,0.18237811
1676.13360718,0.17385504
1678.06241455,0.20185874
1679.99122192,0.19412187
1681.92002930,0.19151664
1683.84883667,0.15460497
1685.77764404,0.15236987
1687.70645142,0.21215686
1689.63525879,0.18325357
1691.56406616,0.20182706
1693.49287354,0.20637432
1695.42168091,0.14813574
1697.35048828,0.18452099
1699.27929565,0.16176233
1701.20810303,0.14413460
1703.13691040,0.19966878
1705.06571777,0.18250306
1706.99452515,0.18361898
1708.92333252,0.20079568
1710.85213989,0.19246450
1712.78094727,0.19593823
1714.70975464,0.18116942
1716.63856201,0.16169366
1718.56736938,0.15869960
1720.49617676,0.18967974
1722.42498413,0.19787467
1724.35379150,0.18258169
1726.28259888,0.19961050
1728.21140625,0.18386650
1730.14021362,0.18470114
1732.06902100,0.18062118
1733.99782837,0.13544306
1735.92663574,0.16988865
1737.85544312,0.18932629
1739.78425049,0.16718948
1741.71305786,0.18276703
1743.64186523,0.18543480
1745.57067261,0.18563387
1747.49947998,0.18728989
1749.42828735,0.17858946
1751.35709473,0.17035344
1753.28590210,0.18983558
1755.21470947,0.19936243
1757.14351685,0.18075433
1759.07232422,0.19955799
1761.00113159,0.18707934
1762.92993896,0.17968726
1764.85874634,0.20733342
1766.78755371,0.18595853
1768.71636108,0.18743858
1770.64516846,0.18624082
1772.57397583,0.16627228
1774.50278320,0.18650509
1776.43159058,0.19772646
1778.36039795,0.19488329
1780.28920532,0.19208947
1782.21801270,0.19376755
1784.14682007,0.19347963
1786.07562744,0.18915191
1788.00443481,0.19985861
1789.93324219,0.19458592
1791.86204956,0.17475390
1793.79085693,0.18267033
1795.71966431,0.19681518
1797.64847168,0.19408698
1799.57727905,0.19091770
1801.50608643,0.18737799
1803.43489380,0.19362764
1805.36370117,0.19839677
1807.29250854,0.19550636
1809.22131592,0.19604895
1811.15012329,0.19065450
1813.07893066,0.19686063
1815.00773804,0.19791135
1816.93654541,0.19531272
1818.86535278,0.19723701
1820.79416016,0.19622555
1822.72296753,0.19908597
1824.65177490,0.18555076
1826.58058228,0.19237265
1828.50938965,0.19301713
1830.43819702,0.18014172
1832.36700439,0.19708407
1834.29581177,0.19584635
1836.22461914,0.19515933
1838.15342651,0.19469422
1840.08223389,0.19568649
1842.01104126,0.19607927
1843.93984863,0.17298931
1845.86865601,0.18485507
1847.79746338,0.19569315
1849.72627075,0.19118154
1851.65507812,0.19710955
1853.58388550,0.19292030
1855.51269287,0.19509931
1857.44150024,0.19381995
1859.37030762,0.19268136
1861.29911499,0.19387639
1863.22792236,0.19149986
1865.15672974,0.19387132
1867.08553711,0.18674514
1869.01434448,0.17876083
1870.94315186,0.18599322
1872.87195923,0.19348601
1874.80076660,0.19047204
1876.72957397,0.19138834
1878.65838135,0.19070344
1880.58718872,0.18950288
1882.51599609,0.19138443
1884.44480347,0.18794438
1886.37361084,0.19104454
1888.30241821,0.18633729
1890.23122559,0.18231137
1892.16003296,0.18996093
1894.08884033,0.18682867
1896.01764771,0.18609053
1897.94645508,0.18826705
1899.87526245,0.18719801
1901.80406982,0.18777378
1903.73287720,0.18641245
1905.66168457,0.18728989
1907.59049194,0.18529803
1909.51929932,0.18402433
1911.44810669,0.18503441
1913.37691406,0.18547043
1915.30572144,0.18722409
1917.23452881,0.17857903
1919.16333618,0.17879204
1921.09214355,0.18588845
1923.02095093,0.17978582
1924.94975830,0.18342701
1926.87856567,0.18547830
1928.80737305,0.18293336
1930.73618042,0.18532377
1932.66498779,0.18270175
1934.59379517,0.18440273
1936.52260254,0.18308371
1938.45140991,0.18353969
1940.38021729,0.18363956
1942.30902466,0.17727712
1944.23783203,0.18073301
1946.16663940,0.18273818
1948.09544678,0.18223679
1950.02425415,0.18305302
1951.95306152,0.18228158
1953.88186890,0.18256834
1955.81067627,0.18180375
1957.73948364,0.18234816
1959.66829102,0.18194503
1961.59709839,0.18154988
1963.52590576,0.18204752
1965.45471313,0.18081333
1967.38352051,0.17884703
1969.31232788,0.18028554
1971.24113525,0.18181431
1973.16994263,0.18042427
1975.09875000,0.18112031
1977.02755737,0.18026099
1978.95636475,0.18038923
1980.88517212,0.18028797
1982.81397949,0.17935289
1984.74278687,0.18022907
1986.67159424,0.17837928
1988.60040161,0.17871255
1990.52920898,0.17724545
1992.45801636,0.17520103
1994.38682373,0.17773539
1996.31563110,0.17802423
1998.24443848,0.17717676
2000.17324585,0.17698509
2002.10205322,0.17678091
2004.03086060,0.17647415
2005.95966797,0.17610148
2007.88847534,0.17565764
2009.81728271,0.17529640
2011.74609009,0.17485632
2013.67489746,0.17479420
2015.60370483,0.17391500
2017.53251221,0.17222348
2019.46131958,0.17332390
2021.39012695,0.17332053
2023.31893433,0.17254119
2025.24774170,0.17252190
2027.17654907,0.17185758
2029.10535645,0.17179599
2031.03416382,0.17124768
2032.96297119,0.17116600
2034.89177856,0.17047107
2036.82058594,0.17008638
2038.74939331,0.16992217
2040.67820068,0.16893017
2042.60700806,0.16887051
2044.53581543,0.16859600
2046.46462280,0.16845912
2048.39343018,0.16798609
2050.32223755,0.16771464
2052.25104492,0.16738325
2054.17985229,0.16690892
2056.10865967,0.16687816
2058.03746704,0.16617624
2059.96627441,0.16604766
2061.89508179,0.16584334
2063.82388916,0.16497317
2065.75269653,0.16424012
2067.68150391,0.16455287
2069.61031128,0.16452244
2071.53911865,0.16397202
2073.46792603,0.16391554
2075.39673340,0.16336980
2077.32554077,0.16322234
2079.25434814,0.16269636
2081.18315552,0.16244346
2083.11196289,0.16219118
2085.04077026,0.16174769
2086.96957764,0.16166022
2088.89838501,0.16085425
2090.82719238,0.16079280
2092.75599976,0.16059780
2094.68480713,0.16044879
2096.61361450,0.16029891
2098.54242187,0.15993786
2100.47122925,0.15963547
2102.40003662,0.15895638
2104.32884399,0.15906531
2106.25765137,0.15873612
2108.18645874,0.15847583
2110.11526611,0.15816070
2112.04407349,0.15780151
2113.97288086,0.15772413
2115.90168823,0.15720704
2117.83049561,0.15722805
2119.75930298,0.15693915
2121.68811035,0.15670666
2123.61691772,0.15646991
2125.54572510,0.15629244
2127.47453247,0.15611169
2129.40333984,0.15558304
2131.33214722,0.15549263
2133.26095459,0.15518342
2135.18976196,0.15500057
2137.11856934,0.15477461
2139.04737671,0.15460762
2140.97618408,0.15436074
2142.90499146,0.15412162
2144.83379883,0.15400824
2146.76260620,0.15375993
2148.69141357,0.15376684
2150.62022095,0.15339342
2152.54902832,0.15336117
2154.47783569,0.15309769
2156.40664307,0.15280084
2158.33545044,0.15271154
2160.26425781,0.15234488
2162.19306519,0.15226898
2164.12187256,0.15198788
2166.05067993,0.15199485
2167.97948730,0.15162948
2169.90829468,0.15142295
2171.83710205,0.15130430
2173.76590942,0.15108308
2175.69471680,0.15114471
2177.62352417,0.15057676
2179.55233154,0.15056387
2181.48113892,0.15037884
2183.40994629,0.15022171
2185.33875366,0.15004979
2187.26756104,0.14961877
2189.19636841,0.14960948
2191.12517578,0.14925371
2193.05398315,0.14920278
2194.98279053,0.14897856
2196.91159790,0.14883490
2198.84040527,0.14866002
2200.76921265,0.14847192
2202.69802002,0.14830792
2204.62682739,0.14790782
2206.55563477,0.14798194
2208.48444214,0.14761145
2210.41324951,0.14759152
2212.34205688,0.14741541
2214.27086426,0.14708622
2216.19967163,0.14698952
2218.12847900,0.14656082
2220.05728638,0.14663188
2221.98609375,0.14642103
2223.91490112,0.14609697
2225.84370850,0.14570457
2227.77251587,0.14570603
2229.70132324,0.14556605
2231.63013062,0.14511286
2233.55893799,0.14515445
2235.48774536,0.14463252
2237.41655273,0.14456141
2239.34536011,0.14439286
2241.27416748,0.14396396
2243.20297485,0.14385320
2245.13178223,0.14353415
2247.06058960,0.14335486
2248.98939697,0.14311665
2250.91820435,0.14294313
2252.84701172,0.14268269
2254.77581909,0.14255662
2256.70462646,0.14229304
2258.63343384,0.14206913
2260.56224121,0.14181462
2262.49104858,0.14141649
2264.41985596,0.14138541
2266.34866333,0.14113598
2268.27747070,0.14110488
2270.20627808,0.14082742
2272.13508545,0.14056590
2274.06389282,0.14043683
2275.99270020,0.14019702
2277.92150757,0.14019415
2279.85031494,0.13992494
2281.77912231,0.13993900
2283.70792969,0.13967940
2285.63673706,0.13939802
2287.56554443,0.13918039
2289.49435181,0.13869238
2291.42315918,0.13834943
2293.35196655,0.13792190
2295.28077393,0.13756962
2297.20958130,0.13703489
2299.13838867,0.13667324
2301.06719604,0.13613860
2302.99600342,0.13542581
2304.92481079,0.13463163
2306.85361816,0.13371626
2308.78242554,0.13283017
2310.71123291,0.13157168
2312.64004028,0.13031019
2314.56884766,0.12881917
2316.49765503,0.12756622
2318.42646240,0.12571388
2320.35526978,0.12369609
2322.28407715,0.12213980
2324.21288452,0.12025842
2326.14169189,0.11898412
2328.07049927,0.11743891
2329.99930664,0.11602956
2331.92811401,0.11500484
2333.85692139,0.11445551
2335.78572876,0.11395050
2337.71453613,0.11358777
2339.64334351,0.11389518
2341.57215088,0.11392172
2343.50095825,0.11580015
2345.42976562,0.11817690
2347.35857300,0.12320194
2349.28738037,0.12750611
2351.21618774,0.12276275
2353.14499512,0.11649375
2355.07380249,0.11199471
2357.00260986,0.10814294
2358.93141724,0.10601040
2360.86022461,0.10465787
2362.78903198,0.10467027
2364.71783936,0.10517699
2366.64664673,0.10671286
2368.57545410,0.10894676
2370.50426147,0.11182229
2372.43306885,0.11519179
2374.36187622,0.11841885
2376.29068359,0.12171510
2378.21949097,0.12448834
2380.14829834,0.12689343
2382.07710571,0.12829819
2384.00591309,0.12924492
2385.93472046,0.12960057
2387.86352783,0.12968875
2389.79233521,0.12985545
2391.72114258,0.12944418
2393.64994995,0.12942578
2395.57875732,0.12918736
2397.50756470,0.12904930
2399.43637207,0.12893480
2401.36517944,0.12859902
2403.29398682,0.12858129
2405.22279419,0.12837279
2407.15160156,0.12813297
2409.08040894,0.12789841
2411.00921631,0.12779528
2412.93802368,0.12750036
2414.86683105,0.12735960
2416.79563843,0.12730342
2418.72444580,0.12702653
2420.65325317,0.12695327
2422.58206055,0.12670040
2424.51086792,0.12646979
2426.43967529,0.12639961
2428.36848267,0.12629412
2430.29729004,0.12601990
2432.22609741,0.12597382
2434.15490479,0.12576932
2436.08371216,0.12540540
2438.01251953,0.12531298
2439.94132690,0.12498850
2441.87013428,0.12496063
2443.79894165,0.12488891
2445.72774902,0.12468235
2447.65655640,0.12445040
2449.58536377,0.12424377
2451.51417114,0.12416378
2453.44297852,0.12388939
2455.37178589,0.12379028
2457.30059326,0.12355267
2459.22940063,0.12340496
2461.15820801,0.12311183
2463.08701538,0.12301365
2465.01582275,0.12311542
2466.94463013,0.12270007
2468.87343750,0.12252170
2470.80224487,0.12226123
2472.73105225,0.12219311
2474.65985962,0.12214955
2476.58866699,0.12190442
2478.51747437,0.12174635
2480.44628174,0.12151919
2482.37508911,0.12138808
2484.30389648,0.12116407
2486.23270386,0.12107496
2488.16151123,0.12078200
2490.09031860,0.12064874
2492.01912598,0.12050973
2493.94793335,0.12025694
2495.87674072,0.12024418
2497.80554810,0.12002362
2499.73435547,0.12005119
2501.66316284,0.11978251
2503.59197021,0.11951222
2505.52077759,0.11936612
2507.44958496,0.11925031
2509.37839233,0.11923984
2511.30719971,0.11889237
2513.23600708,0.11880438
2515.16481445,0.11850113
2517.09362183,0.11831148
2519.02242920,0.11825565
2520.95123657,0.11816707
2522.88004395,0.11800198
2524.80885132,0.11765134
2526.73765869,0.11773394
2528.66646606,0.11750169
2530.59527344,0.11738089
2532.52408081,0.11723685
2534.45288818,0.11700848
2536.38169556,0.11692606
2538.31050293,0.11659907
2540.23931030,0.11650268
2542.16811768,0.11630556
2544.09692505,0.11625545
2546.02573242,0.11607817
2547.95453979,0.11584945
2549.88334717,0.11568409
2551.81215454,0.11556676
2553.74096191,0.11560503
2555.66976929,0.11519091
2557.59857666,0.11506188
2559.52738403,0.11495459
2561.45619141,0.11484399
2563.38499878,0.11454609
2565.31380615,0.11419600
2567.24261353,0.11427963
2569.17142090,0.11400099
2571.10022827,0.11396742
2573.02903564,0.11383329
2574.95784302,0.11361683
2576.88665039,0.11346199
2578.81545776,0.11323555
2580.74426514,0.11316426
2582.67307251,0.11288626
2584.60187988,0.11281483
2586.53068726,0.11257353
2588.45949463,0.11249334
2590.38830200,0.11240271
2592.31710937,0.11219803
2594.24591675,0.11218725
2596.17472412,0.11181220
2598.10353149,0.11174098
2600.03233887,0.11155666
2601.96114624,0.11133905
2603.88995361,0.11128093
2605.81876099,0.11102259
2607.74756836,0.11091772
2609.67637573,0.11066283
2611.60518311,0.11047377
2613.53399048,0.11037762
2615.46279785,0.11024113
2617.39160522,0.11014347
2619.32041260,0.10999382
2621.24921997,0.10980920
2623.17802734,0.10967060
2625.10683472,0.10942642
2627.03564209,0.10925491
2628.96444946,0.10922119
2630.89325684,0.10888510
2632.82206421,0.10884878
2634.75087158,0.10875538
2636.67967895,0.10841225
2638.60848633,0.10833816
2640.53729370,0.10820667
2642.46610107,0.10806590
2644.39490845,0.10784358
2646.32371582,0.10779390
2648.25252319,0.10756463
2650.18133057,0.10723918
2652.11013794,0.10734458
2654.03894531,0.10708924
2655.96775269,0.10677055
2657.89656006,0.10679977
2659.82536743,0.10658596
2661.75417480,0.10635723
2663.68298218,0.10636479
2665.61178955,0.10609902
2667.54059692,0.10589151
2669.46940430,0.10583804
2671.39821167,0.10565422
2673.32701904,0.10551929
2675.25582642,0.10531723
2677.18463379,0.10517408
2679.11344116,0.10495283
2681.04224854,0.10486379
2682.97105591,0.10480945
2684.89986328,0.10456851
2686.82867065,0.10441068
2688.75747803,0.10415928
2690.68628540,0.10409015
2692.61509277,0.10398875
2694.54390015,0.10377926
2696.47270752,0.10361730
2698.40151489,0.10346257
2700.33032227,0.10332060
2702.25912964,0.10311449
2704.18793701,0.10307041
2706.11674438,0.10286660
2708.04555176,0.10264538
2709.97435913,0.10247578
2711.90316650,0.10229515
2713.83197388,0.10223445
2715.76078125,0.10204500
2717.68958862,0.10182720
2719.61839600,0.10163688
2721.54720337,0.10148525
2723.47601074,0.10131249
2725.40481812,0.10125931
2727.33362549,0.10109209
2729.26243286,0.10090087
2731.19124023,0.10082035
2733.12004761,0.10058829
2735.04885498,0.10041142
2736.97766235,0.10015221
2738.90646973,0.10017719
2740.83527710,0.09999356
2742.76408447,0.09961854
2744.69289185,0.09955308
2746.62169922,0.09932396
2748.55050659,0.09921894
2750.47931396,0.09896556
2752.40812134,0.09890649
2754.33692871,0.09890118
2756.26573608,0.09870437
2758.19454346,0.09860732
2760.12335083,0.09822290
2762.05215820,0.09805374
2763.98096558,0.09799826
2765.90977295,0.09788738
2767.83858032,0.09760392
2769.76738770,0.09735699
2771.69619507,0.09725803
2773.62500244,0.09707528
2775.55380981,0.09700190
2777.48261719,0.09666409
2779.41142456,0.09660767
2781.34023193,0.09652836
2783.26903931,0.09620956
2785.19784668,0.09611298
2787.12665405,0.09596539
2789.05546143,0.09583217
2790.98426880,0.09554314
2792.91307617,0.09542308
2794.84188354,0.09523876
2796.77069092,0.09504570
2798.69949829,0.09497221
2800.62830566,0.09462246
2802.55711304,0.09436615
2804.48592041,0.09424162
2806.41472778,0.09417704
2808.34353516,0.09392692
2810.27234253,0.09371865
2812.20114990,0.09352069
2814.12995728,0.09340382
2816.05876465,0.09329043
2817.98757202,0.09288158
2819.91637939,0.09286970
2821.84518677,0.09275864
2823.77399414,0.09254266
2825.70280151,0.09235327
2827.63160889,0.09210195
2829.56041626,0.09204002
2831.48922363,0.09179290
2833.41803101,0.09155596
2835.34683838,0.09130212
2837.27564575,0.09109548
2839.20445312,0.09079325
2841.13326050,0.09058684
2843.06206787,0.09043384
2844.99087524,0.08986004
2846.91968262,0.08937242
2848.84848999,0.08891743
2850.77729736,0.08863528
2852.70610474,0.08850194
2854.63491211,0.08847862
2856.56371948,0.08843860
2858.49252686,0.08816564
2860.42133423,0.08810884
2862.35014160,0.08802578
2864.27894897,0.08786920
2866.20775635,0.08768380
2868.13656372,0.08758673
2870.06537109,0.08750071
2871.99417847,0.08727335
2873.92298584,0.08711912
2875.85179321,0.08701070
2877.78060059,0.08687197
2879.70940796,0.08659732
2881.63821533,0.08655695
2883.56702270,0.08640261
2885.49583008,0.08623086
2887.42463745,0.08626512
2889.35344482,0.08596441
2891.28225220,0.08571957
2893.21105957,0.08553278
2895.13986694,0.08540335
2897.06867432,0.08518307
2898.99748169,0.08485186
2900.92628906,0.08471420
2902.85509644,0.08459672
2904.78390381,0.08434114
2906.71271118,0.08398856
2908.64151855,0.08385149
2910.57032593,0.08339886
2912.49913330,0.08294912
2914.42794067,0.08271408
2916.35674805,0.08215337
2918.28555542,0.08195074
2920.21436279,0.08192334
2922.14317017,0.08171894
2924.07197754,0.08153269
2926.00078491,0.08136436
2927.92959229,0.08132733
2929.85839966,0.08129984
2931.78720703,0.08117494
2933.71601440,0.08123031
2935.64482178,0.08124880
2937.57362915,0.08110432
2939.50243652,0.08123963
2941.43124390,0.08114435
2943.36005127,0.08099708
2945.28885864,0.08097039
2947.21766602,0.08076037
2949.14647339,0.08073413
2951.07528076,0.08058597
2953.00408813,0.08034213
2954.93289551,0.08015300
2956.86170288,0.07992838
2958.79051025,0.07968198
2960.71931763,0.07946238
2962.64812500,0.07919739
2964.57693237,0.07906133
2966.50573975,0.07910027
2968.43454712,0.07889912
2970.36335449,0.07906295
2972.29216187,0.07914422
2974.22096924,0.07910301
2976.14977661,0.07929881
2978.07858398,0.07907125
2980.00739136,0.07909336
2981.93619873,0.07908742
2983.86500610,0.07891658
2985.79381348,0.07889414
2987.72262085,0.07868303
2989.65142822,0.07858026
2991.58023560,0.07856030
2993.50904297,0.07844469
2995.43785034,0.07821902
2997.36665771,0.07819182
2999.29546509,0.07817353
3001.22427246,0.07799847
3003.15307983,0.07783842
3005.08188721,0.07766219
3007.01069458,0.07757016
3008.93950195,0.07740995
3010.86830933,0.07715480
3012.79711670,0.07685602
3014.72592407,0.07670915
3016.65473145,0.07656080
3018.58353882,0.07653556
3020.51234619,0.07648002
3022.44115356,0.07615678
3024.36996094,0.07609380
3026.29876831,0.07595612
3028.22757568,0.07586618
3030.15638306,0.07556158
3032.08519043,0.07523523
3034.01399780,0.07523551
3035.94280518,0.07501791
3037.87161255,0.07504135
3039.80041992,0.07480621
3041.72922729,0.07457441
3043.65803467,0.07455681
3045.58684204,0.07433493
3047.51564941,0.07425572
3049.44445679,0.07401244
3051.37326416,0.07384911
3053.30207153,0.07365951
3055.23087891,0.07342439
3057.15968628,0.07325391
3059.08849365,0.07322274
3061.01730103,0.07330182
3062.94610840,0.07305214
3064.87491577,0.07279226
3066.80372314,0.07253197
3068.73253052,0.07257809
3070.66133789,0.07253528
3072.59014526,0.07231067
3074.51895264,0.07237777
3076.44776001,0.07206817
3078.37656738,0.07171458
3080.30537476,0.07150988
3082.23418213,0.07148267
3084.16298950,0.07154226
3086.09179687,0.07134125
3088.02060425,0.07117639
3089.94941162,0.07100575
3091.87821899,0.07083777
3093.80702637,0.07065395
3095.73583374,0.07049094
3097.66464111,0.07040723
3099.59344849,0.07026561
3101.52225586,0.06996024
3103.45106323,0.06980810
3105.37987061,0.06978889
3107.30867798,0.06946635
3109.23748535,0.06942308
3111.16629272,0.06946702
3113.09510010,0.06907520
3115.02390747,0.06882672
3116.95271484,0.06869104
3118.88152222,0.06842510
3120.81032959,0.06829763
3122.73913696,0.06815566
3124.66794434,0.06804062
3126.59675171,0.06798510
3128.52555908,0.06776391
3130.45436645,0.06769456
3132.38317383,0.06738608
3134.31198120,0.06708292
3136.24078857,0.06711858
3138.16959595,0.06692294
3140.09840332,0.06669447
3142.02721069,0.06644900
3143.95601807,0.06632964
3145.88482544,0.06615794
3147.81363281,0.06602710
3149.74244019,0.06592254
3151.67124756,0.06553982
3153.60005493,0.06543574
3155.52886230,0.06529200
3157.45766968,0.06515032
3159.38647705,0.06501316
3161.31528442,0.06477641
3163.24409180,0.06452818
3165.17289917,0.06432491
3167.10170654,0.06429943
3169.03051392,0.06402166
3170.95932129,0.06395831
3172.88812866,0.06370775
3174.81693604,0.06343399
3176.74574341,0.06338740
3178.67455078,0.06306735
3180.60335815,0.06312263
3182.53216553,0.06293041
3184.46097290,0.06262653
3186.38978027,0.06252191
3188.31858765,0.06238963
3190.24739502,0.06221894
3192.17620239,0.06200746
3194.10500977,0.06196585
3196.03381714,0.06164866
3197.96262451,0.06161279
3199.89143188,0.06146624
3201.82023926,0.06124276
3203.74904663,0.06122987
3205.67785400,0.06097022
3207.60666138,0.06098026
3209.53546875,0.06074675
3211.46427612,0.06062976
3213.39308350,0.06043919
3215.32189087,0.06019603
3217.25069824,0.06029833
3219.17950562,0.05998891
3221.10831299,0.05990670
3223.03712036,0.05988916
3224.96592773,0.05981185
3226.89473511,0.05967110
3228.82354248,0.05945401
3230.75234985,0.05939257
3232.68115723,0.05921468
3234.60996460,0.05920535
3236.53877197,0.05912451
3238.46757935,0.05900136
3240.39638672,0.05890752
3242.32519409,0.05887128
3244.25400146,0.05864697
3246.18280884,0.05845421
3248.11161621,0.05860845
3250.04042358,0.05844383
3251.96923096,0.05843060
3253.89803833,0.05830096
3255.82684570,0.05815677
3257.75565308,0.05818992
3259.68446045,0.05802649
3261.61326782,0.05806897
3263.54207520,0.05790284
3265.47088257,0.05781813
3267.39968994,0.05780299
3269.32849731,0.05766297
3271.25730469,0.05757974
3273.18611206,0.05745833
3275.11491943,0.05743381
3277.04372681,0.05732965
3278.97253418,0.05727359
3280.90134155,0.05718993
3282.83014893,0.05712104
3284.75895630,0.05710480
3286.68776367,0.05712416
3288.61657104,0.05702578
3290.54537842,0.05675862
3292.47418579,0.05666162
3294.40299316,0.05658532
3296.33180054,0.05664171
3298.26060791,0.05656526
3300.18941528,0.05646046
3302.11822266,0.05631952
3304.04703003,0.05615725
3305.97583740,0.05620242
3307.90464478,0.05590697
3309.83345215,0.05586479
3311.76225952,0.05598473
3313.69106689,0.05588550
3315.61987427,0.05578120
3317.54868164,0.05568019
3319.47748901,0.05564954
3321.40629639,0.05559388
3323.33510376,0.05562147
3325.26391113,0.05540935
3327.19271851,0.05524236
3329.12152588,0.05520462
3331.05033325,0.05513857
3332.97914062,0.05506981
3334.90794800,0.05492044
3336.83675537,0.05484094
3338.76556274,0.05465111
3340.69437012,0.05460989
3342.62317749,0.05453437
3344.55198486,0.05451546
3346.48079224,0.05443601
3348.40959961,0.05424172
3350.33840698,0.05415384
3352.26721436,0.05402542
3354.19602173,0.05414414
3356.12482910,0.05395900
3358.05363647,0.05393572
3359.98244385,0.05376474
3361.91125122,0.05351275
3363.84005859,0.05358800
3365.76886597,0.05325755
3367.69767334,0.05331449
3369.62648071,0.05311680
3371.55528809,0.05308725
3373.48409546,0.05317026
3375.41290283,0.05290111
3377.34171020,0.05291586
3379.27051758,0.05270144
3381.19932495,0.05273902
3383.12813232,0.05246518
3385.05693970,0.05235495
3386.98574707,0.05233682
3388.91455444,0.05222977
3390.84336182,0.05212888
3392.77216919,0.05159059
3394.70097656,0.05191641
3396.62978394,0.05173068
3398.55859131,0.05144778
3400.48739868,0.05148098
3402.41620605,0.05132915
3404.34501343,0.05148664
3406.27382080,0.05116814
3408.20262817,0.05123323
3410.13143555,0.05110019
3412.06024292,0.05107940
3413.98905029,0.05103545
3415.91785767,0.05073897
3417.84666504,0.05082100
3419.77547241,0.05029020
3421.70427979,0.05020644
3423.63308716,0.05033972
3425.56189453,0.05037547
3427.49070190,0.05021048
3429.41950928,0.05007686
3431.34831665,0.05004555
3433.27712402,0.04970134
3435.20593140,0.04983497
3437.13473877,0.04956773
3439.06354614,0.04972417
3440.99235352,0.04958866
3442.92116089,0.04923495
3444.84996826,0.04939798
3446.77877563,0.04859963
3448.70758301,0.04880346
3450.63639038,0.04928291
3452.56519775,0.04916319
3454.49400513,0.04915214
3456.42281250,0.04887647
3458.35161987,0.04889424
3460.28042725,0.04870052
3462.20923462,0.04846736
3464.13804199,0.04858338
3466.06684937,0.04854850
3467.99565674,0.04832975
3469.92446411,0.04843604
3471.85327148,0.04841278
3473.78207886,0.04820471
3475.71088623,0.04815164
3477.63969360,0.04820151
3479.56850098,0.04810452
3481.49730835,0.04750977
3483.42611572,0.04768962
3485.35492310,0.04790990
3487.28373047,0.04764255
3489.21253784,0.04762193
3491.14134521,0.04785164
3493.07015259,0.04800892
3494.99895996,0.04755373
3496.92776733,0.04751674
3498.85657471,0.04763171
3500.78538208,0.04763266
3502.71418945,0.04679206
3504.64299683,0.04669250
3506.57180420,0.04783848
3508.50061157,0.04705858
3510.42941895,0.04688350
3512.35822632,0.04739000
3514.28703369,0.04740462
3516.21584106,0.04745274
3518.14464844,0.04706382
3520.07345581,0.04730088
3522.00226318,0.04691032
3523.93107056,0.04640921
3525.85987793,0.04648841
3527.78868530,0.04635257
3529.71749268,0.04641959
3531.64630005,0.04697320
3533.57510742,0.04734572
3535.50391479,0.04677045
3537.43272217,0.04659083
3539.36152954,0.04701905
3541.29033691,0.04705245
3543.21914429,0.04657727
3545.14795166,0.04556171
3547.07675903,0.04485434
3549.00556641,0.04637217
3550.93437378,0.04675478
3552.86318115,0.04545809
3554.79198853,0.04653083
3556.72079590,0.04671016
3558.64960327,0.04652268
3560.57841064,0.04627589
3562.50721802,0.04584079
3564.43602539,0.04627445
3566.36483276,0.04307529
3568.29364014,0.04185337
3570.22244751,0.04542956
3572.15125488,0.04671201
3574.08006226,0.04616576
3576.00886963,0.04637160
3577.93767700,0.04615162
3579.86648437,0.04601555
3581.79529175,0.04603378
3583.72409912,0.04607619
3585.65290649,0.04518236
3587.58171387,0.04142838
3589.51052124,0.04256564
3591.43932861,0.04638112
3593.36813599,0.04504120
3595.29694336,0.04420782
3597.22575073,0.04505011
3599.15455811,0.04553989
3601.08336548,0.04501883
3603.01217285,0.04538173
3604.94098022,0.04631768
3606.86978760,0.04460036
3608.79859497,0.04189276
3610.72740234,0.04285664
3612.65620972,0.04378603
3614.58501709,0.04242895
3616.51382446,0.04554634
3618.44263184,0.04215556
3620.37143921,0.04066755
3622.30024658,0.04593178
3624.22905395,0.04467424
3626.15786133,0.04672195
3628.08666870,0.03946102
3630.01547607,0.03579082
3631.94428345,0.04525486
3633.87309082,0.04418770
3635.80189819,0.04496633
3637.73070557,0.04579744
3639.65951294,0.04509166
3641.58832031,0.04554985
3643.51712769,0.04490117
3645.44593506,0.04545666
3647.37474243,0.04069350
3649.30354980,0.03716819
3651.23235718,0.03757229
3653.16116455,0.04479475
3655.08997192,0.04429290
3657.01877930,0.03952110
3658.94758667,0.04571942
3660.87639404,0.04470158
3662.80520142,0.04537959
3664.73400879,0.04518894
3666.66281616,0.04453472
3668.59162354,0.04336803
3670.52043091,0.03519623
3672.44923828,0.04277200
3674.37804565,0.04072657
3676.30685303,0.03358621
3678.23566040,0.04250055
3680.16446777,0.04340034
3682.09327515,0.04347254
3684.02208252,0.04471493
3685.95088989,0.04404387
3687.87969727,0.03963494
3689.80850464,0.03619799
3691.73731201,0.04144187
3693.66611938,0.04268418
3695.59492676,0.04378256
3697.52373413,0.04369758
3699.45254150,0.04324583
3701.38134888,0.04222505
3703.31015625,0.04047979
3705.23896362,0.04454340
3707.16777100,0.04236388
3709.09657837,0.04129263
3711.02538574,0.03879178
3712.95419312,0.03632860
3714.88300049,0.04278196
3716.81180786,0.04212500
3718.74061523,0.04244556
3720.66942261,0.04156065
3722.59822998,0.04010164
3724.52703735,0.04164326
3726.45584473,0.03851147
3728.38465210,0.04173994
3730.31345947,0.04136360
3732.24226685,0.03792460
3734.17107422,0.03698283
3736.09988159,0.03503934
3738.02868896,0.03701427
3739.95749634,0.04031500
3741.88630371,0.04237240
3743.81511108,0.03270993
3745.74391846,0.03074454
3747.67272583,0.04012184
3749.60153320,0.03436315
3751.53034058,0.03155599
3753.45914795,0.03642403
3755.38795532,0.03930436
3757.31676270,0.04094095
3759.24557007,0.03778421
3761.17437744,0.03918000
3763.10318481,0.04170664
3765.03199219,0.03884907
3766.96079956,0.03959762
3768.88960693,0.03915397
3770.81841431,0.03734298
3772.74722168,0.04039907
3774.67602905,0.04060545
3776.60483643,0.04060732
3778.53364380,0.03941236
3780.46245117,0.03788976
3782.39125854,0.04045314
3784.32006592,0.03950062
3786.24887329,0.03923742
3788.17768066,0.04006093
3790.10648804,0.03979094
3792.03529541,0.03963308
3793.96410278,0.04022850
3795.89291016,0.03780957
3797.82171753,0.03738680
3799.75052490,0.03931952
3801.67933228,0.03104158
3803.60813965,0.03636239
3805.53694702,0.03958900
3807.46575439,0.03213195
3809.39456177,0.03913039
3811.32336914,0.03846928
3813.25217651,0.03973038
3815.18098389,0.03591733
3817.10979126,0.03132881
3819.03859863,0.03970774
3820.96740601,0.03196614
3822.89621338,0.03357722
3824.82502075,0.03939432
3826.75382812,0.03558139
3828.68263550,0.03842039
3830.61144287,0.03675578
3832.54025024,0.03553382
3834.46905762,0.03633347
3836.39786499,0.03457101
3838.32667236,0.03130143
3840.25547974,0.03374422
3842.18428711,0.03642040
3844.11309448,0.03467600
3846.04190186,0.03760476
3847.97070923,0.03702301
3849.89951660,0.03709412
3851.82832397,0.03335510
3853.75713135,0.02470193
3855.68593872,0.02948781
3857.61474609,0.03718711
3859.54355347,0.03615420
3861.47236084,0.03567158
3863.40116821,0.03494913
3865.32997559,0.03239172
3867.25878296,0.03622489
3869.18759033,0.03314473
3871.11639770,0.03042326
3873.04520508,0.03630055
3874.97401245,0.03325823
3876.90281982,0.03589335
3878.83162720,0.03679235
3880.76043457,0.03132508
3882.68924194,0.03617237
3884.61804932,0.03386617
3886.54685669,0.03093425
3888.47566406,0.03632309
3890.40447144,0.03427910
3892.33327881,0.03201024
3894.26208618,0.03527112
3896.19089355,0.03593878
3898.11970093,0.03410189
3900.04850830,0.03220152
3901.97731567,0.03182844
3903.90612305,0.03151723
3905.83493042,0.03198594
3907.76373779,0.03517145
3909.69254517,0.03519513
3911.62135254,0.03472793
3913.55015991,0.03533107
3915.47896728,0.03411830
3917.40777466,0.03320675
3919.33658203,0.03295942
3921.26538940,0.03423014
3923.19419678,0.03401650
3925.12300415,0.03333122
3927.05181152,0.03399186
3928.98061890,0.03428160
3930.90942627,0.03357101
3932.83823364,0.03241009
3934.76704102,0.03385137
3936.69584839,0.03407459
3938.62465576,0.03372130
3940.55346313,0.03415003
3942.48227051,0.03272492
3944.41107788,0.03296806
3946.33988525,0.03358177
3948.26869263,0.03279580
3950.19750000,0.03278989
3952.12630737,0.03337501
3954.05511475,0.03332473
3955.98392212,0.03321127
3957.91272949,0.03324296
3959.84153687,0.03304230
3961.77034424,0.03280617
3963.69915161,0.03278949
3965.62795898,0.03318204
3967.55676636,0.03288449
3969.48557373,0.03277679
3971.41438110,0.03271161
3973.34318848,0.03260085
3975.27199585,0.03258958
3977.20080322,0.03237800
3979.12961060,0.03270478
3981.05841797,0.03233537
3982.98722534,0.03231368
3984.91603271,0.03231252
3986.84484009,0.03223889
3988.77364746,0.03220312
3990.70245483,0.03177086
3992.63126221,0.03210740
3994.56006958,0.03180959
3996.48887695,0.03188102
3998.41768433,0.03183637
4000.34649170,0.03164335
4002.27529907,0.03184040
4004.20410645,0.03155135
4006.13291382,0.03169829
4008.06172119,0.03132498
4009.99052856,0.03135291
4011.91933594,0.03134602
4013.84814331,0.03117734
4015.77695068,0.03128333
4017.70575806,0.03103227
4019.63456543,0.03107984
4021.56337280,0.03084515
4023.49218018,0.03092730
4025.42098755,0.03081593
4027.34979492,0.03082328
4029.27860229,0.03081359
4031.20740967,0.03058458
4033.13621704,0.03069825
4035.06502441,0.03044518
4036.99383179,0.03059789
4038.92263916,0.03031145
4040.85144653,0.03029335
4042.78025391,0.03032039
4044.70906128,0.03001415
4046.63786865,0.03021748
4048.56667603,0.03008828
4050.49548340,0.03014695
4052.42429077,0.02988658
4054.35309814,0.02992516
4056.28190552,0.02991844
4058.21071289,0.02971209
4060.13952026,0.02980484
4062.06832764,0.02958549
4063.99713501,0.02969524
4065.92594238,0.02948202
4067.85474976,0.02947281
4069.78355713,0.02942647
4071.71236450,0.02927965
4073.64117187,0.02929444
4075.56997925,0.02908278
4077.49878662,0.02914994
4079.42759399,0.02897606
4081.35640137,0.02898458
4083.28520874,0.02893472
4085.21401611,0.02890920
4087.14282349,0.02880595
4089.07163086,0.02867841
4091.00043823,0.02873184
4092.92924561,0.02854115
4094.85805298,0.02861079
4096.78686035,0.02839406
4098.71566772,0.02851751
4100.64447510,0.02840730
4102.57328247,0.02820343
4104.50208984,0.02826984
4106.43089722,0.02797192
4108.35970459,0.02820191
4110.28851196,0.02799294
4112.21731934,0.02795929
4114.14612671,0.02800113
4116.07493408,0.02785794
4118.00374145,0.02783204
4119.93254883,0.02761211
4121.86135620,0.02783085
4123.79016357,0.02757759
4125.71897095,0.02748432
4127.64777832,0.02748365
4129.57658569,0.02740609
4131.50539307,0.02735704
4133.43420044,0.02717680
4135.36300781,0.02737206
4137.29181519,0.02715350
4139.22062256,0.02714341
4141.14942993,0.02704827
4143.07823730,0.02693553
4145.00704468,0.02701677
4146.93585205,0.02690363
4148.86465942,0.02687380
4150.79346680,0.02664328
4152.72227417,0.02668322
4154.65108154,0.02657746
4156.57988892,0.02658647
4158.50869629,0.02652762
4160.43750366,0.02637307
4162.36631103,0.02643286
4164.29511841,0.02625636
4166.22392578,0.02637483
4168.15273315,0.02623866
4170.08154053,0.02617718
4172.01034790,0.02608928
4173.93915527,0.02598027
4175.86796265,0.02606471
4177.79677002,0.02586422
4179.72557739,0.02589919
4181.65438477,0.02580797
4183.58319214,0.02580666
4185.51199951,0.02572461
4187.44080688,0.02565878
4189.36961426,0.02568521
4191.29842163,0.02553520
4193.22722900,0.02554903
4195.15603638,0.02540228
4197.08484375,0.02539589
4199.01365112,0.02527025
4200.94245850,0.02526106
4202.87126587,0.02525682
4204.80007324,0.02504703
4206.72888062,0.02507642
4208.65768799,0.02499152
4210.58649536,0.02498601
4212.51530273,0.02492723
4214.44411011,0.02486654
4216.37291748,0.02473920
4218.30172485,0.02478281
4220.23053223,0.02477729
4222.15933960,0.02453345
4224.08814697,0.02454446
4226.01695435,0.02443866
4227.94576172,0.02450315
4229.87456909,0.02432686
4231.80337646,0.02427314
4233.73218384,0.02435338
4235.66099121,0.02412485
4237.58979858,0.02420078
4239.51860596,0.02408766
4241.44741333,0.02401188
4243.37622070,0.02394218
4245.30502808,0.02393576
4247.23383545,0.02391978
4249.16264282,0.02379183
4251.09145020,0.02379950
4253.02025757,0.02364196
4254.94906494,0.02366652
4256.87787231,0.02358002
4258.80667969,0.02349824
4260.73548706,0.02349322
4262.66429443,0.02352700
4264.59310181,0.02349266
4266.52190918,0.02331143
4268.45071655,0.02337264
4270.37952393,0.02323838
4272.30833130,0.02322081
4274.23713867,0.02315710
4276.16594604,0.02311380
4278.09475342,0.02311144
4280.02356079,0.02297860
4281.95236816,0.02305218
4283.88117554,0.02283395
4285.80998291,0.02274925
4287.73879028,0.02276056
4289.66759766,0.02271843
4291.59640503,0.02265821
4293.52521240,0.02259602
4295.45401978,0.02260008
4297.38282715,0.02248317
4299.31163452,0.02248703
4301.24044189,0.02234160
4303.16924927,0.02241779
4305.09805664,0.02234607
4307.02686401,0.02220689
4308.95567139,0.02230580
4310.88447876,0.02214748
4312.81328613,0.02219083
4314.74209351,0.02205662
4316.67090088,0.02200239
4318.59970825,0.02202493
4320.52851562,0.02193766
4322.45732300,0.02189539
4324.38613037,0.02173644
4326.31493774,0.02178268
4328.24374512,0.02168624
4330.17255249,0.02162968
4332.10135986,0.02159036
4334.03016724,0.02152017
4335.95897461,0.02151235
4337.88778198,0.02147719
4339.81658936,0.02142193
4341.74539673,0.02127574
4343.67420410,0.02134560
4345.60301147,0.02119837
4347.53181885,0.02109877
4349.46062622,0.02115972
4351.38943359,0.02111026
4353.31824097,0.02108468
4355.24704834,0.02099277
4357.17585571,0.02097631
4359.10466309,0.02087643
4361.03347046,0.02079136
4362.96227783,0.02069315
4364.89108520,0.02075654
4366.81989258,0.02071893
4368.74869995,0.02063558
4370.67750732,0.02075326
4372.60631470,0.02061995
4374.53512207,0.02060770
4376.46392944,0.02048637
4378.39273682,0.02044994
4380.32154419,0.02037293
4382.25035156,0.02028223
4384.17915894,0.02035423
4386.10796631,0.02014220
4388.03677368,0.02022580
4389.96558105,0.02015195
4391.89438843,0.02010734
4393.82319580,0.02008848
4395.75200317,0.01992446
4397.68081055,0.01996248
4399.60961792,0.01991169
4401.53842529,0.01994978
4403.46723267,0.01978958
4405.39604004,0.01980370
4407.32484741,0.01969412
4409.25365478,0.01965596
4411.18246216,0.01978575
4413.11126953,0.01948482
4415.04007690,0.01954847
4416.96888428,0.01947037
4418.89769165,0.01945495
4420.82649902,0.01947453
4422.75530640,0.01929152
4424.68411377,0.01932956
4426.61292114,0.01927898
4428.54172852,0.01929294
4430.47053589,0.01913944
4432.39934326,0.01912080
4434.32815063,0.01911722
4436.25695801,0.01901337
4438.18576538,0.01898673
4440.11457275,0.01894517
4442.04338013,0.01896841
4443.97218750,0.01877740
4445.90099487,0.01879885
4447.82980225,0.01881013
4449.75860962,0.01871156
4451.68741699,0.01866355
4453.61622437,0.01859881
4455.54503174,0.01855204
4457.47383911,0.01848453
4459.40264648,0.01853169
4461.33145386,0.01831359
4463.26026123,0.01831187
4465.18906860,0.01838646
4467.11787598,0.01829593
4469.04668335,0.01829300
4470.97549072,0.01818467
4472.90429810,0.01819185
4474.83310547,0.01809254
4476.76191284,0.01812292
4478.69072021,0.01809452
4480.61952759,0.01794188
4482.54833496,0.01793544
4484.47714233,0.01789111
4486.40594971,0.01792248
4488.33475708,0.01786229
4490.26356445,0.01785735
4492.19237183,0.01784023
4494.12117920,0.01774040
4496.04998657,0.01760476
4497.97879395,0.01763381
4499.90760132,0.01762258
4501.83640869,0.01746879
4503.76521606,0.01757163
4505.69402344,0.01743070
4507.62283081,0.01734412
4509.55163818,0.01732562
4511.48044556,0.01731603
4513.40925293,0.01733248
4515.33806030,0.01722505
4517.26686768,0.01728858
4519.19567505,0.01711356
4521.12448242,0.01709609
4523.05328979,0.01706355
4524.98209717,0.01697375
4526.91090454,0.01705200
4528.83971191,0.01694225
4530.76851929,0.01691753
4532.69732666,0.01684669
4534.62613403,0.01683743
4536.55494141,0.01677368
4538.48374878,0.01679244
4540.41255615,0.01675439
4542.34136353,0.01660305
4544.27017090,0.01665436
4546.19897827,0.01650468
4548.12778564,0.01650756
4550.05659302,0.01653692
4551.98540039,0.01654146
4553.91420776,0.01648931
4555.84301514,0.01638000
4557.77182251,0.01636098
4559.70062988,0.01620855
4561.62943726,0.01625144
4563.55824463,0.01615423
4565.48705200,0.01609820
4567.41585937,0.01617687
4569.34466675,0.01612861
4571.27347412,0.01605236
4573.20228149,0.01597893
4575.13108887,0.01602001
4577.05989624,0.01592228
4578.98870361,0.01590305
4580.91751099,0.01580111
4582.84631836,0.01573993
4584.77512573,0.01579261
4586.70393311,0.01571716
4588.63274048,0.01571570
4590.56154785,0.01565300
4592.49035522,0.01561416
4594.41916260,0.01556185
4596.34796997,0.01562382
4598.27677734,0.01549665
4600.20558472,0.01542195
4602.13439209,0.01543572
4604.06319946,0.01525143
4605.99200684,0.01541668
4607.92081421,0.01527779
4609.84962158,0.01518129
4611.77842895,0.01521957
4613.70723633,0.01516785
4615.63604370,0.01519966
4617.56485107,0.01501263
4619.49365845,0.01509540
4621.42246582,0.01499940
4623.35127319,0.01497533
4625.28008057,0.01502746
4627.20888794,0.01486002
4629.13769531,0.01495789
4631.06650269,0.01491744
4632.99531006,0.01477680
4634.92411743,0.01471975
4636.85292480,0.01484446
4638.78173218,0.01477711
4640.71053955,0.01463125
4642.63934692,0.01464204
4644.56815430,0.01456801
4646.49696167,0.01454472
4648.42576904,0.01445231
4650.35457642,0.01448928
4652.28338379,0.01440501
4654.21219116,0.01438099
4656.14099853,0.01445458
4658.06980591,0.01435401
4659.99861328,0.01432717
4661.92742065,0.01423879
4663.85622803,0.01427491
4665.78503540,0.01418684
4667.71384277,0.01414383
4669.64265015,0.01415948
4671.57145752,0.01405872
4673.50026489,0.01407648
4675.42907227,0.01402484
4677.35787964,0.01402819
4679.28668701,0.01393238
4681.21549438,0.01392918
4683.14430176,0.01387888
4685.07310913,0.01375621
4687.00191650,0.01383582
4688.93072388,0.01380546
4690.85953125,0.01381088
4692.78833862,0.01376652
4694.71714600,0.01372486
4696.64595337,0.01364111
4698.57476074,0.01361505
4700.50356812,0.01367587
4702.43237549,0.01357618
4704.36118286,0.01354755
4706.28999023,0.01349863
4708.21879761,0.01343282
4710.14760498,0.01341965
4712.07641235,0.01341885
4714.00521973,0.01331880
4715.93402710,0.01334317
4717.86283447,0.01327122
4719.79164185,0.01317778
4721.72044922,0.01334832
4723.64925659,0.01314773
4725.57806396,0.01321237
4727.50687134,0.01319012
4729.43567871,0.01297404
4731.36448608,0.01316155
4733.29329346,0.01302492
4735.22210083,0.01300061
4737.15090820,0.01300544
4739.07971558,0.01294615
4741.00852295,0.01293093
4742.93733032,0.01284088
4744.86613770,0.01290244
4746.79494507,0.01278374
4748.72375244,0.01273221
4750.65255981,0.01273279
4752.58136719,0.01269407
4754.51017456,0.01269411
4756.43898193,0.01264732
4758.36778931,0.01257043
4760.29659668,0.01252008
4762.22540405,0.01262038
4764.15421143,0.01259399
4766.08301880,0.01254335
4768.01182617,0.01252415
4769.94063354,0.01247367
4771.86944092,0.01240165
4773.79824829,0.01233882
4775.72705566,0.01236532
4777.65586304,0.01235984
4779.58467041,0.01237693
4781.51347778,0.01230467
4783.44228516,0.01220690
4785.37109253,0.01213504
4787.29989990,0.01221886
4789.22870728,0.01225397
4791.15751465,0.01210416
4793.08632202,0.01213605
4795.01512939,0.01206654
4796.94393677,0.01205568
4798.87274414,0.01195572
4800.80155151,0.01186669
4802.73035889,0.01202898
4804.65916626,0.01193643
4806.58797363,0.01195330
4808.51678101,0.01192001
4810.44558838,0.01181596
4812.37439575,0.01180810
4814.30320312,0.01171000
4816.23201050,0.01177881
4818.16081787,0.01174482
4820.08962524,0.01169857
4822.01843262,0.01167451
4823.94723999,0.01162275
4825.87604736,0.01173570
4827.80485474,0.01156133
4829.73366211,0.01138833
4831.66246948,0.01149065
4833.59127686,0.01143363
4835.52008423,0.01140232
4837.44889160,0.01143464
4839.37769897,0.01142685
4841.30650635,0.01136854
4843.23531372,0.01125649
4845.16412109,0.01126575
4847.09292847,0.01121615
4849.02173584,0.01121910
4850.95054321,0.01122221
4852.87935059,0.01112756
4854.80815796,0.01115051
4856.73696533,0.01107108
4858.66577270,0.01104404
4860.59458008,0.01109173
4862.52338745,0.01103726
4864.45219482,0.01101000
4866.38100220,0.01105519
4868.30980957,0.01101774
4870.23861694,0.01092417
4872.16742432,0.01093128
4874.09623169,0.01084654
4876.02503906,0.01088603
4877.95384644,0.01085646
4879.88265381,0.01071811
4881.81146118,0.01080798
4883.74026855,0.01075551
4885.66907593,0.01071375
4887.59788330,0.01071647
4889.52669067,0.01066000
4891.45549805,0.01059915
4893.38430542,0.01053749
4895.31311279,0.01055123
4897.24192017,0.01054005
4899.17072754,0.01055291
4901.09953491,0.01050275
4903.02834228,0.01045650
4904.95714966,0.01040849
4906.88595703,0.01037632
4908.81476440,0.01039200
4910.74357178,0.01031947
4912.67237915,0.01030771
4914.60118652,0.01030827
4916.52999390,0.01032151
4918.45880127,0.01028802
4920.38760864,0.01017511
4922.31641602,0.01015662
4924.24522339,0.01022449
4926.17403076,0.01015706
4928.10283813,0.01005287
4930.03164551,0.01012669
4931.96045288,0.01014037
4933.88926025,0.01012004
4935.81806763,0.01001651
4937.74687500,0.00998970
4939.67568237,0.01001220
4941.60448975,0.00993289
4943.53329712,0.00995811
4945.46210449,0.00988181
4947.39091187,0.00989868
4949.31971924,0.00981357
4951.24852661,0.00972695
4953.17733398,0.00987528
4955.10614136,0.00977631
4957.03494873,0.00967440
4958.96375610,0.00970148
4960.89256348,0.00968994
4962.82137085,0.00958909
4964.75017822,0.00965982
4966.67898560,0.00968079
4968.60779297,0.00957331
4970.53660034,0.00955671
4972.46540771,0.00935509
4974.39421509,0.00939694
4976.32302246,0.00944421
4978.25182983,0.00942011
4980.18063721,0.00943911
4982.10944458,0.00931340
4984.03825195,0.00939110
4985.96705933,0.00939138
4987.89586670,0.00935657
4989.82467407,0.00930917
4991.75348145,0.00930693
4993.68228882,0.00929456
4995.61109619,0.00916822
4997.53990356,0.00920858
4999.46871094,0.00918534
5001.39751831,0.00920049
5003.32632568,0.00911502
5005.25513306,0.00909756
5007.18394043,0.00911494
5009.11274780,0.00897396
5011.04155518,0.00903960
5012.97036255,0.00897435
5014.89916992,0.00895383
5016.82797729,0.00892470
5018.75678467,0.00891434
5020.68559204,0.00903434
5022.61439941,0.00891611
5024.54320679,0.00889411
5026.47201416,0.00881261
5028.40082153,0.00872402
5030.32962891,0.00877530
5032.25843628,0.00874903
5034.18724365,0.00873807
5036.11605103,0.00870243
5038.04485840,0.00872995
5039.97366577,0.00869473
5041.90247314,0.00860010
5043.83128052,0.00858996
5045.76008789,0.00858205
5047.68889526,0.00860255
5049.61770264,0.00852983
5051.54651001,0.00850442
5053.47531738,0.00856606
5055.40412476,0.00851253
5057.33293213,0.00852459
5059.26173950,0.00849894
5061.19054687,0.00844177
5063.11935425,0.00840979
5065.04816162,0.00835469
5066.97696899,0.00841697
5068.90577637,0.00832407
5070.83458374,0.00829838
5072.76339111,0.00830177
5074.69219849,0.00822541
5076.62100586,0.00835261
5078.54981323,0.00829601
5080.47862061,0.00824853
5082.40742798,0.00819526
5084.33623535,0.00815657
5086.26504272,0.00823110
5088.19385010,0.00814451
5090.12265747,0.00817553
5092.05146484,0.00816263
5093.98027222,0.00814397
5095.90907959,0.00805204
5097.83788696,0.00801854
5099.76669434,0.00815798
5101.69550171,0.00799670
5103.62430908,0.00791544
5105.55311645,0.00792267
5107.48192383,0.00794506
5109.41073120,0.00797483
5111.33953857,0.00790543
5113.26834595,0.00787100
5115.19715332,0.00783229
5117.12596069,0.00788039
5119.05476807,0.00786133
5120.98357544,0.00783490
5122.91238281,0.00777264
5124.84119019,0.00774127
5126.76999756,0.00776161
5128.69880493,0.00770421
5130.62761230,0.00772086
5132.55641968,0.00761234
5134.48522705,0.00765387
5136.41403442,0.00764978
5138.34284180,0.00751015
5140.27164917,0.00759211
5142.20045654,0.00755050
5144.12926392,0.00757810
5146.05807129,0.00760737
5147.98687866,0.00753382
5149.91568603,0.00751002
5151.84449341,0.00747219
5153.77330078,0.00749871
5155.70210815,0.00740178
5157.63091553,0.00732766
5159.55972290,0.00735106
5161.48853027,0.00733292
5163.41733765,0.00736101
5165.34614502,0.00727739
5167.27495239,0.00720847
5169.20375977,0.00729506
5171.13256714,0.00727192
5173.06137451,0.00719233
5174.99018188,0.00720212
5176.91898926,0.00722223
5178.84779663,0.00714721
5180.77660400,0.00710465
5182.70541138,0.00718040
5184.63421875,0.00711301
5186.56302612,0.00702336
5188.49183350,0.00703179
5190.42064087,0.00703964
5192.34944824,0.00706530
5194.27825562,0.00706810
5196.20706299,0.00704279
5198.13587036,0.00698787
5200.06467773,0.00697125
5201.99348511,0.00693505
5203.92229248,0.00692404
5205.85109985,0.00680434
5207.77990723,0.00668821
5209.70871460,0.00687623
5211.63752197,0.00690364
5213.56632935,0.00683568
5215.49513672,0.00683476
5217.42394409,0.00681839
5219.35275146,0.00676259
5221.28155884,0.00677911
5223.21036621,0.00687132
5225.13917358,0.00663965
5227.06798096,0.00664392
5228.99678833,0.00676400
5230.92559570,0.00667528
5232.85440308,0.00671043
5234.78321045,0.00668626
5236.71201782,0.00670746
5238.64082520,0.00662973
5240.56963257,0.00662864
5242.49843994,0.00664342
5244.42724731,0.00646423
5246.35605469,0.00650680
5248.28486206,0.00644458
5250.21366943,0.00638093
5252.14247681,0.00658399
5254.07128418,0.00653429
5256.00009155,0.00637820
5257.92889893,0.00651834
5259.85770630,0.00650923
5261.78651367,0.00636910
5263.71532104,0.00633962
5265.64412842,0.00635234
5267.57293579,0.00644868
5269.50174316,0.00634377
5271.43055054,0.00635839
5273.35935791,0.00641196
5275.28816528,0.00632755
5277.21697266,0.00633853
5279.14578003,0.00620458
5281.07458740,0.00628873
5283.00339478,0.00631554
5284.93220215,0.00618525
5286.86100952,0.00629350
5288.78981689,0.00620562
5290.71862427,0.00610777
5292.64743164,0.00621396
5294.57623901,0.00620161
5296.50504639,0.00612695
5298.43385376,0.00616687
5300.36266113,0.00614436
5302.29146851,0.00609992
5304.22027588,0.00611078
5306.14908325,0.00603783
5308.07789062,0.00600743
5310.00669800,0.00602309
5311.93550537,0.00596066
5313.86431274,0.00595278
5315.79312012,0.00602704
5317.72192749,0.00595265
5319.65073486,0.00595065
5321.57954224,0.00597354
5323.50834961,0.00593341
5325.43715698,0.00593745
5327.36596436,0.00572485
5329.29477173,0.00577499
5331.22357910,0.00594982
5333.15238647,0.00582277
5335.08119385,0.00583684
5337.01000122,0.00580245
5338.93880859,0.00558376
5340.86761597,0.00571102
5342.79642334,0.00576614
5344.72523071,0.00545452
5346.65403809,0.00561620
5348.58284546,0.00571575
5350.51165283,0.00568308
5352.44046020,0.00565587
5354.36926758,0.00538345
5356.29807495,0.00567362
5358.22688232,0.00570048
5360.15568970,0.00554225
5362.08449707,0.00558420
5364.01330444,0.00548108
5365.94211182,0.00562094
5367.87091919,0.00552520
5369.79972656,0.00550771
5371.72853394,0.00548468
5373.65734131,0.00546570
5375.58614868,0.00548749
5377.51495605,0.00526607
5379.44376343,0.00549308
5381.37257080,0.00555962
5383.30137817,0.00540477
5385.23018555,0.00535853
5387.15899292,0.00531855
5389.08780029,0.00538839
5391.01660767,0.00539263
5392.94541504,0.00536417
5394.87422241,0.00524376
5396.80302978,0.00532902
5398.73183716,0.00534313
5400.66064453,0.00529232
5402.58945190,0.00530226
5404.51825928,0.00518482
5406.44706665,0.00532255
5408.37587402,0.00524162
5410.30468140,0.00515408
5412.23348877,0.00521604
5414.16229614,0.00505007
5416.09110352,0.00512782
5418.01991089,0.00522964
5419.94871826,0.00518510
5421.87752563,0.00519068
5423.80633301,0.00509927
5425.73514038,0.00507493
5427.66394775,0.00508042
5429.59275513,0.00491974
5431.52156250,0.00506582
5433.45036987,0.00517149
5435.37917725,0.00489074
5437.30798462,0.00500267
5439.23679199,0.00510271
5441.16559936,0.00493400
5443.09440674,0.00500840
5445.02321411,0.00492011
5446.95202148,0.00478481
5448.88082886,0.00492956
5450.80963623,0.00493521
5452.73844360,0.00493594
5454.66725098,0.00493834
5456.59605835,0.00486489
5458.52486572,0.00492319
5460.45367310,0.00484412
5462.38248047,0.00485077
5464.31128784,0.00483590
5466.24009521,0.00478088
5468.16890259,0.00489897
5470.09770996,0.00476945
5472.02651733,0.00475823
5473.95532471,0.00474911
5475.88413208,0.00461436
5477.81293945,0.00469086
5479.74174683,0.00472121
5481.67055420,0.00472048
5483.59936157,0.00474677
5485.52816895,0.00472623
5487.45697632,0.00462610
5489.38578369,0.00468409
5491.31459106,0.00467910
5493.24339844,0.00455487
5495.17220581,0.00465389
5497.10101318,0.00462151
5499.02982056,0.00459236
5500.95862793,0.00463063
5502.88743530,0.00459177
5504.81624268,0.00458340
5506.74505005,0.00451210
5508.67385742,0.00450490
5510.60266479,0.00455870
5512.53147217,0.00454149
5514.46027954,0.00453476
5516.38908691,0.00452487
5518.31789429,0.00446023
5520.24670166,0.00444450
5522.17550903,0.00442697
5524.10431641,0.00450521
5526.03312378,0.00451859
5527.96193115,0.00442194
5529.89073853,0.00448882
5531.81954590,0.00440559
5533.74835327,0.00442015
5535.67716064,0.00447433
5537.60596802,0.00434702
5539.53477539,0.00436688
5541.46358276,0.00438665
5543.39239014,0.00437129
5545.32119751,0.00430605
5547.25000488,0.00432929
5549.17881226,0.00432396
5551.10761963,0.00428072
5553.03642700,0.00435530
5554.96523437,0.00433624
5556.89404175,0.00431512
5558.82284912,0.00424742
5560.75165649,0.00425328
5562.68046387,0.00425045
5564.60927124,0.00426400
5566.53807861,0.00429557
5568.46688599,0.00414981
5570.39569336,0.00423271
5572.32450073,0.00425538
5574.25330811,0.00413364
5576.18211548,0.00415362
5578.11092285,0.00417446
5580.03973022,0.00418331
5581.96853760,0.00416643
5583.89734497,0.00417372
5585.82615234,0.00418699
5587.75495972,0.00415265
5589.68376709,0.00409141
5591.61257446,0.00412439
5593.54138184,0.00411332
5595.47018921,0.00407180
5597.39899658,0.00404834
5599.32780395,0.00402149
5601.25661133,0.00412922
5603.18541870,0.00406251
5605.11422607,0.00398878
5607.04303345,0.00401953
5608.97184082,0.00401474
5610.90064819,0.00398305
5612.82945557,0.00393114
5614.75826294,0.00397376
5616.68707031,0.00389860
5618.61587769,0.00391436
5620.54468506,0.00392088
5622.47349243,0.00385825
5624.40229980,0.00394462
5626.33110718,0.00394839
5628.25991455,0.00391375
5630.18872192,0.00381052
5632.11752930,0.00379146
5634.04633667,0.00384479
5635.97514404,0.00389575
5637.90395142,0.00389314
5639.83275879,0.00378565
5641.76156616,0.00377954
5643.69037353,0.00374098
5645.61918091,0.00378720
5647.54798828,0.00379172
5649.47679565,0.00373497
5651.40560303,0.00373898
5653.33441040,0.00368775
5655.26321777,0.00373552
5657.19202515,0.00373467
5659.12083252,0.00376014
5661.04963989,0.00380346
5662.97844727,0.00372965
5664.90725464,0.00367065
5666.83606201,0.00371106
5668.76486938,0.00376330
5670.69367676,0.00370356
5672.62248413,0.00368251
5674.55129150,0.00365351
5676.48009888,0.00364510
5678.40890625,0.00361900
5680.33771362,0.00359983
5682.26652100,0.00362268
5684.19532837,0.00357036
5686.12413574,0.00359338
5688.05294311,0.00355204
5689.98175049,0.00353526
5691.91055786,0.00355635
5693.83936523,0.00349698
5695.76817261,0.00348512
5697.69697998,0.00350495
5699.62578735,0.00353622
5701.55459473,0.00345099
5703.48340210,0.00344558
5705.41220947,0.00349622
5707.34101685,0.00345524
5709.26982422,0.00345507
5711.19863159,0.00339583
5713.12743896,0.00335653
5715.05624634,0.00341349
5716.98505371,0.00344563
5718.91386108,0.00338321
5720.84266846,0.00331696
5722.77147583,0.00333672
5724.70028320,0.00340535
5726.62909058,0.00335485
5728.55789795,0.00325746
5730.48670532,0.00333438
5732.41551270,0.00337038
5734.34432007,0.00332063
5736.27312744,0.00333584
5738.20193481,0.00336167
5740.13074219,0.00327346
5742.05954956,0.00325320
5743.98835693,0.00331979
5745.91716431,0.00325213
5747.84597168,0.00326970
5749.77477905,0.00325721
5751.70358643,0.00319822
5753.63239380,0.00322552
5755.56120117,0.00319130
5757.49000854,0.00317842
5759.41881592,0.00315974
5761.34762329,0.00319664
5763.27643066,0.00325519
5765.20523804,0.00318491
5767.13404541,0.00312186
5769.06285278,0.00308484
5770.99166016,0.00305793
5772.92046753,0.00314129
5774.84927490,0.00314810
5776.77808228,0.00309706
5778.70688965,0.00317238
5780.63569702,0.00314230
5782.56450439,0.00311924
5784.49331177,0.00313038
5786.42211914,0.00309000
5788.35092651,0.00306553
5790.27973389,0.00302745
5792.20854126,0.00308153
5794.13734863,0.00304710
5796.06615601,0.00302707
5797.99496338,0.00305583
5799.92377075,0.00301186
5801.85257812,0.00303847
5803.78138550,0.00307441
5805.71019287,0.00307157
5807.63900024,0.00294658
5809.56780762,0.00290540
5811.49661499,0.00295324
5813.42542236,0.00299761
5815.35422974,0.00302002
5817.28303711,0.00289661
5819.21184448,0.00291009
5821.14065186,0.00292986
5823.06945923,0.00288490
5824.99826660,0.00288270
5826.92707397,0.00285637
5828.85588135,0.00289553
5830.78468872,0.00290676
5832.71349609,0.00286880
5834.64230347,0.00286876
5836.57111084,0.00291286
5838.49991821,0.00286419
5840.42872559,0.00279067
5842.35753296,0.00280361
5844.28634033,0.00281632
5846.21514770,0.00277718
5848.14395508,0.00274065
5850.07276245,0.00281331
5852.00156982,0.00282596
5853.93037720,0.00278653
5855.85918457,0.00273289
5857.78799194,0.00274340
5859.71679932,0.00280338
5861.64560669,0.00272799
5863.57441406,0.00274539
5865.50322144,0.00274012
5867.43202881,0.00271723
5869.36083618,0.00278531
5871.28964355,0.00272892
5873.21845093,0.00269740
5875.14725830,0.00272861
5877.07606567,0.00268393
5879.00487305,0.00265555
5880.93368042,0.00265201
5882.86248779,0.00261550
5884.79129517,0.00265819
5886.72010254,0.00261972
5888.64890991,0.00258675
5890.57771728,0.00264958
5892.50652466,0.00258085
5894.43533203,0.00256474
5896.36413940,0.00255078
5898.29294678,0.00255471
5900.22175415,0.00253203
5902.15056152,0.00249237
5904.07936890,0.00256685
5906.00817627,0.00250377
5907.93698364,0.00253360
5909.86579102,0.00257166
5911.79459839,0.00250933
5913.72340576,0.00251651
5915.65221313,0.00249185
5917.58102051,0.00253352
5919.50982788,0.00253342
5921.43863525,0.00252683
5923.36744263,0.00252603
5925.29625000,0.00241791
5927.22505737,0.00242236
5929.15386475,0.00246873
5931.08267212,0.00242284
5933.01147949,0.00245612
5934.94028686,0.00247342
5936.86909424,0.00239062
5938.79790161,0.00239313
5940.72670898,0.00243244
5942.65551636,0.00242793
5944.58432373,0.00238393
5946.51313110,0.00241013
5948.44193848,0.00243745
5950.37074585,0.00236722
5952.29955322,0.00237955
5954.22836060,0.00238669
5956.15716797,0.00232708
5958.08597534,0.00232166
5960.01478271,0.00238982
5961.94359009,0.00237635
5963.87239746,0.00235924
5965.80120483,0.00231714
5967.73001221,0.00223836
5969.65881958,0.00234980
5971.58762695,0.00226562
5973.51643433,0.00220098
5975.44524170,0.00230682
5977.37404907,0.00226758
5979.30285645,0.00227973
5981.23166382,0.00226200
5983.16047119,0.00225024
5985.08927856,0.00223459
5987.01808594,0.00225827
5988.94689331,0.00223277
5990.87570068,0.00216739
5992.80450806,0.00228717
5994.73331543,0.00226779
5996.66212280,0.00221580
5998.59093018,0.00219762
6000.51973755,0.00223881
