399.26312622,0.00124316
401.19193359,0.00097928
403.12074097,0.00097587
405.04954834,0.00105230
406.97835571,0.00086114
408.90716309,0.00077074
410.83597046,0.00092507
412.76477783,0.00103076
414.69358521,0.00144419
416.62239258,0.00123803
418.55119995,0.00112797
420.48000732,0.00125196
422.40881470,0.00102674
424.33762207,0.00161241
426.26642944,0.00148270
428.19523682,0.00133607
430.12404419,0.00119360
432.05285156,0.00083036
433.98165894,0.00143138
435.91046631,0.00146075
437.83927368,0.00175910
439.76808105,0.00166515
441.69688843,0.00109819
443.62569580,0.00129436
445.55450317,0.00108895
447.48331055,0.00073726
449.41211792,0.00060917
451.34092529,0.00093914
453.26973267,0.00087710
455.19854004,0.00104838
457.12734741,0.00129419
459.05615479,0.00087832
460.98496216,0.00098165
462.91376953,0.00055119
464.84257690,0.00050170
466.77138428,0.00071623
468.70019165,0.00078762
470.62899902,0.00081095
472.55780640,0.00035669
474.48661377,0.00073695
476.41542114,0.00032689
478.34422852,-0.00010586
480.27303589,-0.00009368
482.20184326,0.00003564
484.13065063,0.00053075
486.05945801,0.00010514
487.98826538,0.00054589
489.91707275,0.00031389
491.84588013,0.00014461
493.77468750,0.00085090
495.70349487,0.00036975
497.63230225,0.00037906
499.56110962,0.00043877
501.48991699,0.00056796
503.41872437,0.00040207
505.34753174,0.00052001
507.27633911,0.00041327
509.20514648,-0.00035088
511.13395386,0.00002335
513.06276123,0.00003021
514.99156860,0.00050161
516.92037598,0.00034815
518.84918335,0.00012734
520.77799072,0.00039441
522.70679810,-0.00020313
524.63560547,0.00057747
526.56441284,0.00029833
528.49322021,0.00002818
530.42202759,0.00054225
532.35083496,-0.00003077
534.27964233,0.00026248
536.20844971,0.00010212
538.13725708,-0.00000286
540.06606445,0.00026666
541.99487183,0.00016447
543.92367920,0.00044894
545.85248657,0.00026552
547.78129395,0.00036935
549.71010132,0.00054774
551.63890869,0.00025497
553.56771606,0.00019031
555.49652344,-0.00001964
557.42533081,-0.00011279
559.35413818,0.00014560
561.28294556,0.00015585
563.21175293,0.00010379
565.14056030,0.00006091
567.06936768,0.00005469
568.99817505,0.00043084
570.92698242,0.00036948
572.85578979,0.00020826
574.78459717,0.00033144
576.71340454,0.00020790
578.64221191,0.00029788
580.57101929,0.00042632
582.49982666,0.00040024
584.42863403,0.00026538
586.35744141,0.00019657
588.28624878,0.00034608
590.21505615,0.00019334
592.14386353,0.00005868
594.07267090,0.00036021
596.00147827,0.00047956
597.93028564,0.00022529
599.85909302,0.00027978
601.78790039,0.00037317
603.71670776,-0.00000354
605.64551514,-0.00024375
607.57432251,0.00009566
609.50312988,0.00023308
611.43193726,0.00001344
613.36074463,0.00025956
615.28955200,0.00025703
617.21835938,-0.00003272
619.14716675,-0.00020034
621.07597412,0.00007345
623.00478149,0.00031293
624.93358887,0.00048140
626.86239624,0.00011828
628.79120361,-0.00014370
630.72001099,0.00054005
632.64881836,0.00037724
634.57762573,0.00068605
636.50643311,0.00103017
638.43524048,0.00076003
640.36404785,0.00143814
642.29285522,0.00154067
644.22166260,0.00137294
646.15046997,0.00142700
648.07927734,0.00147954
650.00808472,0.00158749
651.93689209,0.00184450
653.86569946,0.00195495
655.79450684,0.00163177
657.72331421,0.00213984
659.65212158,0.00198751
661.58092896,0.00181161
663.50973633,0.00240790
665.43854370,0.00194826
667.36735107,0.00186463
669.29615845,0.00220995
671.22496582,0.00249571
673.15377319,0.00279248
675.08258057,0.00284670
677.01138794,0.00286124
678.94019531,0.00265035
680.86900269,0.00285441
682.79781006,0.00278697
684.72661743,0.00266110
686.65542480,0.00306964
688.58423218,0.00278752
690.51303955,0.00272066
692.44184692,0.00313431
694.37065430,0.00304197
696.29946167,0.00334880
698.22826904,0.00412763
700.15707642,0.00446281
702.08588379,0.00436239
704.01469116,0.00409891
705.94349854,0.00361652
707.87230591,0.00284794
709.80111328,0.00235943
711.72992065,0.00174605
713.65872803,0.00092679
715.58753540,0.00076184
717.51634277,0.00039763
719.44515015,0.00022911
721.37395752,0.00052143
723.30276489,0.00018561
725.23157227,0.00000897
727.16037964,0.00032403
729.08918701,0.00050847
731.01799438,0.00032582
732.94680176,0.00009039
734.87560913,0.00014313
736.80441650,0.00011616
738.73322388,0.00027462
740.66203125,0.00027297
742.59083862,-0.00002672
744.51964600,0.00027146
746.44845337,0.00043187
748.37726074,0.00039274
750.30606812,0.00054553
752.23487549,0.00016636
754.16368286,0.00015377
756.09249023,0.00031583
758.02129761,0.00035064
759.95010498,0.00040952
761.87891235,0.00042491
763.80771973,0.00057261
765.73652710,0.00003540
767.66533447,0.00010966
769.59414185,0.00026188
771.52294922,0.00007117
773.45175659,0.00030102
775.38056396,0.00023659
777.30937134,0.00055197
779.23817871,0.00028594
781.16698608,0.00014530
783.09579346,0.00052132
785.02460083,0.00013878
786.95340820,0.00035025
788.88221558,0.00069226
790.81102295,0.00038068
792.73983032,0.00017336
794.66863770,0.00043445
796.59744507,0.00024926
798.52625244,0.00044908
800.45505981,0.00093551
802.38386719,0.00037275
804.31267456,0.00060019
806.24148193,0.00059552
808.17028931,0.00009773
810.09909668,0.00025312
812.02790405,0.00048128
813.95671143,0.00072291
815.88551880,0.00034788
817.81432617,0.00028366
819.74313354,0.00053537
821.67194092,0.00039082
823.60074829,0.00007305
825.52955566,0.00012575
827.45836304,0.00059913
829.38717041,0.00066165
831.31597778,0.00069362
833.24478516,0.00066132
835.17359253,0.00082915
837.10239990,0.00099118
839.03120728,0.00098029
840.96001465,0.00111526
842.88882202,0.00102632
844.81762939,0.00089446
846.74643677,0.00072847
848.67524414,0.00074018
850.60405151,0.00056819
852.53285889,0.00050420
854.46166626,0.00053026
856.39047363,0.00055763
858.31928101,0.00071390
860.24808838,0.00020898
862.17689575,0.00027766
864.10570313,0.00039407
866.03451050,0.00014882
867.96331787,0.00045193
869.89212524,0.00056312
871.82093262,0.00046175
873.74973999,0.00021200
875.67854736,0.00040318
877.60735474,0.00062761
879.53616211,0.00034699
881.46496948,0.00027031
883.39377686,0.00038487
885.32258423,0.00064420
887.25139160,0.00061835
889.18019897,0.00044382
891.10900635,0.00047338
893.03781372,0.00044404
894.96662109,0.00049626
896.89542847,0.00059952
898.82423584,0.00061384
900.75304321,0.00064398
902.68185059,0.00056562
904.61065796,0.00039911
906.53946533,0.00068062
908.46827271,0.00077984
910.39708008,0.00034667
912.32588745,0.00039714
914.25469482,0.00077121
916.18350220,0.00081604
918.11230957,0.00072203
920.04111694,0.00084380
921.96992432,0.00099108
923.89873169,0.00101236
925.82753906,0.00097783
927.75634644,0.00085453
929.68515381,0.00106963
931.61396118,0.00138354
933.54276855,0.00124911
935.47157593,0.00141489
937.40038330,0.00153747
939.32919067,0.00140317
941.25799805,0.00163634
943.18680542,0.00164375
945.11561279,0.00172982
947.04442017,0.00155160
948.97322754,0.00140509
950.90203491,0.00169168
952.83084229,0.00143670
954.75964966,0.00158442
956.68845703,0.00155423
958.61726440,0.00132218
960.54607178,0.00138752
962.47487915,0.00139250
964.40368652,0.00183646
966.33249390,0.00171339
968.26130127,0.00170265
970.19010864,0.00191202
972.11891602,0.00192277
974.04772339,0.00211137
975.97653076,0.00211794
977.90533813,0.00237169
979.83414551,0.00222794
981.76295288,0.00242463
983.69176025,0.00284201
985.62056763,0.00295384
987.54937500,0.00351589
989.47818237,0.00366076
991.40698975,0.00420619
993.33579712,0.00484670
995.26460449,0.00496073
997.19341187,0.00544360
999.12221924,0.00565652
1001.05102661,0.00590855
1002.97983398,0.00666063
1004.90864136,0.00704998
1006.83744873,0.00739352
1008.76625610,0.00798135
1010.69506348,0.00822640
1012.62387085,0.00883970
1014.55267822,0.00930253
1016.48148560,0.00959131
1018.41029297,0.01020050
1020.33910034,0.01034924
1022.26790771,0.01111910
1024.19671509,0.01168497
1026.12552246,0.01172666
1028.05432983,0.01203236
1029.98313721,0.01217956
1031.91194458,0.01291965
1033.84075195,0.01321978
1035.76955933,0.01321780
1037.69836670,0.01349827
1039.62717407,0.01349802
1041.55598145,0.01362336
1043.48478882,0.01333004
1045.41359619,0.01322781
1047.34240356,0.01320956
1049.27121094,0.01270692
1051.20001831,0.01272978
1053.12882568,0.01256470
1055.05763306,0.01196333
1056.98644043,0.01185457
1058.91524780,0.01185288
1060.84405518,0.01140057
1062.77286255,0.01093250
1064.70166992,0.01071881
1066.63047729,0.01027525
1068.55928467,0.00981654
1070.48809204,0.00940542
1072.41689941,0.00898088
1074.34570679,0.00869849
1076.27451416,0.00813599
1078.20332153,0.00789011
1080.13212891,0.00777259
1082.06093628,0.00742304
1083.98974365,0.00714111
1085.91855103,0.00658323
1087.84735840,0.00634078
1089.77616577,0.00614893
1091.70497314,0.00595377
1093.63378052,0.00570841
1095.56258789,0.00535763
1097.49139526,0.00532899
1099.42020264,0.00498996
1101.34901001,0.00502444
1103.27781738,0.00482562
1105.20662476,0.00455939
1107.13543213,0.00476509
1109.06423950,0.00453520
1110.99304687,0.00456616
1112.92185425,0.00442488
1114.85066162,0.00460104
1116.77946899,0.00447162
1118.70827637,0.00419307
1120.63708374,0.00485395
1122.56589111,0.00460042
1124.49469849,0.00457509
1126.42350586,0.00455876
1128.35231323,0.00448552
1130.28112061,0.00515972
1132.20992798,0.00503994
1134.13873535,0.00518279
1136.06754272,0.00535500
1137.99635010,0.00547274
1139.92515747,0.00593173
1141.85396484,0.00593505
1143.78277222,0.00635297
1145.71157959,0.00697076
1147.64038696,0.00747065
1149.56919434,0.00803244
1151.49800171,0.00838499
1153.42680908,0.00863018
1155.35561646,0.00902006
1157.28442383,0.00949313
1159.21323120,0.00979992
1161.14203857,0.01010980
1163.07084595,0.01031906
1164.99965332,0.01062846
1166.92846069,0.01104300
1168.85726807,0.01117981
1170.78607544,0.01158682
1172.71488281,0.01228313
1174.64369019,0.01285773
1176.57249756,0.01329976
1178.50130493,0.01364124
1180.43011230,0.01425131
1182.35891968,0.01482637
1184.28772705,0.01527541
1186.21653442,0.01610175
1188.14534180,0.01685412
1190.07414917,0.01750747
1192.00295654,0.01826980
1193.93176392,0.01905704
1195.86057129,0.02000186
1197.78937866,0.02101230
1199.71818604,0.02199930
1201.64699341,0.02287425
1203.57580078,0.02365997
1205.50460815,0.02455324
1207.43341553,0.02562875
1209.36222290,0.02640349
1211.29103027,0.02706894
1213.21983765,0.02778333
1215.14864502,0.02829181
1217.07745239,0.02901944
1219.00625977,0.02947765
1220.93506714,0.03002612
1222.86387451,0.03052413
1224.79268188,0.03037781
1226.72148926,0.03077440
1228.65029663,0.03115046
1230.57910400,0.03106682
1232.50791138,0.03118527
1234.43671875,0.03124125
1236.36552612,0.03100353
1238.29433350,0.03110154
1240.22314087,0.03136053
1242.15194824,0.03095455
1244.08075562,0.03091013
1246.00956299,0.03093837
1247.93837036,0.03044016
1249.86717773,0.03033801
1251.79598511,0.03019732
1253.72479248,0.02975458
1255.65359985,0.02959398
1257.58240723,0.02939868
1259.51121460,0.02867846
1261.44002197,0.02820911
1263.36882935,0.02796663
1265.29763672,0.02744424
1267.22644409,0.02716153
1269.15525146,0.02693742
1271.08405884,0.02646099
1273.01286621,0.02606804
1274.94167358,0.02582226
1276.87048096,0.02529991
1278.79928833,0.02469568
1280.72809570,0.02417112
1282.65690308,0.02365758
1284.58571045,0.02331027
1286.51451782,0.02298281
1288.44332520,0.02268462
1290.37213257,0.02230180
1292.30093994,0.02202452
1294.22974731,0.02175663
1296.15855469,0.02151801
1298.08736206,0.02162245
1300.01616943,0.02178994
1301.94497681,0.02189809
1303.87378418,0.02192147
1305.80259155,0.02225050
1307.73139893,0.02266864
1309.66020630,0.02316866
1311.58901367,0.02351093
1313.51782104,0.02360294
1315.44662842,0.02435018
1317.37543579,0.02484310
1319.30424316,0.02526618
1321.23305054,0.02610573
1323.16185791,0.02695810
1325.09066528,0.02767438
1327.01947266,0.02813745
1328.94828003,0.02920437
1330.87708740,0.02998587
1332.80589478,0.03039858
1334.73470215,0.03115154
1336.66350952,0.03138351
1338.59231689,0.03111746
1340.52112427,0.03153536
1342.44993164,0.03276853
1344.37873901,0.03309914
1346.30754639,0.03300446
1348.23635376,0.03287862
1350.16516113,0.03269736
1352.09396851,0.03270705
1354.02277588,0.03224028
1355.95158325,0.03220602
1357.88039062,0.03190024
1359.80919800,0.03127663
1361.73800537,0.02999276
1363.66681274,0.02943814
1365.59562012,0.03098810
1367.52442749,0.03027305
1369.45323486,0.02996338
1371.38204224,0.03039983
1373.31084961,0.02881461
1375.23965698,0.02897780
1377.16846436,0.02964252
1379.09727173,0.02987676
1381.02607910,0.02969961
1382.95488647,0.02961954
1384.88369385,0.02972269
1386.81250122,0.02818453
1388.74130859,0.02870765
1390.67011597,0.03089964
1392.59892334,0.03017483
1394.52773071,0.02837350
1396.45653809,0.02965768
1398.38534546,0.02973818
1400.31415283,0.02945908
1402.24296021,0.03180079
1404.17176758,0.03017556
1406.10057495,0.03011506
1408.02938232,0.03121646
1409.95818970,0.03027873
1411.88699707,0.03091620
1413.81580444,0.02980731
1415.74461182,0.03036280
1417.67341919,0.02736650
1419.60222656,0.02454847
1421.53103394,0.02827516
1423.45984131,0.02739619
1425.38864868,0.02668503
1427.31745605,0.02711506
1429.24626343,0.02496943
1431.17507080,0.02426275
1433.10387817,0.02471955
1435.03268555,0.02246446
1436.96149292,0.01926466
1438.89030029,0.02177998
1440.81910767,0.02206961
1442.74791504,0.02082544
1444.67672241,0.02156932
1446.60552979,0.01969812
1448.53433716,0.02035179
1450.46314453,0.02084294
1452.39195190,0.02134869
1454.32075928,0.02209254
1456.24956665,0.01824319
1458.17837402,0.01897275
1460.10718140,0.02497071
1462.03598877,0.02674252
1463.96479614,0.02633790
1465.89360352,0.02758162
1467.82241089,0.03150249
1469.75121826,0.03344697
1471.68002563,0.02994724
1473.60883301,0.03153780
1475.53764038,0.03581918
1477.46644775,0.03864767
1479.39525513,0.04231131
1481.32406250,0.04279677
1483.25286987,0.04553612
1485.18167725,0.04680832
1487.11048462,0.04612899
1489.03929199,0.04580593
1490.96809937,0.04591691
1492.89690674,0.05357085
1494.82571411,0.05184830
1496.75452148,0.04695640
1498.68332886,0.05313488
1500.61213623,0.05440509
1502.54094360,0.05894194
1504.46975098,0.05511849
1506.39855835,0.04025437
1508.32736572,0.04963829
1510.25617310,0.05778673
1512.18498047,0.05613806
1514.11378784,0.06031033
1516.04259521,0.05444092
1517.97140259,0.05693549
1519.90020996,0.05458161
1521.82901733,0.04774155
1523.75782471,0.05838597
1525.68663208,0.05710387
1527.61543945,0.05705701
1529.54424683,0.06311946
1531.47305420,0.06043335
1533.40186157,0.05526703
1535.33066895,0.05899300
1537.25947632,0.06272648
1539.18828369,0.04477107
1541.11709106,0.04742671
1543.04589844,0.05647586
1544.97470581,0.05432386
1546.90351318,0.06417199
1548.83232056,0.05955537
1550.76112793,0.06182046
1552.68993530,0.06115101
1554.61874268,0.05569781
1556.54755005,0.05943188
1558.47635742,0.04165367
1560.40516479,0.04586623
1562.33397217,0.06462084
1564.26277954,0.06088910
1566.19158691,0.06287372
1568.12039429,0.06181157
1570.04920166,0.05502946
1571.97800903,0.06378059
1573.90681641,0.06394865
1575.83562378,0.05063631
1577.76443115,0.05809771
1579.69323853,0.06536095
1581.62204590,0.06211082
1583.55085327,0.06375705
1585.47966064,0.06272088
1587.40846802,0.06337684
1589.33727539,0.06280866
1591.26608276,0.06253688
1593.19489014,0.06273350
1595.12369751,0.06200529
1597.05250488,0.06266995
1598.98131226,0.06251423
1600.91011963,0.06297804
1602.83892700,0.06169116
1604.76773437,0.06282483
1606.69654175,0.06186558
1608.62534912,0.06181791
1610.55415649,0.06164836
1612.48296387,0.06200065
1614.41177124,0.06257795
1616.34057861,0.05108082
1618.26938599,0.05605255
1620.19819336,0.06478213
1622.12700073,0.05723087
1624.05580811,0.05778224
1625.98461548,0.06068039
1627.91342285,0.06024671
1629.84223022,0.05995999
1631.77103760,0.06422282
1633.69984497,0.05856825
1635.62865234,0.04848716
1637.55745972,0.05681106
1639.48626709,0.06225444
1641.41507446,0.06093534
1643.34388184,0.06231018
1645.27268921,0.05597295
1647.20149658,0.04952126
1649.13030396,0.06167427
1651.05911133,0.05751587
1652.98791870,0.03708419
1654.91672607,0.05141266
1656.84553345,0.06371832
1658.77434082,0.06101645
1660.70314819,0.06264713
1662.63195557,0.05684764
1664.56076294,0.06030888
1666.48957031,0.06420222
1668.41837769,0.05605058
1670.34718506,0.05491543
1672.27599243,0.06190946
1674.20479980,0.05709647
1676.13360718,0.05518150
1678.06241455,0.06321825
1679.99122192,0.06089552
1681.92002930,0.06000667
1683.84883667,0.04861701
1685.77764404,0.04901842
1687.70645142,0.06634308
1689.63525879,0.05743266
1691.56406616,0.06352986
1693.49287354,0.06397763
1695.42168091,0.04722602
1697.35048828,0.05819789
1699.27929565,0.05069620
1701.20810303,0.04632529
1703.13691040,0.06258354
1705.06571777,0.05712556
1706.99452515,0.05802675
1708.92333252,0.06275111
1710.85213989,0.06028808
1712.78094727,0.06126401
1714.70975464,0.05650002
1716.63856201,0.05103061
1718.56736938,0.05045813
1720.49617676,0.05974467
1722.42498413,0.06171220
1724.35379150,0.05737970
1726.28259888,0.06241696
1728.21140625,0.05740280
1730.14021362,0.05815085
1732.06902100,0.05610581
1733.99782837,0.04305668
1735.92663574,0.05399185
1737.85544312,0.05882436
1739.78425049,0.05262262
1741.71305786,0.05721878
1743.64186523,0.05794882
1745.57067261,0.05838407
1747.49947998,0.05860439
1749.42828735,0.05612284
1751.35709473,0.05375040
1753.28590210,0.05950212
1755.21470947,0.06204032
1757.14351685,0.05669584
1759.07232422,0.06230368
1761.00113159,0.05838807
1762.92993896,0.05677377
1764.85874634,0.06465062
1766.78755371,0.05808942
1768.71636108,0.05870564
1770.64516846,0.05813593
1772.57397583,0.05255090
1774.50278320,0.05866534
1776.43159058,0.06186202
1778.36039795,0.06091877
1780.28920532,0.06012072
1782.21801270,0.06071755
1784.14682007,0.06046410
1786.07562744,0.05937790
1788.00443481,0.06251210
1789.93324219,0.06055383
1791.86204956,0.05497078
1793.79085693,0.05764699
1795.71966431,0.06158017
1797.64847168,0.06051660
1799.57727905,0.05959467
1801.50608643,0.05873755
1803.43489380,0.06064780
1805.36370117,0.06195563
1807.29250854,0.06101872
1809.22131592,0.06120035
1811.15012329,0.05971877
1813.07893066,0.06139780
1815.00773804,0.06176182
1816.93654541,0.06109241
1818.86535278,0.06154275
1820.79416016,0.06134675
1822.72296753,0.06194112
1824.65177490,0.05810803
1826.58058228,0.06030076
1828.50938965,0.06019003
1830.43819702,0.05667836
1832.36700439,0.06154720
1834.29581177,0.06111556
1836.22461914,0.06103109
1838.15342651,0.06079858
1840.08223389,0.06131667
1842.01104126,0.06102099
1843.93984863,0.05421801
1845.86865601,0.05803560
1847.79746338,0.06098063
1849.72627075,0.05976949
1851.65507812,0.06143975
1853.58388550,0.06014574
1855.51269287,0.06083220
1857.44150024,0.06028164
1859.37030762,0.06006536
1861.29911499,0.06043873
1863.22792236,0.05969239
1865.15672974,0.06038442
1867.08553711,0.05818286
1869.01434448,0.05596355
1870.94315186,0.05816929
1872.87195923,0.06022022
1874.80076660,0.05934569
1876.72957397,0.05964044
1878.65838135,0.05940335
1880.58718872,0.05904707
1882.51599609,0.05950548
1884.44480347,0.05848993
1886.37361084,0.05943880
1888.30241821,0.05806812
1890.23122559,0.05691597
1892.16003296,0.05911502
1894.08884033,0.05813155
1896.01764771,0.05789568
1897.94645508,0.05860849
1899.87526245,0.05826833
1901.80406982,0.05837381
1903.73287720,0.05809600
1905.66168457,0.05829556
1907.59049194,0.05767289
1909.51929932,0.05750295
1911.44810669,0.05768341
1913.37691406,0.05760299
1915.30572144,0.05807579
1917.23452881,0.05555885
1919.16333618,0.05577096
1921.09214355,0.05776049
1923.02095093,0.05589837
1924.94975830,0.05706190
1926.87856567,0.05757170
1928.80737305,0.05680835
1930.73618042,0.05761410
1932.66498779,0.05679918
1934.59379517,0.05714116
1936.52260254,0.05687659
1938.45140991,0.05702357
1940.38021729,0.05689596
1942.30902466,0.05519021
1944.23783203,0.05617116
1946.16663940,0.05668554
1948.09544678,0.05662949
1950.02425415,0.05683726
1951.95306152,0.05657621
1953.88186890,0.05669174
1955.81067627,0.05646788
1957.73948364,0.05654543
1959.66829102,0.05647795
1961.59709839,0.05634473
1963.52590576,0.05642617
1965.45471313,0.05609497
1967.38352051,0.05551124
1969.31232788,0.05595127
1971.24113525,0.05635297
1973.16994263,0.05592217
1975.09875000,0.05603508
1977.02755737,0.05570443
1978.95636475,0.05580328
1980.88517212,0.05577589
1982.81397949,0.05547499
1984.74278687,0.05565462
1986.67159424,0.05509371
1988.60040161,0.05528926
1990.52920898,0.05492726
1992.45801636,0.05430047
1994.38682373,0.05506563
1996.31563110,0.05510210
1998.24443848,0.05480604
2000.17324585,0.05483242
2002.10205322,0.05462420
2004.03086060,0.05453465
2005.95966797,0.05454468
2007.88847534,0.05432791
2009.81728271,0.05416603
2011.74609009,0.05406021
2013.67489746,0.05401390
2015.60370483,0.05358958
2017.53251221,0.05318020
2019.46131958,0.05355034
2021.39012695,0.05346922
2023.31893433,0.05334961
2025.24774170,0.05325675
2027.17654907,0.05300169
2029.10535645,0.05307012
2031.03416382,0.05280382
2032.96297119,0.05274719
2034.89177856,0.05273915
2036.82058594,0.05249039
2038.74939331,0.05233625
2040.67820068,0.05209432
2042.60700806,0.05185051
2044.53581543,0.05185962
2046.46462280,0.05184346
2048.39343018,0.05169599
2050.32223755,0.05177165
2052.25104492,0.05155525
2054.17985229,0.05132517
2056.10865967,0.05119791
2058.03746704,0.05113016
2059.96627441,0.05120481
2061.89508179,0.05099926
2063.82388916,0.05074038
2065.75269653,0.05057644
2067.68150391,0.05078103
2069.61031128,0.05061099
2071.53911865,0.05040539
2073.46792603,0.05045313
2075.39673340,0.05012157
2077.32554077,0.05020681
2079.25434814,0.05012983
2081.18315552,0.04995551
2083.11196289,0.04984982
2085.04077026,0.04965050
2086.96957764,0.04970429
2088.89838501,0.04954787
2090.82719238,0.04936369
2092.75599976,0.04924663
2094.68480713,0.04929902
2096.61361450,0.04923603
2098.54242187,0.04910154
2100.47122925,0.04906805
2102.40003662,0.04890522
2104.32884399,0.04881114
2106.25765137,0.04870975
2108.18645874,0.04863594
2110.11526611,0.04847680
2112.04407349,0.04857111
2113.97288086,0.04844909
2115.90168823,0.04818103
2117.83049561,0.04830112
2119.75930298,0.04805441
2121.68811035,0.04805180
2123.61691772,0.04814072
2125.54572510,0.04797311
2127.47453247,0.04791358
2129.40333984,0.04784914
2131.33214722,0.04780944
2133.26095459,0.04772145
2135.18976196,0.04765076
2137.11856934,0.04738063
2139.04737671,0.04731495
2140.97618408,0.04735572
2142.90499146,0.04723022
2144.83379883,0.04725777
2146.76260620,0.04718932
2148.69141357,0.04710273
2150.62022095,0.04701749
2152.54902832,0.04698371
2154.47783569,0.04688416
2156.40664307,0.04677799
2158.33545044,0.04677739
2160.26425781,0.04667289
2162.19306519,0.04661187
2164.12187256,0.04656465
2166.05067993,0.04651882
2167.97948730,0.04642954
2169.90829468,0.04634337
2171.83710205,0.04624317
2173.76590942,0.04619275
2175.69471680,0.04617744
2177.62352417,0.04611907
2179.55233154,0.04607787
2181.48113892,0.04589593
2183.40994629,0.04591122
2185.33875366,0.04594027
2187.26756104,0.04587008
2189.19636841,0.04587351
2191.12517578,0.04575433
2193.05398315,0.04563944
2194.98279053,0.04559605
2196.91159790,0.04565824
2198.84040527,0.04554515
2200.76921265,0.04542758
2202.69802002,0.04546138
2204.62682739,0.04542743
2206.55563477,0.04531278
2208.48444214,0.04510357
2210.41324951,0.04508186
2212.34205688,0.04508174
2214.27086426,0.04498766
2216.19967163,0.04493380
2218.12847900,0.04486752
2220.05728638,0.04471209
2221.98609375,0.04474943
2223.91490112,0.04484078
2225.84370850,0.04459909
2227.77251587,0.04453854
2229.70132324,0.04445498
2231.63013062,0.04434054
2233.55893799,0.04432427
2235.48774536,0.04422357
2237.41655273,0.04421404
2239.34536011,0.04411267
2241.27416748,0.04406312
2243.20297485,0.04404461
2245.13178223,0.04397514
2247.06058960,0.04376426
2248.98939697,0.04370960
2250.91820435,0.04376110
2252.84701172,0.04351357
2254.77581909,0.04352688
2256.70462646,0.04352911
2258.63343384,0.04346653
2260.56224121,0.04342926
2262.49104858,0.04325309
2264.41985596,0.04324525
2266.34866333,0.04324556
2268.27747070,0.04307437
2270.20627808,0.04292908
2272.13508545,0.04294132
2274.06389282,0.04281189
2275.99270020,0.04289389
2277.92150757,0.04289217
2279.85031494,0.04266231
2281.77912231,0.04264650
2283.70792969,0.04248473
2285.63673706,0.04259164
2287.56554443,0.04252887
2289.49435181,0.04230970
2291.42315918,0.04231361
2293.35196655,0.04207501
2295.28077393,0.04193246
2297.20958130,0.04188465
2299.13838867,0.04171190
2301.06719604,0.04135085
2302.99600342,0.04124743
2304.92481079,0.04107274
2306.85361816,0.04073875
2308.78242554,0.04061639
2310.71123291,0.04019804
2312.64004028,0.03985332
2314.56884766,0.03945029
2316.49765503,0.03895311
2318.42646240,0.03838128
2320.35526978,0.03776722
2322.28407715,0.03733288
2324.21288452,0.03680236
2326.14169189,0.03650885
2328.07049927,0.03604122
2329.99930664,0.03559693
2331.92811401,0.03542417
2333.85692139,0.03513323
2335.78572876,0.03484656
2337.71453613,0.03473575
2339.64334351,0.03491380
2341.57215088,0.03506079
2343.50095825,0.03550626
2345.42976562,0.03614850
2347.35857300,0.03762856
2349.28738037,0.03889741
2351.21618774,0.03750217
2353.14499512,0.03562703
2355.07380249,0.03435545
2357.00260986,0.03317621
2358.93141724,0.03257733
2360.86022461,0.03222015
2362.78903198,0.03223494
2364.71783936,0.03232457
2366.64664673,0.03268251
2368.57545410,0.03348884
2370.50426147,0.03428129
2372.43306885,0.03523888
2374.36187622,0.03627545
2376.29068359,0.03723249
2378.21949097,0.03804635
2380.14829834,0.03867013
2382.07710571,0.03909001
2384.00591309,0.03934688
2385.93472046,0.03948231
2387.86352783,0.03943820
2389.79233521,0.03946327
2391.72114258,0.03944317
2393.64994995,0.03928088
2395.57875732,0.03928473
2397.50756470,0.03918907
2399.43637207,0.03913867
2401.36517944,0.03919920
2403.29398682,0.03905743
2405.22279419,0.03900487
2407.15160156,0.03890125
2409.08040894,0.03884563
2411.00921631,0.03884527
2412.93802368,0.03872779
2414.86683105,0.03870988
2416.79563843,0.03862221
2418.72444580,0.03857231
2420.65325317,0.03848290
2422.58206055,0.03838829
2424.51086792,0.03841286
2426.43967529,0.03838041
2428.36848267,0.03825689
2430.29729004,0.03817865
2432.22609741,0.03831025
2434.15490479,0.03817530
2436.08371216,0.03796845
2438.01251953,0.03800566
2439.94132690,0.03795007
2441.87013428,0.03778528
2443.79894165,0.03781657
2445.72774902,0.03793177
2447.65655640,0.03773253
2449.58536377,0.03776055
2451.51417114,0.03774025
2453.44297852,0.03752023
2455.37178589,0.03754649
2457.30059326,0.03756005
2459.22940063,0.03757532
2461.15820801,0.03740878
2463.08701538,0.03734056
2465.01582275,0.03725800
2466.94463013,0.03717263
2468.87343750,0.03720231
2470.80224487,0.03701359
2472.73105225,0.03719385
2474.65985962,0.03712141
2476.58866699,0.03677431
2478.51747437,0.03690159
2480.44628174,0.03690661
2482.37508911,0.03678817
2484.30389648,0.03675923
2486.23270386,0.03670866
2488.16151123,0.03663375
2490.09031860,0.03654622
2492.01912598,0.03651494
2493.94793335,0.03650642
2495.87674072,0.03639067
2497.80554810,0.03638363
2499.73435547,0.03633821
2501.66316284,0.03623124
2503.59197021,0.03629071
2505.52077759,0.03614345
2507.44958496,0.03605335
2509.37839233,0.03597624
2511.30719971,0.03596675
2513.23600708,0.03603195
2515.16481445,0.03584734
2517.09362183,0.03586750
2519.02242920,0.03570537
2520.95123657,0.03550062
2522.88004395,0.03564159
2524.80885132,0.03572605
2526.73765869,0.03559837
2528.66646606,0.03549077
2530.59527344,0.03560854
2532.52408081,0.03552333
2534.45288818,0.03547566
2536.38169556,0.03540188
2538.31050293,0.03522832
2540.23931030,0.03529679
2542.16811768,0.03519914
2544.09692505,0.03505885
2546.02573242,0.03509150
2547.95453979,0.03512639
2549.88334717,0.03501851
2551.81215454,0.03489240
2553.74096191,0.03482649
2555.66976929,0.03478406
2557.59857666,0.03475855
2559.52738403,0.03474747
2561.45619141,0.03473900
2563.38499878,0.03460131
2565.31380615,0.03463782
2567.24261353,0.03457855
2569.17142090,0.03445610
2571.10022827,0.03449036
2573.02903564,0.03438137
2574.95784302,0.03436881
2576.88665039,0.03429369
2578.81545776,0.03427204
2580.74426514,0.03426902
2582.67307251,0.03412627
2584.60187988,0.03404713
2586.53068726,0.03405805
2588.45949463,0.03409455
2590.38830200,0.03389620
2592.31710937,0.03383400
2594.24591675,0.03377063
2596.17472412,0.03375016
2598.10353149,0.03381541
2600.03233887,0.03365538
2601.96114624,0.03370384
2603.88995361,0.03358274
2605.81876099,0.03348818
2607.74756836,0.03352855
2609.67637573,0.03341017
2611.60518311,0.03345237
2613.53399048,0.03333121
2615.46279785,0.03323818
2617.39160522,0.03322235
2619.32041260,0.03312509
2621.24921997,0.03314772
2623.17802734,0.03306134
2625.10683472,0.03299623
2627.03564209,0.03306121
2628.96444946,0.03301553
2630.89325684,0.03287902
2632.82206421,0.03281040
2634.75087158,0.03284792
2636.67967895,0.03277047
2638.60848633,0.03264116
2640.53729370,0.03261039
2642.46610107,0.03252805
2644.39490845,0.03255139
2646.32371582,0.03243523
2648.25252319,0.03225441
2650.18133057,0.03235588
2652.11013794,0.03231177
2654.03894531,0.03226753
2655.96775269,0.03225137
2657.89656006,0.03218018
2659.82536743,0.03223262
2661.75417480,0.03219648
2663.68298218,0.03199286
2665.61178955,0.03196723
2667.54059692,0.03205533
2669.46940430,0.03183467
2671.39821167,0.03182364
2673.32701904,0.03183979
2675.25582642,0.03168952
2677.18463379,0.03170630
2679.11344116,0.03170753
2681.04224854,0.03172252
2682.97105591,0.03149920
2684.89986328,0.03146039
2686.82867065,0.03149547
2688.75747803,0.03139147
2690.68628540,0.03133730
2692.61509277,0.03116008
2694.54390015,0.03122847
2696.47270752,0.03112679
2698.40151489,0.03109885
2700.33032227,0.03111797
2702.25912964,0.03099548
2704.18793701,0.03101455
2706.11674438,0.03084197
2708.04555176,0.03092510
2709.97435913,0.03088554
2711.90316650,0.03080747
2713.83197388,0.03080706
2715.76078125,0.03069525
2717.68958862,0.03067806
2719.61839600,0.03043965
2721.54720337,0.03059214
2723.47601074,0.03061207
2725.40481812,0.03039828
2727.33362549,0.03035390
2729.26243286,0.03021936
2731.19124023,0.03036476
2733.12004761,0.03023033
2735.04885498,0.03011910
2736.97766235,0.03018773
2738.90646973,0.03007319
2740.83527710,0.03014752
2742.76408447,0.03004812
2744.69289185,0.02991777
2746.62169922,0.02996053
2748.55050659,0.02994902
2750.47931396,0.02996353
2752.40812134,0.02979635
2754.33692871,0.02968279
2756.26573608,0.02975253
2758.19454346,0.02960019
2760.12335083,0.02955965
2762.05215820,0.02944079
2763.98096558,0.02931647
2765.90977295,0.02942877
2767.83858032,0.02930723
2769.76738770,0.02926503
2771.69619507,0.02911620
2773.62500244,0.02913290
2775.55380981,0.02914959
2777.48261719,0.02884996
2779.41142456,0.02892216
2781.34023193,0.02890624
2783.26903931,0.02895353
2785.19784668,0.02886951
2787.12665405,0.02875911
2789.05546143,0.02878529
2790.98426880,0.02855623
2792.91307617,0.02868295
2794.84188354,0.02853701
2796.77069092,0.02840192
2798.69949829,0.02852633
2800.62830566,0.02840987
2802.55711304,0.02841856
2804.48592041,0.02829969
2806.41472778,0.02817747
2808.34353516,0.02817170
2810.27234253,0.02819887
2812.20114990,0.02807986
2814.12995728,0.02796023
2816.05876465,0.02788550
2817.98757202,0.02779758
2819.91637939,0.02788760
2821.84518677,0.02767397
2823.77399414,0.02760477
2825.70280151,0.02767859
2827.63160889,0.02756513
2829.56041626,0.02756580
2831.48922363,0.02743633
2833.41803101,0.02733588
2835.34683838,0.02733870
2837.27564575,0.02729150
2839.20445312,0.02725115
2841.13326050,0.02722577
2843.06206787,0.02704374
2844.99087524,0.02687801
2846.91968262,0.02672906
2848.84848999,0.02651832
2850.77729736,0.02650949
2852.70610474,0.02646558
2854.63491211,0.02647377
2856.56371948,0.02641382
2858.49252686,0.02639056
2860.42133423,0.02645033
2862.35014160,0.02626075
2864.27894897,0.02631008
2866.20775635,0.02630650
2868.13656372,0.02616698
2870.06537109,0.02622594
2871.99417847,0.02610805
2873.92298584,0.02594847
2875.85179321,0.02603330
2877.78060059,0.02607327
2879.70940796,0.02596006
2881.63821533,0.02582132
2883.56702270,0.02574241
2885.49583008,0.02579387
2887.42463745,0.02575236
2889.35344482,0.02574082
2891.28225220,0.02564161
2893.21105957,0.02552888
2895.13986694,0.02551027
2897.06867432,0.02537419
2898.99748169,0.02536822
2900.92628906,0.02521130
2902.85509644,0.02528428
2904.78390381,0.02530237
2906.71271118,0.02510897
2908.64151855,0.02509975
2910.57032593,0.02470269
2912.49913330,0.02469291
2914.42794067,0.02472950
2916.35674805,0.02456274
2918.28555542,0.02457475
2920.21436279,0.02438975
2922.14317017,0.02436298
2924.07197754,0.02430859
2926.00078491,0.02438513
2927.92959229,0.02434222
2929.85839966,0.02422385
2931.78720703,0.02428005
2933.71601440,0.02423138
2935.64482178,0.02432872
2937.57362915,0.02421439
2939.50243652,0.02418993
2941.43124390,0.02425907
2943.36005127,0.02414841
2945.28885864,0.02409006
2947.21766602,0.02412500
2949.14647339,0.02418692
2951.07528076,0.02404979
2953.00408813,0.02399689
2954.93289551,0.02385608
2956.86170288,0.02373200
2958.79051025,0.02374970
2960.71931763,0.02369956
2962.64812500,0.02362231
2964.57693237,0.02354912
2966.50573975,0.02356898
2968.43454712,0.02349975
2970.36335449,0.02366062
2972.29216187,0.02365066
2974.22096924,0.02351876
2976.14977661,0.02361725
2978.07858398,0.02350776
2980.00739136,0.02358900
2981.93619873,0.02357350
2983.86500610,0.02346387
2985.79381348,0.02351538
2987.72262085,0.02351590
2989.65142822,0.02343901
2991.58023560,0.02329274
2993.50904297,0.02330586
2995.43785034,0.02334522
2997.36665771,0.02337677
2999.29546509,0.02325323
3001.22427246,0.02320548
3003.15307983,0.02322545
3005.08188721,0.02313986
3007.01069458,0.02312832
3008.93950195,0.02297818
3010.86830933,0.02300879
3012.79711670,0.02293038
3014.72592407,0.02272475
3016.65473145,0.02280320
3018.58353882,0.02286915
3020.51234619,0.02284786
3022.44115356,0.02271849
3024.36996094,0.02254934
3026.29876831,0.02251690
3028.22757568,0.02261223
3030.15638306,0.02239543
3032.08519043,0.02233913
3034.01399780,0.02243729
3035.94280518,0.02226023
3037.87161255,0.02226865
3039.80041992,0.02213998
3041.72922729,0.02216271
3043.65803467,0.02212992
3045.58684204,0.02193798
3047.51564941,0.02206960
3049.44445679,0.02199554
3051.37326416,0.02194107
3053.30207153,0.02189758
3055.23087891,0.02180185
3057.15968628,0.02181114
3059.08849365,0.02185538
3061.01730103,0.02182502
3062.94610840,0.02162848
3064.87491577,0.02159092
3066.80372314,0.02157979
3068.73253052,0.02152353
3070.66133789,0.02154300
3072.59014526,0.02159310
3074.51895264,0.02147355
3076.44776001,0.02141163
3078.37656738,0.02144012
3080.30537476,0.02126470
3082.23418213,0.02120978
3084.16298950,0.02116001
3086.09179687,0.02119128
3088.02060425,0.02114861
3089.94941162,0.02102412
3091.87821899,0.02107535
3093.80702637,0.02095935
3095.73583374,0.02090414
3097.66464111,0.02088487
3099.59344849,0.02081565
3101.52225586,0.02077095
3103.45106323,0.02081558
3105.37987061,0.02073434
3107.30867798,0.02058054
3109.23748535,0.02066329
3111.16629272,0.02049955
3113.09510010,0.02044427
3115.02390747,0.02048202
3116.95271484,0.02034488
3118.88152222,0.02026403
3120.81032959,0.02017295
3122.73913696,0.02016646
3124.66794434,0.02008515
3126.59675171,0.02008417
3128.52555908,0.02006639
3130.45436645,0.02002150
3132.38317383,0.02001749
3134.31198120,0.01984287
3136.24078857,0.01981356
3138.16959595,0.01992142
3140.09840332,0.01981805
3142.02721069,0.01959718
3143.95601807,0.01965639
3145.88482544,0.01957377
3147.81363281,0.01946323
3149.74244019,0.01950492
3151.67124756,0.01934878
3153.60005493,0.01936558
3155.52886230,0.01929213
3157.45766968,0.01919825
3159.38647705,0.01916130
3161.31528442,0.01913475
3163.24409180,0.01911135
3165.17289917,0.01892432
3167.10170654,0.01898754
3169.03051392,0.01890149
3170.95932129,0.01876966
3172.88812866,0.01884430
3174.81693604,0.01887839
3176.74574341,0.01876492
3178.67455078,0.01856967
3180.60335815,0.01866313
3182.53216553,0.01858750
3184.46097290,0.01844889
3186.38978027,0.01841774
3188.31858765,0.01836355
3190.24739502,0.01838228
3192.17620239,0.01823129
3194.10500977,0.01820702
3196.03381714,0.01829531
3197.96262451,0.01818661
3199.89143188,0.01813353
3201.82023926,0.01820550
3203.74904663,0.01802989
3205.67785400,0.01792907
3207.60666138,0.01798911
3209.53546875,0.01791664
3211.46427612,0.01788718
3213.39308350,0.01773427
3215.32189087,0.01772459
3217.25069824,0.01773543
3219.17950562,0.01769439
3221.10831299,0.01767885
3223.03712036,0.01755204
3224.96592773,0.01763526
3226.89473511,0.01760545
3228.82354248,0.01755586
3230.75234985,0.01747851
3232.68115723,0.01743488
3234.60996460,0.01748642
3236.53877197,0.01735476
3238.46757935,0.01731173
3240.39638672,0.01725487
3242.32519409,0.01734861
3244.25400146,0.01728104
3246.18280884,0.01717618
3248.11161621,0.01725776
3250.04042358,0.01717990
3251.96923096,0.01722378
3253.89803833,0.01711208
3255.82684570,0.01706347
3257.75565308,0.01707369
3259.68446045,0.01703899
3261.61326782,0.01708768
3263.54207520,0.01707940
3265.47088257,0.01703950
3267.39968994,0.01687688
3269.32849731,0.01693235
3271.25730469,0.01683425
3273.18611206,0.01686577
3275.11491943,0.01697740
3277.04372681,0.01679056
3278.97253418,0.01686913
3280.90134155,0.01677421
3282.83014893,0.01683927
3284.75895630,0.01685747
3286.68776367,0.01679682
3288.61657104,0.01688715
3290.54537842,0.01662298
3292.47418579,0.01669713
3294.40299316,0.01671444
3296.33180054,0.01658826
3298.26060791,0.01664598
3300.18941528,0.01663669
3302.11822266,0.01664956
3304.04703003,0.01647967
3305.97583740,0.01642196
3307.90464478,0.01650327
3309.83345215,0.01647837
3311.76225952,0.01639557
3313.69106689,0.01647002
3315.61987427,0.01652887
3317.54868164,0.01640753
3319.47748901,0.01635731
3321.40629639,0.01626457
3323.33510376,0.01628432
3325.26391113,0.01633680
3327.19271851,0.01634264
3329.12152588,0.01629267
3331.05033325,0.01619807
3332.97914062,0.01620335
3334.90794800,0.01614105
3336.83675537,0.01614094
3338.76556274,0.01608516
3340.69437012,0.01613495
3342.62317749,0.01622078
3344.55198486,0.01603755
3346.48079224,0.01601071
3348.40959961,0.01601215
3350.33840698,0.01594010
3352.26721436,0.01592806
3354.19602173,0.01585882
3356.12482910,0.01578289
3358.05363647,0.01580648
3359.98244385,0.01581013
3361.91125122,0.01569342
3363.84005859,0.01562091
3365.76886597,0.01564053
3367.69767334,0.01560304
3369.62648071,0.01557227
3371.55528809,0.01562770
3373.48409546,0.01551157
3375.41290283,0.01547519
3377.34171020,0.01551592
3379.27051758,0.01545245
3381.19932495,0.01545513
3383.12813232,0.01532293
3385.05693970,0.01536180
3386.98574707,0.01542620
3388.91455444,0.01529879
3390.84336182,0.01526745
3392.77216919,0.01526359
3394.70097656,0.01527737
3396.62978394,0.01513286
3398.55859131,0.01504213
3400.48739868,0.01506005
3402.41620605,0.01504040
3404.34501343,0.01506749
3406.27382080,0.01507147
3408.20262817,0.01505499
3410.13143555,0.01504759
3412.06024292,0.01507022
3413.98905029,0.01498153
3415.91785767,0.01500864
3417.84666504,0.01497497
3419.77547241,0.01478184
3421.70427979,0.01480527
3423.63308716,0.01481349
3425.56189453,0.01479590
3427.49070190,0.01471559
3429.41950928,0.01466437
3431.34831665,0.01463199
3433.27712402,0.01458025
3435.20593140,0.01462067
3437.13473877,0.01461163
3439.06354614,0.01459600
3440.99235352,0.01446727
3442.92116089,0.01446249
3444.84996826,0.01437904
3446.77877563,0.01425176
3448.70758301,0.01438049
3450.63639038,0.01433028
3452.56519775,0.01436887
3454.49400513,0.01439190
3456.42281250,0.01429127
3458.35161987,0.01433434
3460.28042725,0.01430760
3462.20923462,0.01419925
3464.13804199,0.01421236
3466.06684937,0.01420739
3467.99565674,0.01409386
3469.92446411,0.01420462
3471.85327148,0.01422474
3473.78207886,0.01418388
3475.71088623,0.01415191
3477.63969360,0.01406058
3479.56850098,0.01412091
3481.49730835,0.01397991
3483.42611572,0.01400507
3485.35492310,0.01405152
3487.28373047,0.01387259
3489.21253784,0.01390755
3491.14134521,0.01394145
3493.07015259,0.01396100
3494.99895996,0.01395031
3496.92776733,0.01393066
3498.85657471,0.01400024
3500.78538208,0.01388670
3502.71418945,0.01358263
3504.64299683,0.01364850
3506.57180420,0.01385496
3508.50061157,0.01375339
3510.42941895,0.01371373
3512.35822632,0.01375276
3514.28703369,0.01390283
3516.21584106,0.01392394
3518.14464844,0.01382335
3520.07345581,0.01381935
3522.00226318,0.01363467
3523.93107056,0.01349872
3525.85987793,0.01358452
3527.78868530,0.01363122
3529.71749268,0.01353056
3531.64630005,0.01375588
3533.57510742,0.01389663
3535.50391479,0.01361162
3537.43272217,0.01367313
3539.36152954,0.01382909
3541.29033691,0.01374991
3543.21914429,0.01366283
3545.14795166,0.01345225
3547.07675903,0.01323294
3549.00556641,0.01363016
3550.93437378,0.01374767
3552.86318115,0.01332081
3554.79198853,0.01356354
3556.72079590,0.01372142
3558.64960327,0.01361566
3560.57841064,0.01345290
3562.50721802,0.01336730
3564.43602539,0.01338496
3566.36483276,0.01256609
3568.29364014,0.01231039
3570.22244751,0.01327232
3572.15125488,0.01363312
3574.08006226,0.01342284
3576.00886963,0.01349434
3577.93767700,0.01344038
3579.86648437,0.01340187
3581.79529175,0.01341537
3583.72409912,0.01347426
3585.65290649,0.01314474
3587.58171387,0.01209508
3589.51052124,0.01254847
3591.43932861,0.01350067
3593.36813599,0.01322216
3595.29694336,0.01297354
3597.22575073,0.01311654
3599.15455811,0.01328414
3601.08336548,0.01296970
3603.01217285,0.01322960
3604.94098022,0.01360773
3606.86978760,0.01301782
3608.79859497,0.01224084
3610.72740234,0.01255618
3612.65620972,0.01280710
3614.58501709,0.01234945
3616.51382446,0.01329187
3618.44263184,0.01235168
3620.37143921,0.01198681
3622.30024658,0.01341918
3624.22905395,0.01304502
3626.15786133,0.01364272
3628.08666870,0.01151566
3630.01547607,0.01069239
3631.94428345,0.01327228
3633.87309082,0.01283084
3635.80189819,0.01315653
3637.73070557,0.01336834
3639.65951294,0.01323920
3641.58832031,0.01334270
3643.51712769,0.01314077
3645.44593506,0.01323706
3647.37474243,0.01175047
3649.30354980,0.01085550
3651.23235718,0.01111772
3653.16116455,0.01311187
3655.08997192,0.01291234
3657.01877930,0.01168542
3658.94758667,0.01341334
3660.87639404,0.01305711
3662.80520142,0.01322421
3664.73400879,0.01314587
3666.66281616,0.01304029
3668.59162354,0.01255579
3670.52043091,0.01030205
3672.44923828,0.01262026
3674.37804565,0.01186969
3676.30685303,0.00993240
3678.23566040,0.01246857
3680.16446777,0.01260666
3682.09327515,0.01269716
3684.02208252,0.01301668
3685.95088989,0.01281462
3687.87969727,0.01153621
3689.80850464,0.01066505
3691.73731201,0.01218634
3693.66611938,0.01246263
3695.59492676,0.01284471
3697.52373413,0.01269879
3699.45254150,0.01256376
3701.38134888,0.01232148
3703.31015625,0.01189857
3705.23896362,0.01308247
3707.16777100,0.01234559
3709.09657837,0.01213004
3711.02538574,0.01135286
3712.95419312,0.01073944
3714.88300049,0.01256472
3716.81180786,0.01225895
3718.74061523,0.01248051
3720.66942261,0.01206002
3722.59822998,0.01167741
3724.52703735,0.01217142
3726.45584473,0.01127652
3728.38465210,0.01216003
3730.31345947,0.01187769
3732.24226685,0.01110788
3734.17107422,0.01089478
3736.09988159,0.01028302
3738.02868896,0.01091103
3739.95749634,0.01190519
3741.88630371,0.01234083
3743.81511108,0.00947748
3745.74391846,0.00915696
3747.67272583,0.01171836
3749.60153320,0.01008053
3751.53034058,0.00941909
3753.45914795,0.01067445
3755.38795532,0.01150418
3757.31676270,0.01193243
3759.24557007,0.01101022
3761.17437744,0.01145390
3763.10318481,0.01214171
3765.03199219,0.01133377
3766.96079956,0.01165167
3768.88960693,0.01146241
3770.81841431,0.01089084
3772.74722168,0.01180937
3774.67602905,0.01169440
3776.60483643,0.01171575
3778.53364380,0.01150313
3780.46245117,0.01105600
3782.39125854,0.01182698
3784.32006592,0.01158071
3786.24887329,0.01149847
3788.17768066,0.01170866
3790.10648804,0.01157709
3792.03529541,0.01151582
3793.96410278,0.01166628
3795.89291016,0.01094569
3797.82171753,0.01096657
3799.75052490,0.01145521
3801.67933228,0.00911001
3803.60813965,0.01071694
3805.53694702,0.01146531
3807.46575439,0.00949677
3809.39456177,0.01134684
3811.32336914,0.01110687
3813.25217651,0.01159268
3815.18098389,0.01032823
3817.10979126,0.00926922
3819.03859863,0.01155017
3820.96740601,0.00932894
3822.89621338,0.00990028
3824.82502075,0.01136113
3826.75382812,0.01043434
3828.68263550,0.01105895
3830.61144287,0.01060868
3832.54025024,0.01046546
3834.46905762,0.01049816
3836.39786499,0.00994949
3838.32667236,0.00906341
3840.25547974,0.00989608
3842.18428711,0.01058500
3844.11309448,0.01007266
3846.04190186,0.01101096
3847.97070923,0.01078375
3849.89951660,0.01084710
3851.82832397,0.00968226
3853.75713135,0.00728019
3855.68593872,0.00876332
3857.61474609,0.01073194
3859.54355347,0.01041815
3861.47236084,0.01035372
3863.40116821,0.01013829
3865.32997559,0.00952990
3867.25878296,0.01054851
3869.18759033,0.00960500
3871.11639770,0.00895395
3873.04520508,0.01049451
3874.97401245,0.00971763
3876.90281982,0.01054061
3878.83162720,0.01049027
3880.76043457,0.00918044
3882.68924194,0.01068011
3884.61804932,0.00981566
3886.54685669,0.00910840
3888.47566406,0.01050050
3890.40447144,0.00992535
3892.33327881,0.00945393
3894.26208618,0.01024856
3896.19089355,0.01044086
3898.11970093,0.00990805
3900.04850830,0.00938307
3901.97731567,0.00930822
3903.90612305,0.00906862
3905.83493042,0.00924771
3907.76373779,0.01029740
3909.69254517,0.01021471
3911.62135254,0.00996771
3913.55015991,0.01014561
3915.47896728,0.00982839
3917.40777466,0.00964367
3919.33658203,0.00960820
3921.26538940,0.00997952
3923.19419678,0.00986289
3925.12300415,0.00960899
3927.05181152,0.00988385
3928.98061890,0.00990136
3930.90942627,0.00971530
3932.83823364,0.00940590
3934.76704102,0.00966345
3936.69584839,0.00982342
3938.62465576,0.00979607
3940.55346313,0.00984608
3942.48227051,0.00942942
3944.41107788,0.00952891
3946.33988525,0.00969375
3948.26869263,0.00950241
3950.19750000,0.00948001
3952.12630737,0.00952559
3954.05511475,0.00963336
3955.98392212,0.00959206
3957.91272949,0.00953443
3959.84153687,0.00956245
3961.77034424,0.00942996
3963.69915161,0.00946035
3965.62795898,0.00962536
3967.55676636,0.00946928
3969.48557373,0.00939970
3971.41438110,0.00945320
3973.34318848,0.00940065
3975.27199585,0.00935649
3977.20080322,0.00934983
3979.12961060,0.00932483
3981.05841797,0.00928037
3982.98722534,0.00936934
3984.91603271,0.00926329
3986.84484009,0.00924052
3988.77364746,0.00930040
3990.70245483,0.00921239
3992.63126221,0.00925870
3994.56006958,0.00915351
3996.48887695,0.00912179
3998.41768433,0.00918371
4000.34649170,0.00915246
4002.27529907,0.00907450
4004.20410645,0.00910612
4006.13291382,0.00912506
4008.06172119,0.00900258
4009.99052856,0.00907914
4011.91933594,0.00897049
4013.84814331,0.00890007
4015.77695068,0.00892306
4017.70575806,0.00891162
4019.63456543,0.00894280
4021.56337280,0.00886712
4023.49218018,0.00897107
4025.42098755,0.00889842
4027.34979492,0.00884185
4029.27860229,0.00881873
4031.20740967,0.00879355
4033.13621704,0.00885661
4035.06502441,0.00875956
4036.99383179,0.00886228
4038.92263916,0.00878303
4040.85144653,0.00871058
4042.78025391,0.00874903
4044.70906128,0.00864099
4046.63786865,0.00861613
4048.56667603,0.00858794
4050.49548340,0.00862180
4052.42429077,0.00861325
4054.35309814,0.00865068
4056.28190552,0.00858427
4058.21071289,0.00853276
4060.13952026,0.00855617
4062.06832764,0.00847713
4063.99713501,0.00852848
4065.92594238,0.00850335
4067.85474976,0.00846521
4069.78355713,0.00845621
4071.71236450,0.00848087
4073.64117187,0.00840450
4075.56997925,0.00837305
4077.49878662,0.00842391
4079.42759399,0.00831555
4081.35640137,0.00839801
4083.28520874,0.00834186
4085.21401611,0.00824817
4087.14282349,0.00823066
4089.07163086,0.00823299
4091.00043823,0.00827297
4092.92924561,0.00813334
4094.85805298,0.00814505
4096.78686035,0.00815570
4098.71566772,0.00815452
4100.64447510,0.00807337
4102.57328247,0.00810128
4104.50208984,0.00814911
4106.43089722,0.00795776
4108.35970459,0.00801090
4110.28851196,0.00798235
4112.21731934,0.00801895
4114.14612671,0.00803065
4116.07493408,0.00796344
4118.00374145,0.00800635
4119.93254883,0.00788257
4121.86135620,0.00793160
4123.79016357,0.00792348
4125.71897095,0.00786460
4127.64777832,0.00786067
4129.57658569,0.00788296
4131.50539307,0.00789300
4133.43420044,0.00778629
4135.36300781,0.00782966
4137.29181519,0.00778341
4139.22062256,0.00775242
4141.14942993,0.00777614
4143.07823730,0.00776094
4145.00704468,0.00769685
4146.93585205,0.00763068
4148.86465942,0.00772100
4150.79346680,0.00765611
4152.72227417,0.00761709
4154.65108154,0.00762629
4156.57988892,0.00753934
4158.50869629,0.00754505
4160.43750366,0.00760353
4162.36631103,0.00752374
4164.29511841,0.00742464
4166.22392578,0.00749689
4168.15273315,0.00747655
4170.08154053,0.00746560
4172.01034790,0.00748702
4173.93915527,0.00740091
4175.86796265,0.00733856
4177.79677002,0.00739568
4179.72557739,0.00738360
4181.65438477,0.00732752
4183.58319214,0.00744955
4185.51199951,0.00737563
4187.44080688,0.00735417
4189.36961426,0.00735764
4191.29842163,0.00723160
4193.22722900,0.00732184
4195.15603638,0.00723560
4197.08484375,0.00712078
4199.01365112,0.00719326
4200.94245850,0.00723682
4202.87126587,0.00718706
4204.80007324,0.00712367
4206.72888062,0.00711604
4208.65768799,0.00710942
4210.58649536,0.00710205
4212.51530273,0.00704243
4214.44411011,0.00711764
4216.37291748,0.00714928
4218.30172485,0.00705799
4220.23053223,0.00701307
4222.15933960,0.00700613
4224.08814697,0.00703674
4226.01695435,0.00696982
4227.94576172,0.00688971
4229.87456909,0.00682227
4231.80337646,0.00693247
4233.73218384,0.00698726
4235.66099121,0.00686884
4237.58979858,0.00687927
4239.51860596,0.00685183
4241.44741333,0.00679368
4243.37622070,0.00668315
4245.30502808,0.00675383
4247.23383545,0.00683089
4249.16264282,0.00677830
4251.09145020,0.00684781
4253.02025757,0.00674303
4254.94906494,0.00670055
4256.87787231,0.00675272
4258.80667969,0.00675201
4260.73548706,0.00671140
4262.66429443,0.00663518
4264.59310181,0.00662544
4266.52190918,0.00657270
4268.45071655,0.00657337
4270.37952393,0.00655875
4272.30833130,0.00657653
4274.23713867,0.00660339
4276.16594604,0.00654441
4278.09475342,0.00650493
4280.02356079,0.00644708
4281.95236816,0.00647549
4283.88117554,0.00650472
4285.80998291,0.00642421
4287.73879028,0.00640003
4289.66759766,0.00650152
4291.59640503,0.00646695
4293.52521240,0.00639907
4295.45401978,0.00639975
4297.38282715,0.00635732
4299.31163452,0.00643485
4301.24044189,0.00639498
4303.16924927,0.00634872
4305.09805664,0.00635516
4307.02686401,0.00631990
4308.95567139,0.00635117
4310.88447876,0.00620566
4312.81328613,0.00617991
4314.74209351,0.00626440
4316.67090088,0.00614375
4318.59970825,0.00615286
4320.52851562,0.00625778
4322.45732300,0.00618885
4324.38613037,0.00619877
4326.31493774,0.00616752
4328.24374512,0.00603562
4330.17255249,0.00615399
4332.10135986,0.00613511
4334.03016724,0.00608155
4335.95897461,0.00610774
4337.88778198,0.00601635
4339.81658936,0.00606792
4341.74539673,0.00599626
4343.67420410,0.00593078
4345.60301147,0.00599410
4347.53181885,0.00595551
4349.46062622,0.00597151
4351.38943359,0.00595053
4353.31824097,0.00591201
4355.24704834,0.00594458
4357.17585571,0.00593508
4359.10466309,0.00594523
4361.03347046,0.00590788
4362.96227783,0.00582740
4364.89108520,0.00587112
4366.81989258,0.00586992
4368.74869995,0.00588015
4370.67750732,0.00584042
4372.60631470,0.00576158
4374.53512207,0.00582629
4376.46392944,0.00575640
4378.39273682,0.00573598
4380.32154419,0.00573209
4382.25035156,0.00572101
4384.17915894,0.00571156
4386.10796631,0.00560548
4388.03677368,0.00571346
4389.96558105,0.00572700
4391.89438843,0.00570094
4393.82319580,0.00563702
4395.75200317,0.00556746
4397.68081055,0.00564748
4399.60961792,0.00556356
4401.53842529,0.00563681
4403.46723267,0.00563879
4405.39604004,0.00553910
4407.32484741,0.00555409
4409.25365478,0.00546980
4411.18246216,0.00547253
4413.11126953,0.00547927
4415.04007690,0.00549053
4416.96888428,0.00547975
4418.89769165,0.00543198
4420.82649902,0.00542936
4422.75530640,0.00539614
4424.68411377,0.00534390
4426.61292114,0.00542565
4428.54172852,0.00552966
4430.47053589,0.00534426
4432.39934326,0.00532440
4434.32815063,0.00541746
4436.25695801,0.00538206
4438.18576538,0.00541954
4440.11457275,0.00530287
4442.04338013,0.00531410
4443.97218750,0.00540679
4445.90099487,0.00527458
4447.82980225,0.00525606
4449.75860962,0.00527960
4451.68741699,0.00524351
4453.61622437,0.00529340
4455.54503174,0.00526371
4457.47383911,0.00520242
4459.40264648,0.00519053
4461.33145386,0.00513192
4463.26026123,0.00512892
4465.18906860,0.00510729
4467.11787598,0.00513228
4469.04668335,0.00519234
4470.97549072,0.00512305
4472.90429810,0.00507839
4474.83310547,0.00503245
4476.76191284,0.00499152
4478.69072021,0.00503163
4480.61952759,0.00508468
4482.54833496,0.00509399
4484.47714233,0.00504855
4486.40594971,0.00500532
4488.33475708,0.00501615
4490.26356445,0.00499708
4492.19237183,0.00500599
4494.12117920,0.00503815
4496.04998657,0.00492912
4497.97879395,0.00491815
4499.90760132,0.00491116
4501.83640869,0.00491060
4503.76521606,0.00489469
4505.69402344,0.00477015
4507.62283081,0.00491351
4509.55163818,0.00492492
4511.48044556,0.00486871
4513.40925293,0.00489771
4515.33806030,0.00483374
4517.26686768,0.00484789
4519.19567505,0.00477070
4521.12448242,0.00480660
4523.05328979,0.00478996
4524.98209717,0.00474105
4526.91090454,0.00477736
4528.83971191,0.00470063
4530.76851929,0.00475174
4532.69732666,0.00471658
4534.62613403,0.00466613
4536.55494141,0.00468391
4538.48374878,0.00464803
4540.41255615,0.00464575
4542.34136353,0.00466463
4544.27017090,0.00464919
4546.19897827,0.00459947
4548.12778564,0.00466607
4550.05659302,0.00461400
4551.98540039,0.00452732
4553.91420776,0.00455093
4555.84301514,0.00460507
4557.77182251,0.00465464
4559.70062988,0.00458685
4561.62943726,0.00453170
4563.55824463,0.00440497
4565.48705200,0.00442551
4567.41585937,0.00456069
4569.34466675,0.00455339
4571.27347412,0.00455887
4573.20228149,0.00451749
4575.13108887,0.00446811
4577.05989624,0.00442992
4578.98870361,0.00444094
4580.91751099,0.00443320
4582.84631836,0.00439709
4584.77512573,0.00438661
4586.70393311,0.00438668
4588.63274048,0.00442382
4590.56154785,0.00435595
4592.49035522,0.00430417
4594.41916260,0.00428531
4596.34796997,0.00432963
4598.27677734,0.00435439
4600.20558472,0.00428956
4602.13439209,0.00431470
4604.06319946,0.00429783
4605.99200684,0.00428519
4607.92081421,0.00424287
4609.84962158,0.00421997
4611.77842895,0.00424409
4613.70723633,0.00420525
4615.63604370,0.00419102
4617.56485107,0.00418686
4619.49365845,0.00421031
4621.42246582,0.00418034
4623.35127319,0.00415476
4625.28008057,0.00412162
4627.20888794,0.00411769
4629.13769531,0.00413398
4631.06650269,0.00404453
4632.99531006,0.00407991
4634.92411743,0.00415725
4636.85292480,0.00413071
4638.78173218,0.00402945
4640.71053955,0.00401356
4642.63934692,0.00404012
4644.56815430,0.00405935
4646.49696167,0.00410582
4648.42576904,0.00398573
4650.35457642,0.00401608
4652.28338379,0.00410232
4654.21219116,0.00406372
4656.14099853,0.00402165
4658.06980591,0.00398393
4659.99861328,0.00406320
4661.92742065,0.00394867
4663.85622803,0.00383555
4665.78503540,0.00393216
4667.71384277,0.00398568
4669.64265015,0.00395991
4671.57145752,0.00387112
4673.50026489,0.00393265
4675.42907227,0.00397980
4677.35787964,0.00384010
4679.28668701,0.00377487
4681.21549438,0.00378853
4683.14430176,0.00379198
4685.07310913,0.00384213
4687.00191650,0.00385119
4688.93072388,0.00381466
4690.85953125,0.00377172
4692.78833862,0.00374367
4694.71714600,0.00381690
4696.64595337,0.00379452
4698.57476074,0.00379668
4700.50356812,0.00385305
4702.43237549,0.00376899
4704.36118286,0.00372908
4706.28999023,0.00370473
4708.21879761,0.00370804
4710.14760498,0.00370039
4712.07641235,0.00363275
4714.00521973,0.00363768
4715.93402710,0.00363443
4717.86283447,0.00361320
4719.79164185,0.00362415
4721.72044922,0.00365840
4723.64925659,0.00370152
4725.57806396,0.00363255
4727.50687134,0.00358729
4729.43567871,0.00371490
4731.36448608,0.00362644
4733.29329346,0.00351168
4735.22210083,0.00359902
4737.15090820,0.00361148
4739.07971558,0.00362872
4741.00852295,0.00352628
4742.93733032,0.00351857
4744.86613770,0.00356635
4746.79494507,0.00347128
4748.72375244,0.00353304
4750.65255981,0.00348808
4752.58136719,0.00345249
4754.51017456,0.00348757
4756.43898193,0.00344147
4758.36778931,0.00349037
4760.29659668,0.00346481
4762.22540405,0.00343160
4764.15421143,0.00346524
4766.08301880,0.00346559
4768.01182617,0.00346706
4769.94063354,0.00344050
4771.86944092,0.00342441
4773.79824829,0.00342917
4775.72705566,0.00338822
4777.65586304,0.00341688
4779.58467041,0.00341975
4781.51347778,0.00335531
4783.44228516,0.00341565
4785.37109253,0.00335613
4787.29989990,0.00327648
4789.22870728,0.00332477
4791.15751465,0.00329058
4793.08632202,0.00326669
4795.01512939,0.00328766
4796.94393677,0.00326699
4798.87274414,0.00323680
4800.80155151,0.00324949
4802.73035889,0.00323306
4804.65916626,0.00330901
4806.58797363,0.00329977
4808.51678101,0.00322153
4810.44558838,0.00328722
4812.37439575,0.00316347
4814.30320312,0.00316914
4816.23201050,0.00324144
4818.16081787,0.00319705
4820.08962524,0.00323801
4822.01843262,0.00320142
4823.94723999,0.00317876
4825.87604736,0.00314740
4827.80485474,0.00322414
4829.73366211,0.00316554
4831.66246948,0.00305676
4833.59127686,0.00312180
4835.52008423,0.00306351
4837.44889160,0.00316998
4839.37769897,0.00314277
4841.30650635,0.00308858
4843.23531372,0.00320249
4845.16412109,0.00312054
4847.09292847,0.00308231
4849.02173584,0.00300242
4850.95054321,0.00295647
4852.87935059,0.00302895
4854.80815796,0.00306887
4856.73696533,0.00305222
4858.66577270,0.00301814
4860.59458008,0.00298955
4862.52338745,0.00291876
4864.45219482,0.00299306
4866.38100220,0.00304306
4868.30980957,0.00302437
4870.23861694,0.00303406
4872.16742432,0.00296966
4874.09623169,0.00290243
4876.02503906,0.00286852
4877.95384644,0.00290455
4879.88265381,0.00294789
4881.81146118,0.00296229
4883.74026855,0.00291602
4885.66907593,0.00291152
4887.59788330,0.00292769
4889.52669067,0.00285918
4891.45549805,0.00287610
4893.38430542,0.00289630
4895.31311279,0.00290671
4897.24192017,0.00288395
4899.17072754,0.00286380
4901.09953491,0.00292024
4903.02834228,0.00289285
4904.95714966,0.00291163
4906.88595703,0.00293828
4908.81476440,0.00285571
4910.74357178,0.00284676
4912.67237915,0.00286506
4914.60118652,0.00280098
4916.52999390,0.00281028
4918.45880127,0.00280099
4920.38760864,0.00274758
4922.31641602,0.00281619
4924.24522339,0.00275221
4926.17403076,0.00269445
4928.10283813,0.00276842
4930.03164551,0.00275282
4931.96045288,0.00278765
4933.88926025,0.00273819
4935.81806763,0.00267251
4937.74687500,0.00275217
4939.67568237,0.00269150
4941.60448975,0.00268680
4943.53329712,0.00274790
4945.46210449,0.00265496
4947.39091187,0.00267134
4949.31971924,0.00269181
4951.24852661,0.00260722
4953.17733398,0.00258117
4955.10614136,0.00258135
4957.03494873,0.00261294
4958.96375610,0.00265793
4960.89256348,0.00265042
4962.82137085,0.00255709
4964.75017822,0.00255924
4966.67898560,0.00267588
4968.60779297,0.00266862
4970.53660034,0.00258926
4972.46540771,0.00255774
4974.39421509,0.00259876
4976.32302246,0.00259363
4978.25182983,0.00253830
4980.18063721,0.00256779
4982.10944458,0.00260626
4984.03825195,0.00256871
4985.96705933,0.00254951
4987.89586670,0.00255387
4989.82467407,0.00248671
4991.75348145,0.00248135
4993.68228882,0.00252909
4995.61109619,0.00254985
4997.53990356,0.00251390
4999.46871094,0.00245817
5001.39751831,0.00245579
5003.32632568,0.00246968
5005.25513306,0.00252960
5007.18394043,0.00243071
5009.11274780,0.00241136
5011.04155518,0.00248377
5012.97036255,0.00240434
5014.89916992,0.00249068
5016.82797729,0.00247534
5018.75678467,0.00244305
5020.68559204,0.00248334
5022.61439941,0.00243234
5024.54320679,0.00245209
5026.47201416,0.00236579
5028.40082153,0.00238966
5030.32962891,0.00244249
5032.25843628,0.00234731
5034.18724365,0.00232327
5036.11605103,0.00232762
5038.04485840,0.00237410
5039.97366577,0.00235247
5041.90247314,0.00224898
5043.83128052,0.00225662
5045.76008789,0.00234652
5047.68889526,0.00233452
5049.61770264,0.00232380
5051.54651001,0.00234325
5053.47531738,0.00233927
5055.40412476,0.00232619
5057.33293213,0.00222371
5059.26173950,0.00228347
5061.19054687,0.00226945
5063.11935425,0.00215240
5065.04816162,0.00227132
5066.97696899,0.00225395
5068.90577637,0.00219566
5070.83458374,0.00225860
5072.76339111,0.00222929
5074.69219849,0.00218720
5076.62100586,0.00220594
5078.54981323,0.00222501
5080.47862061,0.00221687
5082.40742798,0.00219232
5084.33623535,0.00218043
5086.26504272,0.00219520
5088.19385010,0.00216899
5090.12265747,0.00218751
5092.05146484,0.00223549
5093.98027222,0.00219604
5095.90907959,0.00215951
5097.83788696,0.00218079
5099.76669434,0.00216210
5101.69550171,0.00215589
5103.62430908,0.00223236
5105.55311645,0.00215972
5107.48192383,0.00211744
5109.41073120,0.00217135
5111.33953857,0.00211889
5113.26834595,0.00210451
5115.19715332,0.00210274
5117.12596069,0.00213026
5119.05476807,0.00212637
5120.98357544,0.00211650
5122.91238281,0.00213453
5124.84119019,0.00209630
5126.76999756,0.00213656
5128.69880493,0.00214017
5130.62761230,0.00209667
5132.55641968,0.00206120
5134.48522705,0.00201759
5136.41403442,0.00203504
5138.34284180,0.00205397
5140.27164917,0.00200282
5142.20045654,0.00202388
5144.12926392,0.00212057
5146.05807129,0.00202680
5147.98687866,0.00197643
5149.91568603,0.00204184
5151.84449341,0.00205666
5153.77330078,0.00203118
5155.70210815,0.00195797
5157.63091553,0.00198278
5159.55972290,0.00199436
5161.48853027,0.00199155
5163.41733765,0.00195782
5165.34614502,0.00193236
5167.27495239,0.00194546
5169.20375977,0.00185407
5171.13256714,0.00194037
5173.06137451,0.00198245
5174.99018188,0.00188038
5176.91898926,0.00191737
5178.84779663,0.00194421
5180.77660400,0.00195203
5182.70541138,0.00196236
5184.63421875,0.00192330
5186.56302612,0.00183561
5188.49183350,0.00183857
5190.42064087,0.00185902
5192.34944824,0.00185385
5194.27825562,0.00189191
5196.20706299,0.00179027
5198.13587036,0.00181513
5200.06467773,0.00193247
5201.99348511,0.00186133
5203.92229248,0.00181459
5205.85109985,0.00178374
5207.77990723,0.00178687
5209.70871460,0.00181887
5211.63752197,0.00183386
5213.56632935,0.00187740
5215.49513672,0.00181505
5217.42394409,0.00181366
5219.35275146,0.00182697
5221.28155884,0.00178371
5223.21036621,0.00187674
5225.13917358,0.00180121
5227.06798096,0.00174747
5228.99678833,0.00183064
5230.92559570,0.00179392
5232.85440308,0.00181388
5234.78321045,0.00176424
5236.71201782,0.00176119
5238.64082520,0.00176496
5240.56963257,0.00174821
5242.49843994,0.00183396
5244.42724731,0.00170997
5246.35605469,0.00171096
5248.28486206,0.00173152
5250.21366943,0.00166338
5252.14247681,0.00175815
5254.07128418,0.00169367
5256.00009155,0.00173694
5257.92889893,0.00178640
5259.85770630,0.00166785
5261.78651367,0.00168202
5263.71532104,0.00163484
5265.64412842,0.00166099
5267.57293579,0.00171102
5269.50174316,0.00162975
5271.43055054,0.00167177
5273.35935791,0.00166982
5275.28816528,0.00164899
5277.21697266,0.00169371
5279.14578003,0.00167171
5281.07458740,0.00169414
5283.00339478,0.00167193
5284.93220215,0.00166447
5286.86100952,0.00171231
5288.78981689,0.00167631
5290.71862427,0.00162727
5292.64743164,0.00157698
5294.57623901,0.00161009
5296.50504639,0.00160783
5298.43385376,0.00158378
5300.36266113,0.00162501
5302.29146851,0.00164698
5304.22027588,0.00172704
5306.14908325,0.00161629
5308.07789062,0.00153754
5310.00669800,0.00162790
5311.93550537,0.00154931
5313.86431274,0.00157229
5315.79312012,0.00159966
5317.72192749,0.00155370
5319.65073486,0.00164942
5321.57954224,0.00165414
5323.50834961,0.00159300
5325.43715698,0.00157831
5327.36596436,0.00153770
5329.29477173,0.00156381
5331.22357910,0.00156060
5333.15238647,0.00149251
5335.08119385,0.00158361
5337.01000122,0.00155148
5338.93880859,0.00139462
5340.86761597,0.00152559
5342.79642334,0.00154561
5344.72523071,0.00139139
5346.65403809,0.00143442
5348.58284546,0.00146047
5350.51165283,0.00151875
5352.44046020,0.00157784
5354.36926758,0.00151316
5356.29807495,0.00153045
5358.22688232,0.00146817
5360.15568970,0.00142094
5362.08449707,0.00143322
5364.01330444,0.00137528
5365.94211182,0.00144953
5367.87091919,0.00152477
5369.79972656,0.00149915
5371.72853394,0.00140337
5373.65734131,0.00141619
5375.58614868,0.00143604
5377.51495605,0.00134196
5379.44376343,0.00144930
5381.37257080,0.00150054
5383.30137817,0.00149459
5385.23018555,0.00144984
5387.15899292,0.00134404
5389.08780029,0.00141444
5391.01660767,0.00140106
5392.94541504,0.00136678
5394.87422241,0.00137738
5396.80302978,0.00141378
5398.73183716,0.00141916
5400.66064453,0.00143090
5402.58945190,0.00148852
5404.51825928,0.00135411
5406.44706665,0.00139482
5408.37587402,0.00143464
5410.30468140,0.00134507
5412.23348877,0.00138778
5414.16229614,0.00135312
5416.09110352,0.00138082
5418.01991089,0.00139400
5419.94871826,0.00141334
5421.87752563,0.00140593
5423.80633301,0.00131225
5425.73514038,0.00139349
5427.66394775,0.00138042
5429.59275513,0.00131301
5431.52156250,0.00137036
5433.45036987,0.00135955
5435.37917725,0.00128381
5437.30798462,0.00128117
5439.23679199,0.00129651
5441.16559936,0.00126205
5443.09440674,0.00127936
5445.02321411,0.00124426
5446.95202148,0.00124339
5448.88082886,0.00132110
5450.80963623,0.00127218
5452.73844360,0.00126163
5454.66725098,0.00131888
5456.59605835,0.00129522
5458.52486572,0.00126192
5460.45367310,0.00124351
5462.38248047,0.00126847
5464.31128784,0.00129764
5466.24009521,0.00121634
5468.16890259,0.00120203
5470.09770996,0.00124677
5472.02651733,0.00121912
5473.95532471,0.00122780
5475.88413208,0.00120736
5477.81293945,0.00122670
5479.74174683,0.00129048
5481.67055420,0.00125638
5483.59936157,0.00126942
5485.52816895,0.00128140
5487.45697632,0.00124738
5489.38578369,0.00124821
5491.31459106,0.00121178
5493.24339844,0.00120697
5495.17220581,0.00121583
5497.10101318,0.00120870
5499.02982056,0.00123429
5500.95862793,0.00115744
5502.88743530,0.00114556
5504.81624268,0.00124797
5506.74505005,0.00120606
5508.67385742,0.00115924
5510.60266479,0.00116123
5512.53147217,0.00114771
5514.46027954,0.00119403
5516.38908691,0.00116838
5518.31789429,0.00111359
5520.24670166,0.00119674
5522.17550903,0.00115280
5524.10431641,0.00104806
5526.03312378,0.00113968
5527.96193115,0.00118509
5529.89073853,0.00119121
5531.81954590,0.00114954
5533.74835327,0.00111103
5535.67716064,0.00116770
5537.60596802,0.00109439
5539.53477539,0.00108665
5541.46358276,0.00114162
5543.39239014,0.00112680
5545.32119751,0.00108895
5547.25000488,0.00107104
5549.17881226,0.00115684
5551.10761963,0.00110995
5553.03642700,0.00107317
5554.96523437,0.00113548
5556.89404175,0.00112979
5558.82284912,0.00113803
5560.75165649,0.00107215
5562.68046387,0.00104872
5564.60927124,0.00113947
5566.53807861,0.00117286
5568.46688599,0.00114534
5570.39569336,0.00111102
5572.32450073,0.00110270
5574.25330811,0.00111396
5576.18211548,0.00109476
5578.11092285,0.00107023
5580.03973022,0.00108493
5581.96853760,0.00107495
5583.89734497,0.00109801
5585.82615234,0.00111945
5587.75495972,0.00105069
5589.68376709,0.00102846
5591.61257446,0.00107341
5593.54138184,0.00105681
5595.47018921,0.00102976
5597.39899658,0.00109913
5599.32780395,0.00110416
5601.25661133,0.00105102
5603.18541870,0.00102895
5605.11422607,0.00100709
5607.04303345,0.00098870
5608.97184082,0.00098893
5610.90064819,0.00103337
5612.82945557,0.00099550
5614.75826294,0.00100176
5616.68707031,0.00101382
5618.61587769,0.00097963
5620.54468506,0.00099447
5622.47349243,0.00093709
5624.40229980,0.00099405
5626.33110718,0.00098092
5628.25991455,0.00099172
5630.18872192,0.00108676
5632.11752930,0.00099037
5634.04633667,0.00106922
5635.97514404,0.00104160
5637.90395142,0.00094808
5639.83275879,0.00099877
5641.76156616,0.00090323
5643.69037353,0.00091973
5645.61918091,0.00096368
5647.54798828,0.00096817
5649.47679565,0.00097790
5651.40560303,0.00099215
5653.33441040,0.00105122
5655.26321777,0.00096795
5657.19202515,0.00090023
5659.12083252,0.00093568
5661.04963989,0.00099049
5662.97844727,0.00099212
5664.90725464,0.00094945
5666.83606201,0.00096281
5668.76486938,0.00094622
5670.69367676,0.00094443
5672.62248413,0.00093032
5674.55129150,0.00090032
5676.48009888,0.00094960
5678.40890625,0.00093896
5680.33771362,0.00093183
5682.26652100,0.00093922
5684.19532837,0.00089692
5686.12413574,0.00093737
5688.05294311,0.00094652
5689.98175049,0.00091792
5691.91055786,0.00087787
5693.83936523,0.00087870
5695.76817261,0.00095438
5697.69697998,0.00086501
5699.62578735,0.00085044
5701.55459473,0.00086644
5703.48340210,0.00086798
5705.41220947,0.00099101
5707.34101685,0.00089112
5709.26982422,0.00088318
5711.19863159,0.00091069
5713.12743896,0.00083075
5715.05624634,0.00084379
5716.98505371,0.00080739
5718.91386108,0.00093389
5720.84266846,0.00089885
5722.77147583,0.00078704
5724.70028320,0.00082924
5726.62909058,0.00078703
5728.55789795,0.00092678
5730.48670532,0.00095193
5732.41551270,0.00088422
5734.34432007,0.00086586
5736.27312744,0.00081769
5738.20193481,0.00090202
5740.13074219,0.00084971
5742.05954956,0.00082861
5743.98835693,0.00082451
5745.91716431,0.00075382
5747.84597168,0.00079612
5749.77477905,0.00077967
5751.70358643,0.00084233
5753.63239380,0.00085977
5755.56120117,0.00081318
5757.49000854,0.00088890
5759.41881592,0.00084874
5761.34762329,0.00078597
5763.27643066,0.00080249
5765.20523804,0.00085076
5767.13404541,0.00091523
5769.06285278,0.00086275
5770.99166016,0.00075049
5772.92046753,0.00074544
5774.84927490,0.00082729
5776.77808228,0.00082910
5778.70688965,0.00079283
5780.63569702,0.00079081
5782.56450439,0.00077754
5784.49331177,0.00083615
5786.42211914,0.00085117
5788.35092651,0.00079563
5790.27973389,0.00081451
5792.20854126,0.00074273
5794.13734863,0.00068357
5796.06615601,0.00075300
5797.99496338,0.00073034
5799.92377075,0.00072750
5801.85257812,0.00076344
5803.78138550,0.00074644
5805.71019287,0.00074225
5807.63900024,0.00069616
5809.56780762,0.00073805
5811.49661499,0.00079999
5813.42542236,0.00073013
5815.35422974,0.00070687
5817.28303711,0.00075898
5819.21184448,0.00083058
5821.14065186,0.00079448
5823.06945923,0.00072377
5824.99826660,0.00068318
5826.92707397,0.00064480
5828.85588135,0.00076803
5830.78468872,0.00074062
5832.71349609,0.00067641
5834.64230347,0.00077067
5836.57111084,0.00072588
5838.49991821,0.00073392
5840.42872559,0.00068445
5842.35753296,0.00067789
5844.28634033,0.00074536
5846.21514770,0.00062828
5848.14395508,0.00073471
5850.07276245,0.00074645
5852.00156982,0.00064283
5853.93037720,0.00075556
5855.85918457,0.00065177
5857.78799194,0.00061834
5859.71679932,0.00071087
5861.64560669,0.00067255
5863.57441406,0.00068389
5865.50322144,0.00063747
5867.43202881,0.00066684
5869.36083618,0.00072887
5871.28964355,0.00070282
5873.21845093,0.00073955
5875.14725830,0.00066075
5877.07606567,0.00062844
5879.00487305,0.00069769
5880.93368042,0.00064613
5882.86248779,0.00061265
5884.79129517,0.00062889
5886.72010254,0.00069784
5888.64890991,0.00069837
5890.57771728,0.00065193
5892.50652466,0.00070223
5894.43533203,0.00069926
5896.36413940,0.00065735
5898.29294678,0.00060632
5900.22175415,0.00063231
5902.15056152,0.00066655
5904.07936890,0.00064819
5906.00817627,0.00070424
5907.93698364,0.00062786
5909.86579102,0.00055857
5911.79459839,0.00062017
5913.72340576,0.00063761
5915.65221313,0.00066039
5917.58102051,0.00063602
5919.50982788,0.00059699
5921.43863525,0.00063984
5923.36744263,0.00065627
5925.29625000,0.00059560
5927.22505737,0.00061073
5929.15386475,0.00064230
5931.08267212,0.00062062
5933.01147949,0.00064354
5934.94028686,0.00061230
5936.86909424,0.00062982
5938.79790161,0.00069655
5940.72670898,0.00066086
5942.65551636,0.00063098
5944.58432373,0.00062687
5946.51313110,0.00063553
5948.44193848,0.00061636
5950.37074585,0.00057289
5952.29955322,0.00058782
5954.22836060,0.00062490
5956.15716797,0.00064578
5958.08597534,0.00062377
5960.01478271,0.00060207
5961.94359009,0.00064056
5963.87239746,0.00060556
5965.80120483,0.00056631
5967.73001221,0.00058751
5969.65881958,0.00055240
5971.58762695,0.00060592
5973.51643433,0.00055365
5975.44524170,0.00048558
5977.37404907,0.00057694
5979.30285645,0.00051091
5981.23166382,0.00058175
5983.16047119,0.00060915
5985.08927856,0.00049474
5987.01808594,0.00057894
5988.94689331,0.00056860
5990.87570068,0.00054059
5992.80450806,0.00055936
5994.73331543,0.00057281
5996.66212280,0.00056361
5998.59093018,0.00052607
6000.51973755,0.00051733
