399.26312622,0.00271125
401.19193359,0.00287830
403.12074097,0.00331249
405.04954834,0.00360574
406.97835571,0.00375780
408.90716309,0.00343514
410.83597046,0.00319889
412.76477783,0.00382371
414.69358521,0.00360700
416.62239258,0.00348788
418.55119995,0.00372052
420.48000732,0.00396457
422.40881470,0.00391451
424.33762207,0.00401615
426.26642944,0.00477636
428.19523682,0.00463882
430.12404419,0.00435410
432.05285156,0.00387729
433.98165894,0.00386796
435.91046631,0.00413585
437.83927368,0.00344468
439.76808105,0.00368353
441.69688843,0.00394505
443.62569580,0.00338294
445.55450317,0.00359350
447.48331055,0.00378983
449.41211792,0.00346406
451.34092529,0.00358782
453.26973267,0.00318463
455.19854004,0.00311355
457.12734741,0.00308037
459.05615479,0.00222312
460.98496216,0.00269151
462.91376953,0.00255714
464.84257690,0.00220000
466.77138428,0.00242963
468.70019165,0.00216130
470.62899902,0.00186751
472.55780640,0.00134279
474.48661377,0.00194187
476.41542114,0.00167101
478.34422852,0.00084405
480.27303589,0.00129105
482.20184326,0.00135153
484.13065063,0.00086691
486.05945801,0.00061169
487.98826538,0.00108747
489.91707275,0.00051184
491.84588013,0.00037434
493.77468750,0.00062665
495.70349487,0.00031079
497.63230225,0.00085009
499.56110962,0.00059613
501.48991699,0.00079337
503.41872437,0.00079608
505.34753174,0.00003068
507.27633911,0.00009117
509.20514648,0.00048236
511.13395386,0.00067375
513.06276123,0.00038415
514.99156860,0.00055078
516.92037598,0.00050374
518.84918335,0.00066592
520.77799072,0.00049210
522.70679810,0.00050490
524.63560547,0.00054801
526.56441284,0.00004640
528.49322021,0.00015294
530.42202759,0.00008052
532.35083496,0.00042409
534.27964233,0.00057763
536.20844971,0.00013235
538.13725708,0.00014754
540.06606445,0.00000547
541.99487183,0.00019240
543.92367920,0.00004005
545.85248657,0.00026708
547.78129395,0.00044528
549.71010132,-0.00009932
551.63890869,0.00046686
553.56771606,0.00013063
555.49652344,-0.00002465
557.42533081,0.00064811
559.35413818,0.00033624
561.28294556,0.00019363
563.21175293,0.00014871
565.14056030,0.00038971
567.06936768,0.00003078
568.99817505,-0.00016540
570.92698242,0.00039354
572.85578979,-0.00008104
574.78459717,-0.00012484
576.71340454,0.00035849
578.64221191,0.00049207
580.57101929,0.00020529
582.49982666,-0.00013383
584.42863403,0.00016427
586.35744141,0.00044635
588.28624878,0.00038005
590.21505615,0.00017667
592.14386353,0.00026218
594.07267090,0.00002792
596.00147827,0.00000833
597.93028564,0.00039936
599.85909302,0.00016078
601.78790039,0.00028783
603.71670776,0.00039711
605.64551514,0.00013405
607.57432251,0.00039948
609.50312988,0.00011110
611.43193726,-0.00009495
613.36074463,-0.00027500
615.28955200,0.00022593
617.21835938,-0.00029417
619.14716675,-0.00043217
621.07597412,0.00026259
623.00478149,0.00006899
624.93358887,0.00004900
626.86239624,0.00008632
628.79120361,0.00003906
630.72001099,0.00064493
632.64881836,0.00186564
634.57762573,0.00251781
636.50643311,0.00270583
638.43524048,0.00321215
640.36404785,0.00321697
642.29285522,0.00366719
644.22166260,0.00442635
646.15046997,0.00440384
648.07927734,0.00466672
650.00808472,0.00520173
651.93689209,0.00527536
653.86569946,0.00516224
655.79450684,0.00546217
657.72331421,0.00567089
659.65212158,0.00576938
661.58092896,0.00597614
663.50973633,0.00641823
665.43854370,0.00679854
667.36735107,0.00594121
669.29615845,0.00642107
671.22496582,0.00791562
673.15377319,0.00797474
675.08258057,0.00831807
677.01138794,0.00839845
678.94019531,0.00832807
680.86900269,0.00843187
682.79781006,0.00811834
684.72661743,0.00839482
686.65542480,0.00833011
688.58423218,0.00817835
690.51303955,0.00879716
692.44184692,0.00899145
694.37065430,0.00924387
696.29946167,0.01068280
698.22826904,0.01236935
700.15707642,0.01341080
702.08588379,0.01319482
704.01469116,0.01181316
705.94349854,0.01062671
707.87230591,0.00936189
709.80111328,0.00740719
711.72992065,0.00492371
713.65872803,0.00271602
715.58753540,0.00172148
717.51634277,0.00132413
719.44515015,0.00071455
721.37395752,0.00039245
723.30276489,0.00071712
725.23157227,0.00047348
727.16037964,0.00021067
729.08918701,0.00044907
731.01799438,0.00016349
732.94680176,0.00010600
734.87560913,0.00012740
736.80441650,-0.00023947
738.73322388,-0.00025540
740.66203125,-0.00014065
742.59083862,-0.00011415
744.51964600,0.00028222
746.44845337,0.00037167
748.37726074,0.00010950
750.30606812,0.00043921
752.23487549,0.00029684
754.16368286,0.00033747
756.09249023,0.00065382
758.02129761,0.00018881
759.95010498,0.00041543
761.87891235,0.00056520
763.80771973,0.00036708
765.73652710,0.00047015
767.66533447,0.00042730
769.59414185,0.00069034
771.52294922,0.00070698
773.45175659,0.00056687
775.38056396,0.00063040
777.30937134,0.00060828
779.23817871,0.00075904
781.16698608,0.00062780
783.09579346,0.00042556
785.02460083,0.00053958
786.95340820,0.00066669
788.88221558,0.00091317
790.81102295,0.00060920
792.73983032,0.00057278
794.66863770,0.00102316
796.59744507,0.00096977
798.52625244,0.00148032
800.45505981,0.00170723
802.38386719,0.00156883
804.31267456,0.00136671
806.24148193,0.00099807
808.17028931,0.00111699
810.09909668,0.00063454
812.02790405,0.00061038
813.95671143,0.00057930
815.88551880,0.00015075
817.81432617,0.00049780
819.74313354,0.00066828
821.67194092,0.00070108
823.60074829,0.00057578
825.52955566,0.00104521
827.45836304,0.00134840
829.38717041,0.00138651
831.31597778,0.00195190
833.24478516,0.00208083
835.17359253,0.00275291
837.10239990,0.00295778
839.03120728,0.00261338
840.96001465,0.00265770
842.88882202,0.00254918
844.81762939,0.00248706
846.74643677,0.00222142
848.67524414,0.00204066
850.60405151,0.00187735
852.53285889,0.00178396
854.46166626,0.00158281
856.39047363,0.00158965
858.31928101,0.00149443
860.24808838,0.00086744
862.17689575,0.00092835
864.10570313,0.00086992
866.03451050,0.00075054
867.96331787,0.00088169
869.89212524,0.00066289
871.82093262,0.00040602
873.74973999,0.00052331
875.67854736,0.00050703
877.60735474,0.00024985
879.53616211,0.00047409
881.46496948,0.00022942
883.39377686,0.00033074
885.32258423,0.00057054
887.25139160,0.00028539
889.18019897,0.00044541
891.10900635,0.00042710
893.03781372,0.00068647
894.96662109,0.00057335
896.89542847,0.00025933
898.82423584,0.00042279
900.75304321,0.00025782
902.68185059,0.00046010
904.61065796,0.00079085
906.53946533,0.00092623
908.46827271,0.00094966
910.39708008,0.00084365
912.32588745,0.00099084
914.25469482,0.00113794
916.18350220,0.00106237
918.11230957,0.00147691
920.04111694,0.00195073
921.96992432,0.00181444
923.89873169,0.00199426
925.82753906,0.00227741
927.75634644,0.00267696
929.68515381,0.00280330
931.61396118,0.00284763
933.54276855,0.00334426
935.47157593,0.00324020
937.40038330,0.00350271
939.32919067,0.00391426
941.25799805,0.00402659
943.18680542,0.00414473
945.11561279,0.00388538
947.04442017,0.00389643
948.97322754,0.00384621
950.90203491,0.00380207
952.83084229,0.00389400
954.75964966,0.00387728
956.68845703,0.00389184
958.61726440,0.00380904
960.54607178,0.00388592
962.47487915,0.00395060
964.40368652,0.00376638
966.33249390,0.00394265
968.26130127,0.00426327
970.19010864,0.00415172
972.11891602,0.00443444
974.04772339,0.00488850
975.97653076,0.00544143
977.90533813,0.00604000
979.83414551,0.00631933
981.76295288,0.00711022
983.69176025,0.00764023
985.62056763,0.00834424
987.54937500,0.00958252
989.47818237,0.01052020
991.40698975,0.01163073
993.33579712,0.01285732
995.26460449,0.01412026
997.19341187,0.01520905
999.12221924,0.01640871
1001.05102661,0.01774058
1002.97983398,0.01894239
1004.90864136,0.02008216
1006.83744873,0.02146946
1008.76625610,0.02302308
1010.69506348,0.02412829
1012.62387085,0.02569623
1014.55267822,0.02696818
1016.48148560,0.02800634
1018.41029297,0.02957470
1020.33910034,0.03089728
1022.26790771,0.03239284
1024.19671509,0.03343488
1026.12552246,0.03472459
1028.05432983,0.03614528
1029.98313721,0.03680459
1031.91194458,0.03798909
1033.84075195,0.03882886
1035.76955933,0.03907511
1037.69836670,0.03954288
1039.62717407,0.03983549
1041.55598145,0.03996523
1043.48478882,0.03962934
1045.41359619,0.03887491
1047.34240356,0.03856266
1049.27121094,0.03796143
1051.20001831,0.03706668
1053.12882568,0.03661259
1055.05763306,0.03580318
1056.98644043,0.03509846
1058.91524780,0.03438476
1060.84405518,0.03330622
1062.77286255,0.03234629
1064.70166992,0.03123450
1066.63047729,0.02999002
1068.55928467,0.02862770
1070.48809204,0.02727512
1072.41689941,0.02597962
1074.34570679,0.02493043
1076.27451416,0.02382212
1078.20332153,0.02269578
1080.13212891,0.02161848
1082.06093628,0.02038679
1083.98974365,0.01961779
1085.91855103,0.01862036
1087.84735840,0.01769827
1089.77616577,0.01690473
1091.70497314,0.01591556
1093.63378052,0.01552595
1095.56258789,0.01513048
1097.49139526,0.01450315
1099.42020264,0.01388528
1101.34901001,0.01358179
1103.27781738,0.01330858
1105.20662476,0.01308201
1107.13543213,0.01296152
1109.06423950,0.01254181
1110.99304687,0.01233390
1112.92185425,0.01216226
1114.85066162,0.01224092
1116.77946899,0.01240055
1118.70827637,0.01232050
1120.63708374,0.01228430
1122.56589111,0.01231005
1124.49469849,0.01231920
1126.42350586,0.01251154
1128.35231323,0.01294896
1130.28112061,0.01286993
1132.20992798,0.01340586
1134.13873535,0.01399743
1136.06754272,0.01431093
1137.99635010,0.01546442
1139.92515747,0.01608428
1141.85396484,0.01711555
1143.78277222,0.01857200
1145.71157959,0.01972040
1147.64038696,0.02100490
1149.56919434,0.02196242
1151.49800171,0.02314208
1153.42680908,0.02418062
1155.35561646,0.02507053
1157.28442383,0.02627309
1159.21323120,0.02735265
1161.14203857,0.02828787
1163.07084595,0.02933327
1164.99965332,0.03042459
1166.92846069,0.03162485
1168.85726807,0.03285303
1170.78607544,0.03397684
1172.71488281,0.03537885
1174.64369019,0.03656265
1176.57249756,0.03795630
1178.50130493,0.03953451
1180.43011230,0.04092173
1182.35891968,0.04286924
1184.28772705,0.04485687
1186.21653442,0.04673853
1188.14534180,0.04872296
1190.07414917,0.05118942
1192.00295654,0.05366483
1193.93176392,0.05589795
1195.86057129,0.05855190
1197.78937866,0.06123094
1199.71818604,0.06403606
1201.64699341,0.06667902
1203.57580078,0.06933483
1205.50460815,0.07204930
1207.43341553,0.07450892
1209.36222290,0.07703923
1211.29103027,0.07945102
1213.21983765,0.08163764
1215.14864502,0.08362047
1217.07745239,0.08558629
1219.00625977,0.08690658
1220.93506714,0.08815491
1222.86387451,0.08937865
1224.79268188,0.08995461
1226.72148926,0.09088808
1228.65029663,0.09144086
1230.57910400,0.09173893
1232.50791138,0.09204140
1234.43671875,0.09208369
1236.36552612,0.09209622
1238.29433350,0.09173532
1240.22314087,0.09145109
1242.15194824,0.09099957
1244.08075562,0.09063205
1246.00956299,0.09026900
1247.93837036,0.08962262
1249.86717773,0.08914813
1251.79598511,0.08845817
1253.72479248,0.08753558
1255.65359985,0.08632718
1257.58240723,0.08526108
1259.51121460,0.08395778
1261.44002197,0.08243553
1263.36882935,0.08172469
1265.29763672,0.08058677
1267.22644409,0.07921037
1269.15525146,0.07828353
1271.08405884,0.07710858
1273.01286621,0.07603440
1274.94167358,0.07459549
1276.87048096,0.07303890
1278.79928833,0.07172702
1280.72809570,0.07005166
1282.65690308,0.06890392
1284.58571045,0.06775840
1286.51451782,0.06622598
1288.44332520,0.06518951
1290.37213257,0.06431849
1292.30093994,0.06362564
1294.22974731,0.06304601
1296.15855469,0.06262638
1298.08736206,0.06253339
1300.01616943,0.06271342
1301.94497681,0.06299146
1303.87378418,0.06361313
1305.80259155,0.06441639
1307.73139893,0.06490321
1309.66020630,0.06614274
1311.58901367,0.06705187
1313.51782104,0.06809981
1315.44662842,0.07034542
1317.37543579,0.07151628
1319.30424316,0.07311241
1321.23305054,0.07589701
1323.16185791,0.07819732
1325.09066528,0.08036892
1327.01947266,0.08267467
1328.94828003,0.08473457
1330.87708740,0.08673073
1332.80589478,0.08896562
1334.73470215,0.09064535
1336.66350952,0.09136760
1338.59231689,0.09051928
1340.52112427,0.09171303
1342.44993164,0.09561737
1344.37873901,0.09616259
1346.30754639,0.09603153
1348.23635376,0.09606248
1350.16516113,0.09507176
1352.09396851,0.09516302
1354.02277588,0.09390779
1355.95158325,0.09312866
1357.88039062,0.09281157
1359.80919800,0.09123027
1361.73800537,0.08710240
1363.66681274,0.08544752
1365.59562012,0.08993678
1367.52442749,0.08803477
1369.45323486,0.08683401
1371.38204224,0.08844481
1373.31084961,0.08352384
1375.23965698,0.08409874
1377.16846436,0.08644460
1379.09727173,0.08605872
1381.02607910,0.08624268
1382.95488647,0.08607933
1384.88369385,0.08582172
1386.81250122,0.08168127
1388.74130859,0.08303081
1390.67011597,0.09001756
1392.59892334,0.08735254
1394.52773071,0.08172402
1396.45653809,0.08615553
1398.38534546,0.08583435
1400.31415283,0.08540417
1402.24296021,0.09252334
1404.17176758,0.08702503
1406.10057495,0.08778445
1408.02938232,0.09141324
1409.95818970,0.08780690
1411.88699707,0.08979814
1413.81580444,0.08638743
1415.74461182,0.08782265
1417.67341919,0.07902409
1419.60222656,0.07063036
1421.53103394,0.08185453
1423.45984131,0.07893405
1425.38864868,0.07669964
1427.31745605,0.07804741
1429.24626343,0.07172496
1431.17507080,0.06969810
1433.10387817,0.07092904
1435.03268555,0.06448224
1436.96149292,0.05437283
1438.89030029,0.06200597
1440.81910767,0.06352764
1442.74791504,0.05890377
1444.67672241,0.06174723
1446.60552979,0.05634860
1448.53433716,0.05746896
1450.46314453,0.05945649
1452.39195190,0.06060273
1454.32075928,0.06270754
1456.24956665,0.05131391
1458.17837402,0.05381949
1460.10718140,0.07190962
1462.03598877,0.07658991
1463.96479614,0.07619302
1465.89360352,0.07929461
1467.82241089,0.09062561
1469.75121826,0.09744531
1471.68002563,0.08629661
1473.60883301,0.09110650
1475.53764038,0.10404868
1477.46644775,0.11227735
1479.39525513,0.12362950
1481.32406250,0.12496646
1483.25286987,0.13334960
1485.18167725,0.13758968
1487.11048462,0.13524568
1489.03929199,0.13457036
1490.96809937,0.13528544
1492.89690674,0.15817395
1494.82571411,0.15386724
1496.75452148,0.13836421
1498.68332886,0.15703465
1500.61213623,0.16175595
1502.54094360,0.17420432
1504.46975098,0.16349883
1506.39855835,0.11816326
1508.32736572,0.14591581
1510.25617310,0.17131338
1512.18498047,0.16600272
1514.11378784,0.17998129
1516.04259521,0.16182357
1517.97140259,0.16930507
1519.90020996,0.16283259
1521.82901733,0.14086540
1523.75782471,0.17346549
1525.68663208,0.16966912
1527.61543945,0.16951013
1529.54424683,0.18802795
1531.47305420,0.18004139
1533.40186157,0.16478299
1535.33066895,0.17544904
1537.25947632,0.18734410
1539.18828369,0.13251510
1541.11709106,0.13966522
1543.04589844,0.16791601
1544.97470581,0.16105428
1546.90351318,0.19137183
1548.83232056,0.17781173
1550.76112793,0.18392968
1552.68993530,0.18228072
1554.61874268,0.16548291
1556.54755005,0.17715392
1558.47635742,0.12314402
1560.40516479,0.13479631
1562.33397217,0.19259256
1564.26277954,0.18136284
1566.19158691,0.18725270
1568.12039429,0.18444619
1570.04920166,0.16318828
1571.97800903,0.18946880
1573.90681641,0.19070892
1575.83562378,0.15061720
1577.76443115,0.17171600
1579.69323853,0.19380717
1581.62204590,0.18522456
1583.55085327,0.19010356
1585.47966064,0.18707019
1587.40846802,0.18864015
1589.33727539,0.18676880
1591.26608276,0.18661198
1593.19489014,0.18708187
1595.12369751,0.18478738
1597.05250488,0.18711817
1598.98131226,0.18606028
1600.91011963,0.18709764
1602.83892700,0.18352470
1604.76773437,0.18681224
1606.69654175,0.18393540
1608.62534912,0.18359488
1610.55415649,0.18309531
1612.48296387,0.18463439
1614.41177124,0.18675515
1616.34057861,0.15157726
1618.26938599,0.16598174
1620.19819336,0.19300318
1622.12700073,0.17031397
1624.05580811,0.17168143
1625.98461548,0.18017834
1627.91342285,0.17915106
1629.84223022,0.17821673
1631.77103760,0.19072458
1633.69984497,0.17464849
1635.62865234,0.14357962
1637.55745972,0.16856998
1639.48626709,0.18547997
1641.41507446,0.18091902
1643.34388184,0.18566506
1645.27268921,0.16644567
1647.20149658,0.14613608
1649.13030396,0.18317671
1651.05911133,0.17203021
1652.98791870,0.10921616
1654.91672607,0.15129744
1656.84553345,0.18974744
1658.77434082,0.18137556
1660.70314819,0.18656486
1662.63195557,0.16890940
1664.56076294,0.17896253
1666.48957031,0.19192512
1668.41837769,0.16664484
1670.34718506,0.16243795
1672.27599243,0.18454210
1674.20479980,0.16954085
1676.13360718,0.16301227
1678.06241455,0.18800026
1679.99122192,0.18056604
1681.92002930,0.17858618
1683.84883667,0.14394954
1685.77764404,0.14372543
1687.70645142,0.19758521
1689.63525879,0.17021531
1691.56406616,0.18879548
1693.49287354,0.19091240
1695.42168091,0.13870248
1697.35048828,0.17263511
1699.27929565,0.15011179
1701.20810303,0.13602424
1703.13691040,0.18619990
1705.06571777,0.16986677
1706.99452515,0.17175874
1708.92333252,0.18653017
1710.85213989,0.17923570
1712.78094727,0.18233669
1714.70975464,0.16848615
1716.63856201,0.15073735
1718.56736938,0.14861043
1720.49617676,0.17727426
1722.42498413,0.18354337
1724.35379150,0.17015594
1726.28259888,0.18547833
1728.21140625,0.17071691
1730.14021362,0.17250377
1732.06902100,0.16718213
1733.99782837,0.12659231
1735.92663574,0.15927032
1737.85544312,0.17557782
1739.78425049,0.15591814
1741.71305786,0.17026155
1743.64186523,0.17242202
1745.57067261,0.17294055
1747.49947998,0.17413083
1749.42828735,0.16608182
1751.35709473,0.15882128
1753.28590210,0.17697842
1755.21470947,0.18480977
1757.14351685,0.16812155
1759.07232422,0.18551697
1761.00113159,0.17342074
1762.92993896,0.16789669
1764.85874634,0.19250046
1766.78755371,0.17253563
1768.71636108,0.17454381
1770.64516846,0.17266297
1772.57397583,0.15502064
1774.50278320,0.17387612
1776.43159058,0.18349938
1778.36039795,0.18075290
1780.28920532,0.17850971
1782.21801270,0.18003374
1784.14682007,0.17946517
1786.07562744,0.17595930
1788.00443481,0.18550426
1789.93324219,0.18003103
1791.86204956,0.16236776
1793.79085693,0.17014843
1795.71966431,0.18266825
1797.64847168,0.18000412
1799.57727905,0.17723291
1801.50608643,0.17419828
1803.43489380,0.18011642
1805.36370117,0.18399012
1807.29250854,0.18142331
1809.22131592,0.18183282
1811.15012329,0.17695941
1813.07893066,0.18277654
1815.00773804,0.18347210
1816.93654541,0.18140548
1818.86535278,0.18277690
1820.79416016,0.18200862
1822.72296753,0.18463525
1824.65177490,0.17219681
1826.58058228,0.17861640
1828.50938965,0.17871273
1830.43819702,0.16771841
1832.36700439,0.18283978
1834.29581177,0.18140878
1836.22461914,0.18126637
1838.15342651,0.18048561
1840.08223389,0.18171120
1842.01104126,0.18153059
1843.93984863,0.16059449
1845.86865601,0.17189969
1847.79746338,0.18122615
1849.72627075,0.17726256
1851.65507812,0.18258215
1853.58388550,0.17873298
1855.51269287,0.18089747
1857.44150024,0.17938238
1859.37030762,0.17822659
1861.29911499,0.17962030
1863.22792236,0.17736676
1865.15672974,0.17946309
1867.08553711,0.17298684
1869.01434448,0.16571158
1870.94315186,0.17273277
1872.87195923,0.17927362
1874.80076660,0.17609097
1876.72957397,0.17691195
1878.65838135,0.17654717
1880.58718872,0.17546886
1882.51599609,0.17686737
1884.44480347,0.17396556
1886.37361084,0.17652102
1888.30241821,0.17243221
1890.23122559,0.16886234
1892.16003296,0.17525892
1894.08884033,0.17280392
1896.01764771,0.17210847
1897.94645508,0.17405815
1899.87526245,0.17320743
1901.80406982,0.17345834
1903.73287720,0.17228720
1905.66168457,0.17300589
1907.59049194,0.17126313
1909.51929932,0.17023571
1911.44810669,0.17100513
1913.37691406,0.17138101
1915.30572144,0.17280763
1917.23452881,0.16496250
1919.16333618,0.16544053
1921.09214355,0.17149529
1923.02095093,0.16591612
1924.94975830,0.16961889
1926.87856567,0.17124161
1928.80737305,0.16891313
1930.73618042,0.17092395
1932.66498779,0.16857618
1934.59379517,0.17037657
1936.52260254,0.16888827
1938.45140991,0.16942778
1940.38021729,0.16949914
1942.30902466,0.16355935
1944.23783203,0.16683343
1946.16663940,0.16852036
1948.09544678,0.16804108
1950.02425415,0.16887856
1951.95306152,0.16816351
1953.88186890,0.16821501
1955.81067627,0.16735949
1957.73948364,0.16802892
1959.66829102,0.16772902
1961.59709839,0.16730034
1963.52590576,0.16771552
1965.45471313,0.16659635
1967.38352051,0.16498546
1969.31232788,0.16629563
1971.24113525,0.16743356
1973.16994263,0.16599721
1975.09875000,0.16665804
1977.02755737,0.16594586
1978.95636475,0.16599637
1980.88517212,0.16598471
1982.81397949,0.16509654
1984.74278687,0.16578121
1986.67159424,0.16421753
1988.60040161,0.16451685
1990.52920898,0.16309986
1992.45801636,0.16116410
1994.38682373,0.16357949
1996.31563110,0.16373919
1998.24443848,0.16279534
2000.17324585,0.16292971
2002.10205322,0.16264474
2004.03086060,0.16215348
2005.95966797,0.16187489
2007.88847534,0.16133285
2009.81728271,0.16112271
2011.74609009,0.16084149
2013.67489746,0.16053668
2015.60370483,0.15961599
2017.53251221,0.15806268
2019.46131958,0.15909380
2021.39012695,0.15905818
2023.31893433,0.15832230
2025.24774170,0.15843016
2027.17654907,0.15766189
2029.10535645,0.15761295
2031.03416382,0.15707234
2032.96297119,0.15683733
2034.89177856,0.15646234
2036.82058594,0.15601398
2038.74939331,0.15579723
2040.67820068,0.15489230
2042.60700806,0.15472159
2044.53581543,0.15456918
2046.46462280,0.15445648
2048.39343018,0.15396205
2050.32223755,0.15359198
2052.25104492,0.15347314
2054.17985229,0.15297601
2056.10865967,0.15287356
2058.03746704,0.15235919
2059.96627441,0.15190762
2061.89508179,0.15172145
2063.82388916,0.15096250
2065.75269653,0.15036480
2067.68150391,0.15080249
2069.61031128,0.15055436
2071.53911865,0.14990601
2073.46792603,0.14992012
2075.39673340,0.14945933
2077.32554077,0.14919287
2079.25434814,0.14891708
2081.18315552,0.14867195
2083.11196289,0.14833921
2085.04077026,0.14801088
2086.96957764,0.14780575
2088.89838501,0.14724660
2090.82719238,0.14711145
2092.75599976,0.14690809
2094.68480713,0.14665622
2096.61361450,0.14622846
2098.54242187,0.14610204
2100.47122925,0.14599133
2102.40003662,0.14547065
2104.32884399,0.14527395
2106.25765137,0.14496341
2108.18645874,0.14489093
2110.11526611,0.14439155
2112.04407349,0.14422321
2113.97288086,0.14406207
2115.90168823,0.14347643
2117.83049561,0.14358528
2119.75930298,0.14329407
2121.68811035,0.14300060
2123.61691772,0.14271490
2125.54572510,0.14268126
2127.47453247,0.14248800
2129.40333984,0.14206950
2131.33214722,0.14199580
2133.26095459,0.14170384
2135.18976196,0.14167646
2137.11856934,0.14120635
2139.04737671,0.14105305
2140.97618408,0.14098752
2142.90499146,0.14061642
2144.83379883,0.14056391
2146.76260620,0.14029445
2148.69141357,0.14010400
2150.62022095,0.13975891
2152.54902832,0.13979860
2154.47783569,0.13960163
2156.40664307,0.13924088
2158.33545044,0.13909125
2160.26425781,0.13889855
2162.19306519,0.13885775
2164.12187256,0.13835692
2166.05067993,0.13840359
2167.97948730,0.13828787
2169.90829468,0.13797832
2171.83710205,0.13787672
2173.76590942,0.13769090
2175.69471680,0.13773252
2177.62352417,0.13732179
2179.55233154,0.13718219
2181.48113892,0.13694480
2183.40994629,0.13665089
2185.33875366,0.13649327
2187.26756104,0.13632615
2189.19636841,0.13625439
2191.12517578,0.13598078
2193.05398315,0.13599214
2194.98279053,0.13571340
2196.91159790,0.13555446
2198.84040527,0.13529637
2200.76921265,0.13505793
2202.69802002,0.13503444
2204.62682739,0.13471499
2206.55563477,0.13473848
2208.48444214,0.13440377
2210.41324951,0.13413812
2212.34205688,0.13399746
2214.27086426,0.13385740
2216.19967163,0.13375406
2218.12847900,0.13347411
2220.05728638,0.13338403
2221.98609375,0.13313428
2223.91490112,0.13313119
2225.84370850,0.13281439
2227.77251587,0.13251016
2229.70132324,0.13231421
2231.63013062,0.13183084
2233.55893799,0.13181111
2235.48774536,0.13169134
2237.41655273,0.13140205
2239.34536011,0.13124037
2241.27416748,0.13109559
2243.20297485,0.13061154
2245.13178223,0.13050896
2247.06058960,0.13040707
2248.98939697,0.13001631
2250.91820435,0.13001004
2252.84701172,0.12958160
2254.77581909,0.12953457
2256.70462646,0.12931070
2258.63343384,0.12889275
2260.56224121,0.12892532
2262.49104858,0.12864932
2264.41985596,0.12846625
2266.34866333,0.12823214
2268.27747070,0.12816405
2270.20627808,0.12789124
2272.13508545,0.12764409
2274.06389282,0.12764981
2275.99270020,0.12743337
2277.92150757,0.12721117
2279.85031494,0.12703559
2281.77912231,0.12717479
2283.70792969,0.12690012
2285.63673706,0.12653384
2287.56554443,0.12628314
2289.49435181,0.12592117
2291.42315918,0.12562323
2293.35196655,0.12519395
2295.28077393,0.12485650
2297.20958130,0.12432968
2299.13838867,0.12385692
2301.06719604,0.12337086
2302.99600342,0.12288353
2304.92481079,0.12221149
2306.85361816,0.12138017
2308.78242554,0.12046409
2310.71123291,0.11919864
2312.64004028,0.11817536
2314.56884766,0.11686666
2316.49765503,0.11549695
2318.42646240,0.11388379
2320.35526978,0.11218180
2322.28407715,0.11060284
2324.21288452,0.10894547
2326.14169189,0.10791923
2328.07049927,0.10645191
2329.99930664,0.10508346
2331.92811401,0.10432948
2333.85692139,0.10385521
2335.78572876,0.10325803
2337.71453613,0.10297146
2339.64334351,0.10320780
2341.57215088,0.10344862
2343.50095825,0.10500035
2345.42976562,0.10691987
2347.35857300,0.11175378
2349.28738037,0.11547711
2351.21618774,0.11108230
2353.14499512,0.10537189
2355.07380249,0.10127459
2357.00260986,0.09804461
2358.93141724,0.09605810
2360.86022461,0.09481813
2362.78903198,0.09479383
2364.71783936,0.09516431
2366.64664673,0.09667979
2368.57545410,0.09875125
2370.50426147,0.10122827
2372.43306885,0.10414249
2374.36187622,0.10717329
2376.29068359,0.11029184
2378.21949097,0.11268276
2380.14829834,0.11474933
2382.07710571,0.11603975
2384.00591309,0.11685377
2385.93472046,0.11717539
2387.86352783,0.11722423
2389.79233521,0.11740272
2391.72114258,0.11707195
2393.64994995,0.11681280
2395.57875732,0.11661905
2397.50756470,0.11648013
2399.43637207,0.11628661
2401.36517944,0.11620949
2403.29398682,0.11607093
2405.22279419,0.11572844
2407.15160156,0.11567853
2409.08040894,0.11555792
2411.00921631,0.11538750
2412.93802368,0.11516727
2414.86683105,0.11506106
2416.79563843,0.11482760
2418.72444580,0.11466698
2420.65325317,0.11451593
2422.58206055,0.11418001
2424.51086792,0.11415332
2426.43967529,0.11388199
2428.36848267,0.11377028
2430.29729004,0.11373776
2432.22609741,0.11349490
2434.15490479,0.11332254
2436.08371216,0.11323204
2438.01251953,0.11302976
2439.94132690,0.11274971
2441.87013428,0.11282469
2443.79894165,0.11250190
2445.72774902,0.11230190
2447.65655640,0.11225997
2449.58536377,0.11202171
2451.51417114,0.11188142
2453.44297852,0.11161162
2455.37178589,0.11159673
2457.30059326,0.11143407
2459.22940063,0.11128606
2461.15820801,0.11105257
2463.08701538,0.11089759
2465.01582275,0.11080581
2466.94463013,0.11049046
2468.87343750,0.11051135
2470.80224487,0.11020441
2472.73105225,0.11009978
2474.65985962,0.11003619
2476.58866699,0.10976459
2478.51747437,0.10964649
2480.44628174,0.10940363
2482.37508911,0.10931312
2484.30389648,0.10905786
2486.23270386,0.10889907
2488.16151123,0.10873143
2490.09031860,0.10871996
2492.01912598,0.10860306
2493.94793335,0.10827891
2495.87674072,0.10824837
2497.80554810,0.10791580
2499.73435547,0.10782667
2501.66316284,0.10767647
2503.59197021,0.10742988
2505.52077759,0.10737945
2507.44958496,0.10728116
2509.37839233,0.10710225
2511.30719971,0.10677396
2513.23600708,0.10681823
2515.16481445,0.10660940
2517.09362183,0.10645513
2519.02242920,0.10643403
2520.95123657,0.10622786
2522.88004395,0.10608710
2524.80885132,0.10579604
2526.73765869,0.10578750
2528.66646606,0.10565481
2530.59527344,0.10549785
2532.52408081,0.10537121
2534.45288818,0.10515258
2536.38169556,0.10499293
2538.31050293,0.10479437
2540.23931030,0.10478778
2542.16811768,0.10456895
2544.09692505,0.10436749
2546.02573242,0.10420790
2547.95453979,0.10401302
2549.88334717,0.10387970
2551.81215454,0.10378551
2553.74096191,0.10368261
2555.66976929,0.10339499
2557.59857666,0.10324474
2559.52738403,0.10299996
2561.45619141,0.10294347
2563.38499878,0.10286698
2565.31380615,0.10263625
2567.24261353,0.10260533
2569.17142090,0.10239328
2571.10022827,0.10225300
2573.02903564,0.10215583
2574.95784302,0.10198805
2576.88665039,0.10168952
2578.81545776,0.10158784
2580.74426514,0.10151362
2582.67307251,0.10122700
2584.60187988,0.10114840
2586.53068726,0.10101190
2588.45949463,0.10091603
2590.38830200,0.10068960
2592.31710937,0.10058738
2594.24591675,0.10052460
2596.17472412,0.10019846
2598.10353149,0.10005111
2600.03233887,0.09993888
2601.96114624,0.09979793
2603.88995361,0.09958841
2605.81876099,0.09954149
2607.74756836,0.09934140
2609.67637573,0.09910300
2611.60518311,0.09904932
2613.53399048,0.09894122
2615.46279785,0.09881085
2617.39160522,0.09854567
2619.32041260,0.09852250
2621.24921997,0.09830879
2623.17802734,0.09819795
2625.10683472,0.09803489
2627.03564209,0.09774945
2628.96444946,0.09785973
2630.89325684,0.09761587
2632.82206421,0.09744042
2634.75087158,0.09717073
2636.67967895,0.09713873
2638.60848633,0.09708014
2640.53729370,0.09672658
2642.46610107,0.09671061
2644.39490845,0.09642553
2646.32371582,0.09646042
2648.25252319,0.09627328
2650.18133057,0.09610661
2652.11013794,0.09598721
2654.03894531,0.09555932
2655.96775269,0.09565289
2657.89656006,0.09546924
2659.82536743,0.09541620
2661.75417480,0.09523694
2663.68298218,0.09496579
2665.61178955,0.09485468
2667.54059692,0.09466539
2669.46940430,0.09474074
2671.39821167,0.09440696
2673.32701904,0.09429953
2675.25582642,0.09419272
2677.18463379,0.09395885
2679.11344116,0.09385357
2681.04224854,0.09360160
2682.97105591,0.09357000
2684.89986328,0.09340844
2686.82867065,0.09328797
2688.75747803,0.09307744
2690.68628540,0.09282465
2692.61509277,0.09269213
2694.54390015,0.09266514
2696.47270752,0.09254362
2698.40151489,0.09227370
2700.33032227,0.09226570
2702.25912964,0.09198828
2704.18793701,0.09193228
2706.11674438,0.09185348
2708.04555176,0.09155048
2709.97435913,0.09154086
2711.90316650,0.09132071
2713.83197388,0.09114414
2715.76078125,0.09100349
2717.68958862,0.09081468
2719.61839600,0.09063941
2721.54720337,0.09060881
2723.47601074,0.09047288
2725.40481812,0.09021100
2727.33362549,0.09011548
2729.26243286,0.08986174
2731.19124023,0.08977480
2733.12004761,0.08969884
2735.04885498,0.08956113
2736.97766235,0.08935729
2738.90646973,0.08916637
2740.83527710,0.08911108
2742.76408447,0.08890581
2744.69289185,0.08877990
2746.62169922,0.08855000
2748.55050659,0.08838565
2750.47931396,0.08822598
2752.40812134,0.08807563
2754.33692871,0.08801514
2756.26573608,0.08784804
2758.19454346,0.08774817
2760.12335083,0.08755815
2762.05215820,0.08739673
2763.98096558,0.08708195
2765.90977295,0.08696735
2767.83858032,0.08694990
2769.76738770,0.08673351
2771.69619507,0.08659063
2773.62500244,0.08628598
2775.55380981,0.08621872
2777.48261719,0.08598515
2779.41142456,0.08582868
2781.34023193,0.08586990
2783.26903931,0.08559267
2785.19784668,0.08552451
2787.12665405,0.08532991
2789.05546143,0.08506690
2790.98426880,0.08495028
2792.91307617,0.08477983
2794.84188354,0.08465716
2796.77069092,0.08457944
2798.69949829,0.08424756
2800.62830566,0.08406457
2802.55711304,0.08409023
2804.48592041,0.08368550
2806.41472778,0.08356652
2808.34353516,0.08343437
2810.27234253,0.08315141
2812.20114990,0.08304310
2814.12995728,0.08286314
2816.05876465,0.08283978
2817.98757202,0.08266824
2819.91637939,0.08249445
2821.84518677,0.08223920
2823.77399414,0.08203129
2825.70280151,0.08186188
2827.63160889,0.08169666
2829.56041626,0.08167928
2831.48922363,0.08135562
2833.41803101,0.08123933
2835.34683838,0.08105037
2837.27564575,0.08080268
2839.20445312,0.08069437
2841.13326050,0.08042178
2843.06206787,0.08005618
2844.99087524,0.07949616
2846.91968262,0.07919303
2848.84848999,0.07874078
2850.77729736,0.07839012
2852.70610474,0.07839556
2854.63491211,0.07822636
2856.56371948,0.07814348
2858.49252686,0.07811510
2860.42133423,0.07805656
2862.35014160,0.07782833
2864.27894897,0.07769414
2866.20775635,0.07763454
2868.13656372,0.07755725
2870.06537109,0.07740463
2871.99417847,0.07713926
2873.92298584,0.07706603
2875.85179321,0.07688834
2877.78060059,0.07682632
2879.70940796,0.07672882
2881.63821533,0.07654200
2883.56702270,0.07644427
2885.49583008,0.07631438
2887.42463745,0.07622061
2889.35344482,0.07601324
2891.28225220,0.07592340
2893.21105957,0.07568829
2895.13986694,0.07544918
2897.06867432,0.07529117
2898.99748169,0.07504667
2900.92628906,0.07488991
2902.85509644,0.07467821
2904.78390381,0.07447192
2906.71271118,0.07411756
2908.64151855,0.07391454
2910.57032593,0.07358888
2912.49913330,0.07317971
2914.42794067,0.07285304
2916.35674805,0.07239608
2918.28555542,0.07237273
2920.21436279,0.07215907
2922.14317017,0.07197883
2924.07197754,0.07202381
2926.00078491,0.07183982
2927.92959229,0.07174142
2929.85839966,0.07171534
2931.78720703,0.07175579
2933.71601440,0.07160321
2935.64482178,0.07167807
2937.57362915,0.07176578
2939.50243652,0.07162251
2941.43124390,0.07156406
2943.36005127,0.07139766
2945.28885864,0.07143102
2947.21766602,0.07130730
2949.14647339,0.07111821
2951.07528076,0.07108892
2953.00408813,0.07087602
2954.93289551,0.07065873
2956.86170288,0.07048398
2958.79051025,0.07027096
2960.71931763,0.07008801
2962.64812500,0.06991994
2964.57693237,0.06971890
2966.50573975,0.06969436
2968.43454712,0.06957357
2970.36335449,0.06962812
2972.29216187,0.06979288
2974.22096924,0.06972034
2976.14977661,0.06986549
2978.07858398,0.06974243
2980.00739136,0.06963024
2981.93619873,0.06968005
2983.86500610,0.06961796
2985.79381348,0.06957537
2987.72262085,0.06945844
2989.65142822,0.06942810
2991.58023560,0.06919611
2993.50904297,0.06909642
2995.43785034,0.06904757
2997.36665771,0.06889580
2999.29546509,0.06881518
3001.22427246,0.06864782
3003.15307983,0.06856659
3005.08188721,0.06825033
3007.01069458,0.06820437
3008.93950195,0.06817721
3010.86830933,0.06775300
3012.79711670,0.06766295
3014.72592407,0.06759419
3016.65473145,0.06749953
3018.58353882,0.06741619
3020.51234619,0.06724340
3022.44115356,0.06712540
3024.36996094,0.06689356
3026.29876831,0.06669499
3028.22757568,0.06667516
3030.15638306,0.06640659
3032.08519043,0.06614119
3034.01399780,0.06616657
3035.94280518,0.06605741
3037.87161255,0.06603050
3039.80041992,0.06588364
3041.72922729,0.06564324
3043.65803467,0.06549122
3045.58684204,0.06527165
3047.51564941,0.06517822
3049.44445679,0.06501259
3051.37326416,0.06497180
3053.30207153,0.06480738
3055.23087891,0.06449521
3057.15968628,0.06438722
3059.08849365,0.06433295
3061.01730103,0.06428795
3062.94610840,0.06406929
3064.87491577,0.06392887
3066.80372314,0.06369765
3068.73253052,0.06360669
3070.66133789,0.06372719
3072.59014526,0.06360567
3074.51895264,0.06351547
3076.44776001,0.06316493
3078.37656738,0.06283893
3080.30537476,0.06280254
3082.23418213,0.06272726
3084.16298950,0.06259596
3086.09179687,0.06253588
3088.02060425,0.06259909
3089.94941162,0.06239038
3091.87821899,0.06213901
3093.80702637,0.06202773
3095.73583374,0.06182218
3097.66464111,0.06164043
3099.59344849,0.06152613
3101.52225586,0.06135443
3103.45106323,0.06124505
3105.37987061,0.06119321
3107.30867798,0.06105524
3109.23748535,0.06091165
3111.16629272,0.06068929
3113.09510010,0.06057867
3115.02390747,0.06037571
3116.95271484,0.06009757
3118.88152222,0.05997791
3120.81032959,0.05978540
3122.73913696,0.05971449
3124.66794434,0.05956428
3126.59675171,0.05942385
3128.52555908,0.05936373
3130.45436645,0.05921823
3132.38317383,0.05900249
3134.31198120,0.05877735
3136.24078857,0.05869833
3138.16959595,0.05848803
3140.09840332,0.05839097
3142.02721069,0.05821927
3143.95601807,0.05801232
3145.88482544,0.05792176
3147.81363281,0.05771082
3149.74244019,0.05759106
3151.67124756,0.05726559
3153.60005493,0.05718800
3155.52886230,0.05709615
3157.45766968,0.05684609
3159.38647705,0.05685271
3161.31528442,0.05654332
3163.24409180,0.05636463
3165.17289917,0.05622308
3167.10170654,0.05596672
3169.03051392,0.05591889
3170.95932129,0.05576758
3172.88812866,0.05558478
3174.81693604,0.05548378
3176.74574341,0.05524197
3178.67455078,0.05502071
3180.60335815,0.05504669
3182.53216553,0.05486781
3184.46097290,0.05465230
3186.38978027,0.05454443
3188.31858765,0.05433970
3190.24739502,0.05410293
3192.17620239,0.05401437
3194.10500977,0.05399793
3196.03381714,0.05373598
3197.96262451,0.05362055
3199.89143188,0.05347484
3201.82023926,0.05342971
3203.74904663,0.05334566
3205.67785400,0.05306867
3207.60666138,0.05304892
3209.53546875,0.05285306
3211.46427612,0.05282473
3213.39308350,0.05262669
3215.32189087,0.05253052
3217.25069824,0.05260617
3219.17950562,0.05225539
3221.10831299,0.05221073
3223.03712036,0.05204235
3224.96592773,0.05201134
3226.89473511,0.05189367
3228.82354248,0.05169307
3230.75234985,0.05175701
3232.68115723,0.05145783
3234.60996460,0.05150538
3236.53877197,0.05151420
3238.46757935,0.05138200
3240.39638672,0.05126820
3242.32519409,0.05110905
3244.25400146,0.05107265
3246.18280884,0.05089319
3248.11161621,0.05092719
3250.04042358,0.05085955
3251.96923096,0.05080409
3253.89803833,0.05060595
3255.82684570,0.05038004
3257.75565308,0.05051012
3259.68446045,0.05035407
3261.61326782,0.05032265
3263.54207520,0.05035863
3265.47088257,0.05024472
3267.39968994,0.05018509
3269.32849731,0.05002746
3271.25730469,0.04991707
3273.18611206,0.04993361
3275.11491943,0.04979319
3277.04372681,0.04967041
3278.97253418,0.04974584
3280.90134155,0.04964168
3282.83014893,0.04959213
3284.75895630,0.04955354
3286.68776367,0.04954396
3288.61657104,0.04943533
3290.54537842,0.04920356
3292.47418579,0.04916193
3294.40299316,0.04902385
3296.33180054,0.04904441
3298.26060791,0.04892860
3300.18941528,0.04885296
3302.11822266,0.04884756
3304.04703003,0.04864085
3305.97583740,0.04861785
3307.90464478,0.04850390
3309.83345215,0.04856671
3311.76225952,0.04852289
3313.69106689,0.04843196
3315.61987427,0.04843901
3317.54868164,0.04829246
3319.47748901,0.04827508
3321.40629639,0.04816303
3323.33510376,0.04806406
3325.26391113,0.04791515
3327.19271851,0.04788622
3329.12152588,0.04782189
3331.05033325,0.04775523
3332.97914062,0.04779834
3334.90794800,0.04746208
3336.83675537,0.04728115
3338.76556274,0.04737670
3340.69437012,0.04739957
3342.62317749,0.04714032
3344.55198486,0.04712065
3346.48079224,0.04716750
3348.40959961,0.04692531
3350.33840698,0.04681204
3352.26721436,0.04670445
3354.19602173,0.04675139
3356.12482910,0.04656038
3358.05363647,0.04652882
3359.98244385,0.04645236
3361.91125122,0.04623914
3363.84005859,0.04624289
3365.76886597,0.04594198
3367.69767334,0.04601976
3369.62648071,0.04598032
3371.55528809,0.04597466
3373.48409546,0.04588393
3375.41290283,0.04568169
3377.34171020,0.04579301
3379.27051758,0.04547385
3381.19932495,0.04557304
3383.12813232,0.04544714
3385.05693970,0.04520073
3386.98574707,0.04522439
3388.91455444,0.04509037
3390.84336182,0.04494633
3392.77216919,0.04461567
3394.70097656,0.04472624
3396.62978394,0.04455435
3398.55859131,0.04450037
3400.48739868,0.04444145
3402.41620605,0.04419008
3404.34501343,0.04437443
3406.27382080,0.04423482
3408.20262817,0.04420734
3410.13143555,0.04397360
3412.06024292,0.04386121
3413.98905029,0.04385048
3415.91785767,0.04381161
3417.84666504,0.04380846
3419.77547241,0.04337470
3421.70427979,0.04338414
3423.63308716,0.04338913
3425.56189453,0.04340632
3427.49070190,0.04332238
3429.41950928,0.04318989
3431.34831665,0.04305256
3433.27712402,0.04291093
3435.20593140,0.04296787
3437.13473877,0.04259571
3439.06354614,0.04282391
3440.99235352,0.04261447
3442.92116089,0.04236349
3444.84996826,0.04246617
3446.77877563,0.04181820
3448.70758301,0.04204493
3450.63639038,0.04234115
3452.56519775,0.04233048
3454.49400513,0.04225577
3456.42281250,0.04206675
3458.35161987,0.04201311
3460.28042725,0.04177962
3462.20923462,0.04175017
3464.13804199,0.04169270
3466.06684937,0.04166950
3467.99565674,0.04155157
3469.92446411,0.04161378
3471.85327148,0.04166447
3473.78207886,0.04147162
3475.71088623,0.04139443
3477.63969360,0.04146627
3479.56850098,0.04138713
3481.49730835,0.04083093
3483.42611572,0.04107101
3485.35492310,0.04120462
3487.28373047,0.04096397
3489.21253784,0.04104606
3491.14134521,0.04104175
3493.07015259,0.04115470
3494.99895996,0.04087581
3496.92776733,0.04086979
3498.85657471,0.04105383
3500.78538208,0.04095490
3502.71418945,0.04010551
3504.64299683,0.04005278
3506.57180420,0.04102210
3508.50061157,0.04044259
3510.42941895,0.04036458
3512.35822632,0.04062413
3514.28703369,0.04065643
3516.21584106,0.04079966
3518.14464844,0.04049973
3520.07345581,0.04073605
3522.00226318,0.04025274
3523.93107056,0.03972548
3525.85987793,0.03981253
3527.78868530,0.03986252
3529.71749268,0.04004236
3531.64630005,0.04034562
3533.57510742,0.04053244
3535.50391479,0.04002842
3537.43272217,0.03996515
3539.36152954,0.04042634
3541.29033691,0.04043645
3543.21914429,0.03999975
3545.14795166,0.03910443
3547.07675903,0.03858954
3549.00556641,0.03986602
3550.93437378,0.04009373
3552.86318115,0.03907954
3554.79198853,0.03993116
3556.72079590,0.04012332
3558.64960327,0.03998428
3560.57841064,0.03958527
3562.50721802,0.03939041
3564.43602539,0.03970993
3566.36483276,0.03692899
3568.29364014,0.03620584
3570.22244751,0.03910030
3572.15125488,0.03996379
3574.08006226,0.03948034
3576.00886963,0.03962217
3577.93767700,0.03957347
3579.86648437,0.03949399
3581.79529175,0.03940009
3583.72409912,0.03951108
3585.65290649,0.03870026
3587.58171387,0.03552448
3589.51052124,0.03670065
3591.43932861,0.03972390
3593.36813599,0.03856853
3595.29694336,0.03804545
3597.22575073,0.03858915
3599.15455811,0.03891921
3601.08336548,0.03852750
3603.01217285,0.03889439
3604.94098022,0.03955724
3606.86978760,0.03806771
3608.79859497,0.03596076
3610.72740234,0.03677766
3612.65620972,0.03750051
3614.58501709,0.03647802
3616.51382446,0.03914684
3618.44263184,0.03606161
3620.37143921,0.03489502
3622.30024658,0.03932054
3624.22905395,0.03819775
3626.15786133,0.04004918
3628.08666870,0.03373459
3630.01547607,0.03081809
3631.94428345,0.03890353
3633.87309082,0.03772311
3635.80189819,0.03836584
3637.73070557,0.03920998
3639.65951294,0.03864014
3641.58832031,0.03896004
3643.51712769,0.03848977
3645.44593506,0.03874921
3647.37474243,0.03465972
3649.30354980,0.03195540
3651.23235718,0.03239931
3653.16116455,0.03839210
3655.08997192,0.03777309
3657.01877930,0.03390688
3658.94758667,0.03917165
3660.87639404,0.03825160
3662.80520142,0.03871644
3664.73400879,0.03851672
3666.66281616,0.03828472
3668.59162354,0.03709700
3670.52043091,0.03020091
3672.44923828,0.03666802
3674.37804565,0.03462639
3676.30685303,0.02875448
3678.23566040,0.03628444
3680.16446777,0.03697526
3682.09327515,0.03722781
3684.02208252,0.03833038
3685.95088989,0.03762077
3687.87969727,0.03379443
3689.80850464,0.03097446
3691.73731201,0.03540291
3693.66611938,0.03643636
3695.59492676,0.03729486
3697.52373413,0.03730834
3699.45254150,0.03697148
3701.38134888,0.03590836
3703.31015625,0.03462844
3705.23896362,0.03806076
3707.16777100,0.03608635
3709.09657837,0.03531074
3711.02538574,0.03312043
3712.95419312,0.03105630
3714.88300049,0.03646074
3716.81180786,0.03592355
3718.74061523,0.03622128
3720.66942261,0.03536636
3722.59822998,0.03424699
3724.52703735,0.03543982
3726.45584473,0.03287013
3728.38465210,0.03560837
3730.31345947,0.03513183
3732.24226685,0.03242327
3734.17107422,0.03153931
3736.09988159,0.02993713
3738.02868896,0.03168848
3739.95749634,0.03433199
3741.88630371,0.03591504
3743.81511108,0.02772662
3745.74391846,0.02641337
3747.67272583,0.03426572
3749.60153320,0.02930655
3751.53034058,0.02711348
3753.45914795,0.03114797
3755.38795532,0.03352077
3757.31676270,0.03489879
3759.24557007,0.03221594
3761.17437744,0.03329457
3763.10318481,0.03535450
3765.03199219,0.03300598
3766.96079956,0.03375390
3768.88960693,0.03327195
3770.81841431,0.03174976
3772.74722168,0.03449416
3774.67602905,0.03446709
3776.60483643,0.03444865
3778.53364380,0.03348008
3780.46245117,0.03221122
3782.39125854,0.03441129
3784.32006592,0.03346800
3786.24887329,0.03333327
3788.17768066,0.03411859
3790.10648804,0.03386497
3792.03529541,0.03363523
3793.96410278,0.03409661
3795.89291016,0.03206950
3797.82171753,0.03170895
3799.75052490,0.03338668
3801.67933228,0.02651089
3803.60813965,0.03100200
3805.53694702,0.03349953
3807.46575439,0.02743471
3809.39456177,0.03337440
3811.32336914,0.03259483
3813.25217651,0.03367325
3815.18098389,0.03037312
3817.10979126,0.02672576
3819.03859863,0.03364792
3820.96740601,0.02709635
3822.89621338,0.02873377
3824.82502075,0.03340164
3826.75382812,0.03017325
3828.68263550,0.03255835
3830.61144287,0.03110019
3832.54025024,0.03013330
3834.46905762,0.03082495
3836.39786499,0.02929190
3838.32667236,0.02655247
3840.25547974,0.02871915
3842.18428711,0.03091700
3844.11309448,0.02947688
3846.04190186,0.03180787
3847.97070923,0.03131385
3849.89951660,0.03145999
3851.82832397,0.02814420
3853.75713135,0.02105694
3855.68593872,0.02524495
3857.61474609,0.03143637
3859.54355347,0.03045258
3861.47236084,0.03025634
3863.40116821,0.02951822
3865.32997559,0.02744225
3867.25878296,0.03074815
3869.18759033,0.02791161
3871.11639770,0.02590247
3873.04520508,0.03070896
3874.97401245,0.02812186
3876.90281982,0.03052673
3878.83162720,0.03095730
3880.76043457,0.02650804
3882.68924194,0.03059968
3884.61804932,0.02857729
3886.54685669,0.02618858
3888.47566406,0.03059915
3890.40447144,0.02893783
3892.33327881,0.02708111
3894.26208618,0.02977954
3896.19089355,0.03027821
3898.11970093,0.02877126
3900.04850830,0.02725785
3901.97731567,0.02695516
3903.90612305,0.02667030
3905.83493042,0.02705630
3907.76373779,0.02970332
3909.69254517,0.02969143
3911.62135254,0.02936456
3913.55015991,0.02977826
3915.47896728,0.02874468
3917.40777466,0.02803769
3919.33658203,0.02775380
3921.26538940,0.02883492
3923.19419678,0.02871667
3925.12300415,0.02812595
3927.05181152,0.02856971
3928.98061890,0.02888831
3930.90942627,0.02836831
3932.83823364,0.02733728
3934.76704102,0.02848541
3936.69584839,0.02864559
3938.62465576,0.02848490
3940.55346313,0.02876173
3942.48227051,0.02755503
3944.41107788,0.02793227
3946.33988525,0.02835775
3948.26869263,0.02763231
3950.19750000,0.02759574
3952.12630737,0.02797898
3954.05511475,0.02798971
3955.98392212,0.02797976
3957.91272949,0.02792784
3959.84153687,0.02788651
3961.77034424,0.02771989
3963.69915161,0.02748859
3965.62795898,0.02787701
3967.55676636,0.02760160
3969.48557373,0.02749141
3971.41438110,0.02747209
3973.34318848,0.02725896
3975.27199585,0.02729905
3977.20080322,0.02719909
3979.12961060,0.02747640
3981.05841797,0.02713246
3982.98722534,0.02717692
3984.91603271,0.02713543
3986.84484009,0.02697335
3988.77364746,0.02713111
3990.70245483,0.02671696
3992.63126221,0.02690715
3994.56006958,0.02667780
3996.48887695,0.02669078
3998.41768433,0.02673046
4000.34649170,0.02647333
4002.27529907,0.02666026
4004.20410645,0.02646597
4006.13291382,0.02650986
4008.06172119,0.02630733
4009.99052856,0.02627447
4011.91933594,0.02629288
4013.84814331,0.02627401
4015.77695068,0.02628392
4017.70575806,0.02599340
4019.63456543,0.02598016
4021.56337280,0.02587432
4023.49218018,0.02599419
4025.42098755,0.02573020
4027.34979492,0.02567831
4029.27860229,0.02582726
4031.20740967,0.02559911
4033.13621704,0.02564770
4035.06502441,0.02555197
4036.99383179,0.02558985
4038.92263916,0.02538990
4040.85144653,0.02537575
4042.78025391,0.02532170
4044.70906128,0.02518437
4046.63786865,0.02524001
4048.56667603,0.02508048
4050.49548340,0.02520181
4052.42429077,0.02498444
4054.35309814,0.02500661
4056.28190552,0.02496579
4058.21071289,0.02488989
4060.13952026,0.02496352
4062.06832764,0.02471167
4063.99713501,0.02479493
4065.92594238,0.02455857
4067.85474976,0.02453356
4069.78355713,0.02455083
4071.71236450,0.02448266
4073.64117187,0.02446433
4075.56997925,0.02428659
4077.49878662,0.02436621
4079.42759399,0.02421574
4081.35640137,0.02420985
4083.28520874,0.02410925
4085.21401611,0.02405439
4087.14282349,0.02400429
4089.07163086,0.02399437
4091.00043823,0.02403582
4092.92924561,0.02383332
4094.85805298,0.02394000
4096.78686035,0.02366902
4098.71566772,0.02376767
4100.64447510,0.02370388
4102.57328247,0.02336920
4104.50208984,0.02359157
4106.43089722,0.02338047
4108.35970459,0.02337017
4110.28851196,0.02330783
4112.21731934,0.02327496
4114.14612671,0.02333478
4116.07493408,0.02321713
4118.00374145,0.02320799
4119.93254883,0.02308678
4121.86135620,0.02303522
4123.79016357,0.02290794
4125.71897095,0.02299141
4127.64777832,0.02294030
4129.57658569,0.02277999
4131.50539307,0.02271605
4133.43420044,0.02264296
4135.36300781,0.02268505
4137.29181519,0.02254437
4139.22062256,0.02253486
4141.14942993,0.02251052
4143.07823730,0.02249819
4145.00704468,0.02241248
4146.93585205,0.02230123
4148.86465942,0.02223073
4150.79346680,0.02218359
4152.72227417,0.02220616
4154.65108154,0.02203341
4156.57988892,0.02213083
4158.50869629,0.02203772
4160.43750366,0.02195150
4162.36631103,0.02192545
4164.29511841,0.02186438
4166.22392578,0.02189417
4168.15273315,0.02168680
4170.08154053,0.02179465
4172.01034790,0.02161528
4173.93915527,0.02154063
4175.86796265,0.02157817
4177.79677002,0.02148752
4179.72557739,0.02148034
4181.65438477,0.02129782
4183.58319214,0.02144059
4185.51199951,0.02122705
4187.44080688,0.02120841
4189.36961426,0.02115036
4191.29842163,0.02098951
4193.22722900,0.02121177
4195.15603638,0.02101380
4197.08484375,0.02104014
4199.01365112,0.02092502
4200.94245850,0.02085708
4202.87126587,0.02086158
4204.80007324,0.02075865
4206.72888062,0.02080757
4208.65768799,0.02069321
4210.58649536,0.02068752
4212.51530273,0.02053436
4214.44411011,0.02054800
4216.37291748,0.02046298
4218.30172485,0.02042977
4220.23053223,0.02050582
4222.15933960,0.02035972
4224.08814697,0.02035400
4226.01695435,0.02020985
4227.94576172,0.02020022
4229.87456909,0.02012521
4231.80337646,0.02014886
4233.73218384,0.02005983
4235.66099121,0.02001102
4237.58979858,0.02009363
4239.51860596,0.01983069
4241.44741333,0.01988482
4243.37622070,0.01972656
4245.30502808,0.01975048
4247.23383545,0.01972008
4249.16264282,0.01958443
4251.09145020,0.01972743
4253.02025757,0.01951975
4254.94906494,0.01955028
4256.87787231,0.01941807
4258.80667969,0.01941371
4260.73548706,0.01940620
4262.66429443,0.01929141
4264.59310181,0.01938931
4266.52190918,0.01922596
4268.45071655,0.01921109
4270.37952393,0.01913292
4272.30833130,0.01916235
4274.23713867,0.01910760
4276.16594604,0.01903476
4278.09475342,0.01903850
4280.02356079,0.01896279
4281.95236816,0.01890943
4283.88117554,0.01869947
4285.80998291,0.01880832
4287.73879028,0.01874464
4289.66759766,0.01876707
4291.59640503,0.01868477
4293.52521240,0.01850158
4295.45401978,0.01857150
4297.38282715,0.01841017
4299.31163452,0.01850913
4301.24044189,0.01835486
4303.16924927,0.01842680
4305.09805664,0.01839515
4307.02686401,0.01818547
4308.95567139,0.01835923
4310.88447876,0.01815840
4312.81328613,0.01825265
4314.74209351,0.01815548
4316.67090088,0.01805015
4318.59970825,0.01806235
4320.52851562,0.01796708
4322.45732300,0.01803625
4324.38613037,0.01783159
4326.31493774,0.01788762
4328.24374512,0.01783384
4330.17255249,0.01777666
4332.10135986,0.01776741
4334.03016724,0.01767064
4335.95897461,0.01768523
4337.88778198,0.01755082
4339.81658936,0.01746679
4341.74539673,0.01738086
4343.67420410,0.01753174
4345.60301147,0.01751449
4347.53181885,0.01741551
4349.46062622,0.01736331
4351.38943359,0.01726459
4353.31824097,0.01729946
4355.24704834,0.01720666
4357.17585571,0.01726470
4359.10466309,0.01707436
4361.03347046,0.01699563
4362.96227783,0.01703122
4364.89108520,0.01695958
4366.81989258,0.01701358
4368.74869995,0.01687207
4370.67750732,0.01691890
4372.60631470,0.01688596
4374.53512207,0.01686947
4376.46392944,0.01676564
4378.39273682,0.01667903
4380.32154419,0.01672393
4382.25035156,0.01659487
4384.17915894,0.01666352
4386.10796631,0.01648353
4388.03677368,0.01648152
4389.96558105,0.01648043
4391.89438843,0.01630697
4393.82319580,0.01635547
4395.75200317,0.01627272
4397.68081055,0.01632722
4399.60961792,0.01626467
4401.53842529,0.01618043
4403.46723267,0.01617421
4405.39604004,0.01619279
4407.32484741,0.01610434
4409.25365478,0.01595192
4411.18246216,0.01601964
4413.11126953,0.01595112
4415.04007690,0.01593836
4416.96888428,0.01584614
4418.89769165,0.01583960
4420.82649902,0.01584672
4422.75530640,0.01570069
4424.68411377,0.01573286
4426.61292114,0.01567290
4428.54172852,0.01564021
4430.47053589,0.01554839
4432.39934326,0.01554593
4434.32815063,0.01553375
4436.25695801,0.01543297
4438.18576538,0.01546621
4440.11457275,0.01536907
4442.04338013,0.01533307
4443.97218750,0.01530480
4445.90099487,0.01528494
4447.82980225,0.01529417
4449.75860962,0.01526229
4451.68741699,0.01516015
4453.61622437,0.01511364
4455.54503174,0.01515694
4457.47383911,0.01502922
4459.40264648,0.01500616
4461.33145386,0.01498147
4463.26026123,0.01493561
4465.18906860,0.01492764
4467.11787598,0.01485311
4469.04668335,0.01477453
4470.97549072,0.01471801
4472.90429810,0.01474419
4474.83310547,0.01471770
4476.76191284,0.01472746
4478.69072021,0.01466943
4480.61952759,0.01459699
4482.54833496,0.01454037
4484.47714233,0.01453928
4486.40594971,0.01456176
4488.33475708,0.01442316
4490.26356445,0.01444789
4492.19237183,0.01437658
4494.12117920,0.01431788
4496.04998657,0.01433023
4497.97879395,0.01428912
4499.90760132,0.01426808
4501.83640869,0.01411626
4503.76521606,0.01414548
4505.69402344,0.01413623
4507.62283081,0.01409601
4509.55163818,0.01407995
4511.48044556,0.01401303
4513.40925293,0.01397624
4515.33806030,0.01390856
4517.26686768,0.01393619
4519.19567505,0.01390886
4521.12448242,0.01387458
4523.05328979,0.01376150
4524.98209717,0.01375385
4526.91090454,0.01377280
4528.83971191,0.01367363
4530.76851929,0.01367188
4532.69732666,0.01358776
4534.62613403,0.01362314
4536.55494141,0.01355610
4538.48374878,0.01346029
4540.41255615,0.01343926
4542.34136353,0.01338958
4544.27017090,0.01343991
4546.19897827,0.01338821
4548.12778564,0.01337574
4550.05659302,0.01330415
4551.98540039,0.01327022
4553.91420776,0.01322618
4555.84301514,0.01318557
4557.77182251,0.01316710
4559.70062988,0.01303304
4561.62943726,0.01310726
4563.55824463,0.01311623
4565.48705200,0.01307246
4567.41585937,0.01301375
4569.34466675,0.01300686
4571.27347412,0.01297966
4573.20228149,0.01284287
4575.13108887,0.01284642
4577.05989624,0.01276715
4578.98870361,0.01280523
4580.91751099,0.01275067
4582.84631836,0.01269836
4584.77512573,0.01274050
4586.70393311,0.01260641
4588.63274048,0.01260332
4590.56154785,0.01259275
4592.49035522,0.01252667
4594.41916260,0.01245714
4596.34796997,0.01254303
4598.27677734,0.01253504
4600.20558472,0.01244904
4602.13439209,0.01243259
4604.06319946,0.01234281
4605.99200684,0.01237246
4607.92081421,0.01220520
4609.84962158,0.01223549
4611.77842895,0.01229677
4613.70723633,0.01219110
4615.63604370,0.01226417
4617.56485107,0.01215129
4619.49365845,0.01208967
4621.42246582,0.01201522
4623.35127319,0.01201420
4625.28008057,0.01202935
4627.20888794,0.01195683
4629.13769531,0.01202310
4631.06650269,0.01194118
4632.99531006,0.01184911
4634.92411743,0.01183344
4636.85292480,0.01181961
4638.78173218,0.01174656
4640.71053955,0.01170840
4642.63934692,0.01170859
4644.56815430,0.01173512
4646.49696167,0.01173509
4648.42576904,0.01159957
4650.35457642,0.01158265
4652.28338379,0.01155971
4654.21219116,0.01157413
4656.14099853,0.01149706
4658.06980591,0.01143145
4659.99861328,0.01144682
4661.92742065,0.01131647
4663.85622803,0.01135092
4665.78503540,0.01133301
4667.71384277,0.01131381
4669.64265015,0.01127942
4671.57145752,0.01122330
4673.50026489,0.01121190
4675.42907227,0.01113081
4677.35787964,0.01124745
4679.28668701,0.01124059
4681.21549438,0.01111434
4683.14430176,0.01104388
4685.07310913,0.01100518
4687.00191650,0.01102224
4688.93072388,0.01101105
4690.85953125,0.01094397
4692.78833862,0.01089763
4694.71714600,0.01094948
4696.64595337,0.01089492
4698.57476074,0.01090093
4700.50356812,0.01083427
4702.43237549,0.01080146
4704.36118286,0.01087832
4706.28999023,0.01077468
4708.21879761,0.01072370
4710.14760498,0.01064384
4712.07641235,0.01066111
4714.00521973,0.01063230
4715.93402710,0.01060459
4717.86283447,0.01062304
4719.79164185,0.01057855
4721.72044922,0.01065006
4723.64925659,0.01043105
4725.57806396,0.01036867
4727.50687134,0.01047353
4729.43567871,0.01041117
4731.36448608,0.01040974
4733.29329346,0.01033781
4735.22210083,0.01034178
4737.15090820,0.01036385
4739.07971558,0.01029163
4741.00852295,0.01021247
4742.93733032,0.01024446
4744.86613770,0.01022934
4746.79494507,0.01020102
4748.72375244,0.01019741
4750.65255981,0.01011691
4752.58136719,0.01011692
4754.51017456,0.01004139
4756.43898193,0.01004711
4758.36778931,0.01000078
4760.29659668,0.00996733
4762.22540405,0.01001792
4764.15421143,0.00990744
4766.08301880,0.00994420
4768.01182617,0.00994493
4769.94063354,0.00985452
4771.86944092,0.00980188
4773.79824829,0.00979874
4775.72705566,0.00972176
4777.65586304,0.00972159
4779.58467041,0.00980057
4781.51347778,0.00968572
4783.44228516,0.00971736
4785.37109253,0.00967892
4787.29989990,0.00964115
4789.22870728,0.00962234
4791.15751465,0.00955126
4793.08632202,0.00954243
4795.01512939,0.00952290
4796.94393677,0.00960562
4798.87274414,0.00948007
4800.80155151,0.00949943
4802.73035889,0.00946483
4804.65916626,0.00935642
4806.58797363,0.00941719
4808.51678101,0.00929344
4810.44558838,0.00936614
4812.37439575,0.00935067
4814.30320312,0.00933260
4816.23201050,0.00926933
4818.16081787,0.00918037
4820.08962524,0.00928375
4822.01843262,0.00918200
4823.94723999,0.00916830
4825.87604736,0.00910055
4827.80485474,0.00912179
4829.73366211,0.00908448
4831.66246948,0.00892418
4833.59127686,0.00903529
4835.52008423,0.00902623
4837.44889160,0.00898049
4839.37769897,0.00893496
4841.30650635,0.00892184
4843.23531372,0.00891926
4845.16412109,0.00892377
4847.09292847,0.00887842
4849.02173584,0.00878697
4850.95054321,0.00884373
4852.87935059,0.00875890
4854.80815796,0.00871175
4856.73696533,0.00873622
4858.66577270,0.00872313
4860.59458008,0.00865952
4862.52338745,0.00867638
4864.45219482,0.00876799
4866.38100220,0.00866966
4868.30980957,0.00859050
4870.23861694,0.00851643
4872.16742432,0.00857223
4874.09623169,0.00856484
4876.02503906,0.00851738
4877.95384644,0.00851097
4879.88265381,0.00837761
4881.81146118,0.00844452
4883.74026855,0.00841215
4885.66907593,0.00839706
4887.59788330,0.00844329
4889.52669067,0.00838432
4891.45549805,0.00833374
4893.38430542,0.00823674
4895.31311279,0.00824668
4897.24192017,0.00822270
4899.17072754,0.00825456
4901.09953491,0.00826857
4903.02834228,0.00826460
4904.95714966,0.00820527
4906.88595703,0.00803535
4908.81476440,0.00811530
4910.74357178,0.00811278
4912.67237915,0.00806876
4914.60118652,0.00813023
4916.52999390,0.00805628
4918.45880127,0.00800901
4920.38760864,0.00806616
4922.31641602,0.00803393
4924.24522339,0.00795795
4926.17403076,0.00792080
4928.10283813,0.00788791
4930.03164551,0.00793859
4931.96045288,0.00788426
4933.88926025,0.00783679
4935.81806763,0.00781363
4937.74687500,0.00778379
4939.67568237,0.00777085
4941.60448975,0.00769000
4943.53329712,0.00775342
4945.46210449,0.00771916
4947.39091187,0.00774317
4949.31971924,0.00777681
4951.24852661,0.00768990
4953.17733398,0.00767033
4955.10614136,0.00756267
4957.03494873,0.00756943
4958.96375610,0.00750438
4960.89256348,0.00750559
4962.82137085,0.00756253
4964.75017822,0.00746896
4966.67898560,0.00750917
4968.60779297,0.00749588
4970.53660034,0.00740343
4972.46540771,0.00737086
4974.39421509,0.00742911
4976.32302246,0.00731290
4978.25182983,0.00729610
4980.18063721,0.00738505
4982.10944458,0.00723254
4984.03825195,0.00730303
4985.96705933,0.00730481
4987.89586670,0.00726355
4989.82467407,0.00731901
4991.75348145,0.00717205
4993.68228882,0.00714091
4995.61109619,0.00720473
4997.53990356,0.00715878
4999.46871094,0.00715206
5001.39751831,0.00718698
5003.32632568,0.00707381
5005.25513306,0.00702307
5007.18394043,0.00701165
5009.11274780,0.00698712
5011.04155518,0.00700084
5012.97036255,0.00694554
5014.89916992,0.00698310
5016.82797729,0.00697501
5018.75678467,0.00694444
5020.68559204,0.00692117
5022.61439941,0.00692351
5024.54320679,0.00694653
5026.47201416,0.00685218
5028.40082153,0.00681952
5030.32962891,0.00677325
5032.25843628,0.00676448
5034.18724365,0.00680695
5036.11605103,0.00681061
5038.04485840,0.00677810
5039.97366577,0.00672477
5041.90247314,0.00668650
5043.83128052,0.00666354
5045.76008789,0.00666938
5047.68889526,0.00660675
5049.61770264,0.00665822
5051.54651001,0.00661160
5053.47531738,0.00651916
5055.40412476,0.00661975
5057.33293213,0.00656669
5059.26173950,0.00652590
5061.19054687,0.00653698
5063.11935425,0.00651434
5065.04816162,0.00652457
5066.97696899,0.00648947
5068.90577637,0.00641570
5070.83458374,0.00646941
5072.76339111,0.00645397
5074.69219849,0.00632890
5076.62100586,0.00642281
5078.54981323,0.00640001
5080.47862061,0.00632932
5082.40742798,0.00631363
5084.33623535,0.00633347
5086.26504272,0.00633394
5088.19385010,0.00625580
5090.12265747,0.00633023
5092.05146484,0.00624260
5093.98027222,0.00625652
5095.90907959,0.00621990
5097.83788696,0.00613457
5099.76669434,0.00620632
5101.69550171,0.00604405
5103.62430908,0.00612563
5105.55311645,0.00616491
5107.48192383,0.00606664
5109.41073120,0.00606131
5111.33953857,0.00606841
5113.26834595,0.00610260
5115.19715332,0.00599963
5117.12596069,0.00604739
5119.05476807,0.00600904
5120.98357544,0.00595201
5122.91238281,0.00600614
5124.84119019,0.00599968
5126.76999756,0.00593605
5128.69880493,0.00587665
5130.62761230,0.00594146
5132.55641968,0.00581903
5134.48522705,0.00585278
5136.41403442,0.00591234
5138.34284180,0.00581363
5140.27164917,0.00585620
5142.20045654,0.00580345
5144.12926392,0.00576898
5146.05807129,0.00575760
5147.98687866,0.00572860
5149.91568603,0.00566008
5151.84449341,0.00568133
5153.77330078,0.00568108
5155.70210815,0.00563397
5157.63091553,0.00570108
5159.55972290,0.00560874
5161.48853027,0.00564890
5163.41733765,0.00561492
5165.34614502,0.00553180
5167.27495239,0.00562029
5169.20375977,0.00552830
5171.13256714,0.00556098
5173.06137451,0.00562559
5174.99018188,0.00557436
5176.91898926,0.00553408
5178.84779663,0.00546553
5180.77660400,0.00549787
5182.70541138,0.00549359
5184.63421875,0.00532723
5186.56302612,0.00534891
5188.49183350,0.00545447
5190.42064087,0.00539993
5192.34944824,0.00541007
5194.27825562,0.00531909
5196.20706299,0.00525485
5198.13587036,0.00530649
5200.06467773,0.00528381
5201.99348511,0.00534560
5203.92229248,0.00539871
5205.85109985,0.00525935
5207.77990723,0.00509383
5209.70871460,0.00512730
5211.63752197,0.00520229
5213.56632935,0.00529926
5215.49513672,0.00521397
5217.42394409,0.00509146
5219.35275146,0.00518225
5221.28155884,0.00519127
5223.21036621,0.00521934
5225.13917358,0.00506320
5227.06798096,0.00504697
5228.99678833,0.00517324
5230.92559570,0.00511288
5232.85440308,0.00506624
5234.78321045,0.00500233
5236.71201782,0.00516629
5238.64082520,0.00501874
5240.56963257,0.00495714
5242.49843994,0.00511273
5244.42724731,0.00488685
5246.35605469,0.00493928
5248.28486206,0.00489722
5250.21366943,0.00489556
5252.14247681,0.00500508
5254.07128418,0.00485382
5256.00009155,0.00487572
5257.92889893,0.00491573
5259.85770630,0.00495650
5261.78651367,0.00487634
5263.71532104,0.00468872
5265.64412842,0.00475124
5267.57293579,0.00485593
5269.50174316,0.00473913
5271.43055054,0.00478369
5273.35935791,0.00488986
5275.28816528,0.00473756
5277.21697266,0.00477296
5279.14578003,0.00476017
5281.07458740,0.00474205
5283.00339478,0.00481702
5284.93220215,0.00467358
5286.86100952,0.00467415
5288.78981689,0.00472084
5290.71862427,0.00464239
5292.64743164,0.00464793
5294.57623901,0.00468925
5296.50504639,0.00464581
5298.43385376,0.00461273
5300.36266113,0.00456185
5302.29146851,0.00456139
5304.22027588,0.00465568
5306.14908325,0.00455357
5308.07789062,0.00446342
5310.00669800,0.00450846
5311.93550537,0.00450421
5313.86431274,0.00449583
5315.79312012,0.00453223
5317.72192749,0.00454409
5319.65073486,0.00453408
5321.57954224,0.00447528
5323.50834961,0.00445677
5325.43715698,0.00455449
5327.36596436,0.00444473
5329.29477173,0.00441694
5331.22357910,0.00444716
5333.15238647,0.00432767
5335.08119385,0.00442903
5337.01000122,0.00435276
5338.93880859,0.00412146
5340.86761597,0.00429749
5342.79642334,0.00439946
5344.72523071,0.00414247
5346.65403809,0.00422047
5348.58284546,0.00429631
5350.51165283,0.00422256
5352.44046020,0.00425904
5354.36926758,0.00407730
5356.29807495,0.00425596
5358.22688232,0.00429886
5360.15568970,0.00413699
5362.08449707,0.00426717
5364.01330444,0.00414530
5365.94211182,0.00412742
5367.87091919,0.00411396
5369.79972656,0.00410717
5371.72853394,0.00412640
5373.65734131,0.00409631
5375.58614868,0.00413379
5377.51495605,0.00404817
5379.44376343,0.00411513
5381.37257080,0.00407276
5383.30137817,0.00404782
5385.23018555,0.00403802
5387.15899292,0.00397879
5389.08780029,0.00408515
5391.01660767,0.00401407
5392.94541504,0.00397257
5394.87422241,0.00389307
5396.80302978,0.00390127
5398.73183716,0.00402056
5400.66064453,0.00398753
5402.58945190,0.00393938
5404.51825928,0.00386008
5406.44706665,0.00388078
5408.37587402,0.00386904
5410.30468140,0.00388650
5412.23348877,0.00388715
5414.16229614,0.00372354
5416.09110352,0.00377680
5418.01991089,0.00395733
5419.94871826,0.00385994
5421.87752563,0.00379402
5423.80633301,0.00391617
5425.73514038,0.00386324
5427.66394775,0.00379840
5429.59275513,0.00364118
5431.52156250,0.00365539
5433.45036987,0.00378759
5435.37917725,0.00363341
5437.30798462,0.00374683
5439.23679199,0.00377385
5441.16559936,0.00366488
5443.09440674,0.00371489
5445.02321411,0.00364704
5446.95202148,0.00363564
5448.88082886,0.00368868
5450.80963623,0.00365052
5452.73844360,0.00361418
5454.66725098,0.00368396
5456.59605835,0.00361332
5458.52486572,0.00362993
5460.45367310,0.00363906
5462.38248047,0.00346565
5464.31128784,0.00354584
5466.24009521,0.00359997
5468.16890259,0.00357108
5470.09770996,0.00352882
5472.02651733,0.00358259
5473.95532471,0.00357358
5475.88413208,0.00337677
5477.81293945,0.00345632
5479.74174683,0.00350652
5481.67055420,0.00350074
5483.59936157,0.00354980
5485.52816895,0.00351539
5487.45697632,0.00340623
5489.38578369,0.00337569
5491.31459106,0.00347211
5493.24339844,0.00337392
5495.17220581,0.00340270
5497.10101318,0.00344019
5499.02982056,0.00336078
5500.95862793,0.00341267
5502.88743530,0.00338513
5504.81624268,0.00338922
5506.74505005,0.00332346
5508.67385742,0.00332031
5510.60266479,0.00340942
5512.53147217,0.00333315
5514.46027954,0.00334311
5516.38908691,0.00327175
5518.31789429,0.00324894
5520.24670166,0.00337288
5522.17550903,0.00329537
5524.10431641,0.00329524
5526.03312378,0.00324647
5527.96193115,0.00318690
5529.89073853,0.00330756
5531.81954590,0.00323751
5533.74835327,0.00324008
5535.67716064,0.00325252
5537.60596802,0.00320468
5539.53477539,0.00324774
5541.46358276,0.00317104
5543.39239014,0.00316603
5545.32119751,0.00315780
5547.25000488,0.00316758
5549.17881226,0.00320804
5551.10761963,0.00316856
5553.03642700,0.00317254
5554.96523437,0.00317791
5556.89404175,0.00321904
5558.82284912,0.00320133
5560.75165649,0.00316595
5562.68046387,0.00313657
5564.60927124,0.00312502
5566.53807861,0.00309612
5568.46688599,0.00305186
5570.39569336,0.00309203
5572.32450073,0.00301684
5574.25330811,0.00308148
5576.18211548,0.00312415
5578.11092285,0.00299081
5580.03973022,0.00304675
5581.96853760,0.00306100
5583.89734497,0.00299504
5585.82615234,0.00300551
5587.75495972,0.00297297
5589.68376709,0.00290926
5591.61257446,0.00296073
5593.54138184,0.00293784
5595.47018921,0.00294361
5597.39899658,0.00300943
5599.32780395,0.00295348
5601.25661133,0.00298590
5603.18541870,0.00291177
5605.11422607,0.00290356
5607.04303345,0.00294854
5608.97184082,0.00290072
5610.90064819,0.00296334
5612.82945557,0.00291721
5614.75826294,0.00291607
5616.68707031,0.00289640
5618.61587769,0.00285770
5620.54468506,0.00290540
5622.47349243,0.00283808
5624.40229980,0.00277739
5626.33110718,0.00278424
5628.25991455,0.00281982
5630.18872192,0.00281083
5632.11752930,0.00277599
5634.04633667,0.00274293
5635.97514404,0.00277596
5637.90395142,0.00277270
5639.83275879,0.00271796
5641.76156616,0.00277645
5643.69037353,0.00278113
5645.61918091,0.00274448
5647.54798828,0.00273602
5649.47679565,0.00277431
5651.40560303,0.00272610
5653.33441040,0.00266434
5655.26321777,0.00270564
5657.19202515,0.00270972
5659.12083252,0.00269586
5661.04963989,0.00264626
5662.97844727,0.00270368
5664.90725464,0.00264853
5666.83606201,0.00259133
5668.76486938,0.00269919
5670.69367676,0.00268904
5672.62248413,0.00265624
5674.55129150,0.00256123
5676.48009888,0.00260410
5678.40890625,0.00264641
5680.33771362,0.00261668
5682.26652100,0.00267933
5684.19532837,0.00261984
5686.12413574,0.00254930
5688.05294311,0.00255295
5689.98175049,0.00260913
5691.91055786,0.00255821
5693.83936523,0.00260337
5695.76817261,0.00259610
5697.69697998,0.00248095
5699.62578735,0.00257093
5701.55459473,0.00247881
5703.48340210,0.00251269
5705.41220947,0.00258379
5707.34101685,0.00247974
5709.26982422,0.00253474
5711.19863159,0.00250870
5713.12743896,0.00242970
5715.05624634,0.00242182
5716.98505371,0.00242066
5718.91386108,0.00242093
5720.84266846,0.00248742
5722.77147583,0.00241340
5724.70028320,0.00234694
5726.62909058,0.00242850
5728.55789795,0.00236569
5730.48670532,0.00237387
5732.41551270,0.00238568
5734.34432007,0.00230505
5736.27312744,0.00231733
5738.20193481,0.00236469
5740.13074219,0.00227886
5742.05954956,0.00230262
5743.98835693,0.00238825
5745.91716431,0.00231333
5747.84597168,0.00238446
5749.77477905,0.00231831
5751.70358643,0.00230862
5753.63239380,0.00234008
5755.56120117,0.00224621
5757.49000854,0.00233228
5759.41881592,0.00228686
5761.34762329,0.00232268
5763.27643066,0.00227747
5765.20523804,0.00220793
5767.13404541,0.00226277
5769.06285278,0.00218117
5770.99166016,0.00225923
5772.92046753,0.00228187
5774.84927490,0.00227371
5776.77808228,0.00225740
5778.70688965,0.00219531
5780.63569702,0.00225448
5782.56450439,0.00227153
5784.49331177,0.00217114
5786.42211914,0.00218332
5788.35092651,0.00226297
5790.27973389,0.00213245
5792.20854126,0.00215241
5794.13734863,0.00212225
5796.06615601,0.00214980
5797.99496338,0.00225602
5799.92377075,0.00209738
5801.85257812,0.00216391
5803.78138550,0.00213604
5805.71019287,0.00210561
5807.63900024,0.00210757
5809.56780762,0.00204510
5811.49661499,0.00212345
5813.42542236,0.00207275
5815.35422974,0.00211909
5817.28303711,0.00205711
5819.21184448,0.00204943
5821.14065186,0.00207098
5823.06945923,0.00199947
5824.99826660,0.00210432
5826.92707397,0.00199541
5828.85588135,0.00202587
5830.78468872,0.00208049
5832.71349609,0.00196373
5834.64230347,0.00200801
5836.57111084,0.00200049
5838.49991821,0.00201428
5840.42872559,0.00202552
5842.35753296,0.00197785
5844.28634033,0.00198972
5846.21514770,0.00198226
5848.14395508,0.00193526
5850.07276245,0.00192282
5852.00156982,0.00192056
5853.93037720,0.00195993
5855.85918457,0.00194142
5857.78799194,0.00188574
5859.71679932,0.00190949
5861.64560669,0.00186682
5863.57441406,0.00189062
5865.50322144,0.00191640
5867.43202881,0.00192845
5869.36083618,0.00193117
5871.28964355,0.00186895
5873.21845093,0.00186319
5875.14725830,0.00185308
5877.07606567,0.00192487
5879.00487305,0.00190188
5880.93368042,0.00191513
5882.86248779,0.00189593
5884.79129517,0.00176543
5886.72010254,0.00187366
5888.64890991,0.00185358
5890.57771728,0.00184710
5892.50652466,0.00185561
5894.43533203,0.00178858
5896.36413940,0.00185210
5898.29294678,0.00179692
5900.22175415,0.00178239
5902.15056152,0.00181981
5904.07936890,0.00182563
5906.00817627,0.00181218
5907.93698364,0.00177710
5909.86579102,0.00177288
5911.79459839,0.00178461
5913.72340576,0.00180528
5915.65221313,0.00176531
5917.58102051,0.00180289
5919.50982788,0.00183134
5921.43863525,0.00180498
5923.36744263,0.00178267
5925.29625000,0.00173368
5927.22505737,0.00174068
5929.15386475,0.00167672
5931.08267212,0.00164324
5933.01147949,0.00173216
5934.94028686,0.00172471
5936.86909424,0.00167680
5938.79790161,0.00175202
5940.72670898,0.00175293
5942.65551636,0.00166729
5944.58432373,0.00169253
5946.51313110,0.00166867
5948.44193848,0.00167826
5950.37074585,0.00178433
5952.29955322,0.00172951
5954.22836060,0.00167650
5956.15716797,0.00172378
5958.08597534,0.00168439
5960.01478271,0.00168942
5961.94359009,0.00168283
5963.87239746,0.00162737
5965.80120483,0.00168150
5967.73001221,0.00168453
5969.65881958,0.00162982
5971.58762695,0.00155710
5973.51643433,0.00157638
5975.44524170,0.00160702
5977.37404907,0.00153432
5979.30285645,0.00160745
5981.23166382,0.00163042
5983.16047119,0.00158325
5985.08927856,0.00164823
5987.01808594,0.00164131
5988.94689331,0.00156179
5990.87570068,0.00161329
5992.80450806,0.00161714
5994.73331543,0.00153582
5996.66212280,0.00157293
5998.59093018,0.00154294
6000.51973755,0.00156636
