399.26312622,0.00212877
401.19193359,0.00359768
403.12074097,0.00294851
405.04954834,0.00295166
406.97835571,0.00330279
408.90716309,0.00318538
410.83597046,0.00343771
412.76477783,0.00382554
414.69358521,0.00428882
416.62239258,0.00368004
418.55119995,0.00306280
420.48000732,0.00370638
422.40881470,0.00396825
424.33762207,0.00405030
426.26642944,0.00433777
428.19523682,0.00451282
430.12404419,0.00453608
432.05285156,0.00435792
433.98165894,0.00455127
435.91046631,0.00417081
437.83927368,0.00431937
439.76808105,0.00454135
441.69688843,0.00365836
443.62569580,0.00393506
445.55450317,0.00386157
447.48331055,0.00332330
449.41211792,0.00377307
451.34092529,0.00365244
453.26973267,0.00312884
455.19854004,0.00323151
457.12734741,0.00296105
459.05615479,0.00260462
460.98496216,0.00294518
462.91376953,0.00244025
464.84257690,0.00207495
466.77138428,0.00211613
468.70019165,0.00192722
470.62899902,0.00160339
472.55780640,0.00124553
474.48661377,0.00146971
476.41542114,0.00113023
478.34422852,0.00146464
480.27303589,0.00143650
482.20184326,0.00070366
484.13065063,0.00101534
486.05945801,0.00082054
487.98826538,0.00057444
489.91707275,0.00054952
491.84588013,0.00121512
493.77468750,0.00075102
495.70349487,0.00038458
497.63230225,0.00107208
499.56110962,0.00026178
501.48991699,0.00056087
503.41872437,0.00128706
505.34753174,0.00121100
507.27633911,0.00094064
509.20514648,0.00081771
511.13395386,0.00122089
513.06276123,0.00088218
514.99156860,0.00067171
516.92037598,0.00063509
518.84918335,0.00051486
520.77799072,0.00109619
522.70679810,0.00069505
524.63560547,0.00015646
526.56441284,0.00051710
528.49322021,0.00063183
530.42202759,0.00079973
532.35083496,0.00071081
534.27964233,0.00055544
536.20844971,0.00075734
538.13725708,0.00095284
540.06606445,0.00072839
541.99487183,0.00052874
543.92367920,0.00101465
545.85248657,0.00109045
547.78129395,0.00086795
549.71010132,0.00078333
551.63890869,0.00066227
553.56771606,0.00052298
555.49652344,0.00080359
557.42533081,0.00105795
559.35413818,0.00065649
561.28294556,0.00117592
563.21175293,0.00111166
565.14056030,0.00073350
567.06936768,0.00101429
568.99817505,0.00063474
570.92698242,0.00111225
572.85578979,0.00087960
574.78459717,0.00035102
576.71340454,0.00096682
578.64221191,0.00091001
580.57101929,0.00088913
582.49982666,0.00088585
584.42863403,0.00060376
586.35744141,0.00069855
588.28624878,0.00091947
590.21505615,0.00082734
592.14386353,0.00078958
594.07267090,0.00065995
596.00147827,0.00047724
597.93028564,0.00087475
599.85909302,0.00088256
601.78790039,0.00085415
603.71670776,0.00097304
605.64551514,0.00055386
607.57432251,0.00054957
609.50312988,0.00085197
611.43193726,0.00043590
613.36074463,0.00037081
615.28955200,0.00064251
617.21835938,0.00021740
619.14716675,0.00029744
621.07597412,0.00015565
623.00478149,0.00000733
624.93358887,-0.00009930
626.86239624,-0.00009014
628.79120361,0.00006911
630.72001099,0.00060670
632.64881836,0.00194282
634.57762573,0.00211982
636.50643311,0.00239411
638.43524048,0.00289772
640.36404785,0.00310160
642.29285522,0.00394700
644.22166260,0.00416790
646.15046997,0.00425472
648.07927734,0.00470367
650.00808472,0.00486409
651.93689209,0.00478145
653.86569946,0.00512382
655.79450684,0.00564800
657.72331421,0.00556647
659.65212158,0.00605086
661.58092896,0.00626418
663.50973633,0.00671877
665.43854370,0.00727949
667.36735107,0.00618683
669.29615845,0.00665473
671.22496582,0.00778318
673.15377319,0.00802221
675.08258057,0.00850062
677.01138794,0.00844389
678.94019531,0.00865871
680.86900269,0.00862013
682.79781006,0.00858170
684.72661743,0.00870898
686.65542480,0.00852655
688.58423218,0.00856355
690.51303955,0.00859738
692.44184692,0.00936629
694.37065430,0.01022355
696.29946167,0.01150621
698.22826904,0.01300202
700.15707642,0.01347693
702.08588379,0.01346520
704.01469116,0.01267178
705.94349854,0.01140320
707.87230591,0.00928516
709.80111328,0.00729429
711.72992065,0.00549437
713.65872803,0.00288776
715.58753540,0.00171151
717.51634277,0.00131202
719.44515015,0.00069895
721.37395752,0.00040257
723.30276489,0.00042174
725.23157227,0.00056689
727.16037964,0.00037159
729.08918701,0.00032589
731.01799438,0.00019670
732.94680176,0.00021776
734.87560913,0.00045651
736.80441650,0.00036220
738.73322388,0.00035153
740.66203125,0.00023155
742.59083862,0.00013314
744.51964600,0.00037827
746.44845337,0.00059735
748.37726074,0.00045589
750.30606812,0.00070986
752.23487549,0.00061575
754.16368286,0.00019977
756.09249023,0.00054820
758.02129761,0.00052230
759.95010498,0.00056623
761.87891235,0.00065414
763.80771973,0.00051906
765.73652710,0.00062113
767.66533447,0.00053337
769.59414185,0.00048318
771.52294922,0.00063701
773.45175659,0.00068866
775.38056396,0.00058511
777.30937134,0.00063675
779.23817871,0.00079046
781.16698608,0.00088165
783.09579346,0.00081093
785.02460083,0.00052618
786.95340820,0.00058664
788.88221558,0.00079206
790.81102295,0.00057922
792.73983032,0.00048625
794.66863770,0.00092261
796.59744507,0.00100301
798.52625244,0.00123837
800.45505981,0.00185143
802.38386719,0.00158517
804.31267456,0.00126122
806.24148193,0.00093445
808.17028931,0.00059050
810.09909668,0.00090417
812.02790405,0.00088161
813.95671143,0.00065510
815.88551880,0.00074832
817.81432617,0.00085002
819.74313354,0.00069988
821.67194092,0.00042420
823.60074829,0.00062854
825.52955566,0.00102113
827.45836304,0.00109715
829.38717041,0.00135421
831.31597778,0.00175488
833.24478516,0.00213085
835.17359253,0.00256721
837.10239990,0.00275414
839.03120728,0.00291618
840.96001465,0.00277389
842.88882202,0.00225821
844.81762939,0.00210896
846.74643677,0.00217046
848.67524414,0.00190502
850.60405151,0.00163027
852.53285889,0.00153415
854.46166626,0.00131725
856.39047363,0.00148724
858.31928101,0.00128035
860.24808838,0.00082936
862.17689575,0.00101496
864.10570313,0.00074188
866.03451050,0.00064547
867.96331787,0.00081487
869.89212524,0.00050077
871.82093262,0.00057565
873.74973999,0.00061299
875.67854736,0.00055837
877.60735474,0.00068666
879.53616211,0.00061324
881.46496948,0.00078377
883.39377686,0.00055780
885.32258423,0.00043306
887.25139160,0.00085118
889.18019897,0.00055933
891.10900635,0.00045607
893.03781372,0.00072288
894.96662109,0.00042455
896.89542847,0.00053515
898.82423584,0.00092258
900.75304321,0.00070667
902.68185059,0.00066932
904.61065796,0.00075017
906.53946533,0.00105077
908.46827271,0.00122695
910.39708008,0.00077711
912.32588745,0.00079734
914.25469482,0.00111328
916.18350220,0.00143211
918.11230957,0.00143527
920.04111694,0.00162032
921.96992432,0.00215582
923.89873169,0.00210195
925.82753906,0.00237061
927.75634644,0.00260952
929.68515381,0.00289993
931.61396118,0.00335216
933.54276855,0.00314989
935.47157593,0.00346534
937.40038330,0.00371649
939.32919067,0.00386009
941.25799805,0.00422642
943.18680542,0.00416246
945.11561279,0.00436796
947.04442017,0.00425503
948.97322754,0.00408308
950.90203491,0.00398131
952.83084229,0.00396361
954.75964966,0.00423135
956.68845703,0.00385190
958.61726440,0.00399477
960.54607178,0.00413870
962.47487915,0.00392906
964.40368652,0.00417312
966.33249390,0.00424655
968.26130127,0.00438907
970.19010864,0.00454586
972.11891602,0.00503272
974.04772339,0.00531806
975.97653076,0.00556192
977.90533813,0.00631918
979.83414551,0.00666939
981.76295288,0.00713380
983.69176025,0.00803209
985.62056763,0.00908496
987.54937500,0.00996098
989.47818237,0.01117387
991.40698975,0.01243803
993.33579712,0.01355637
995.26460449,0.01504816
997.19341187,0.01606338
999.12221924,0.01739264
1001.05102661,0.01867786
1002.97983398,0.02009249
1004.90864136,0.02173658
1006.83744873,0.02275395
1008.76625610,0.02445785
1010.69506348,0.02565796
1012.62387085,0.02685756
1014.55267822,0.02875356
1016.48148560,0.03000706
1018.41029297,0.03143625
1020.33910034,0.03299627
1022.26790771,0.03453369
1024.19671509,0.03580017
1026.12552246,0.03688571
1028.05432983,0.03828951
1029.98313721,0.03946337
1031.91194458,0.04045349
1033.84075195,0.04134453
1035.76955933,0.04190215
1037.69836670,0.04239351
1039.62717407,0.04267885
1041.55598145,0.04240628
1043.48478882,0.04205674
1045.41359619,0.04159301
1047.34240356,0.04106890
1049.27121094,0.04047675
1051.20001831,0.03964774
1053.12882568,0.03889516
1055.05763306,0.03823769
1056.98644043,0.03762604
1058.91524780,0.03655186
1060.84405518,0.03542144
1062.77286255,0.03424308
1064.70166992,0.03302444
1066.63047729,0.03201659
1068.55928467,0.03066537
1070.48809204,0.02929000
1072.41689941,0.02768555
1074.34570679,0.02649350
1076.27451416,0.02537014
1078.20332153,0.02397654
1080.13212891,0.02305486
1082.06093628,0.02199528
1083.98974365,0.02097860
1085.91855103,0.01967475
1087.84735840,0.01887988
1089.77616577,0.01830361
1091.70497314,0.01724563
1093.63378052,0.01658836
1095.56258789,0.01582350
1097.49139526,0.01546821
1099.42020264,0.01506095
1101.34901001,0.01461820
1103.27781738,0.01439713
1105.20662476,0.01408165
1107.13543213,0.01376912
1109.06423950,0.01313013
1110.99304687,0.01325483
1112.92185425,0.01321735
1114.85066162,0.01299494
1116.77946899,0.01319386
1118.70827637,0.01307674
1120.63708374,0.01312316
1122.56589111,0.01302567
1124.49469849,0.01317935
1126.42350586,0.01347427
1128.35231323,0.01382457
1130.28112061,0.01417610
1132.20992798,0.01426873
1134.13873535,0.01492859
1136.06754272,0.01553688
1137.99635010,0.01614210
1139.92515747,0.01723226
1141.85396484,0.01854680
1143.78277222,0.01973603
1145.71157959,0.02087477
1147.64038696,0.02235853
1149.56919434,0.02358954
1151.49800171,0.02469024
1153.42680908,0.02590700
1155.35561646,0.02708716
1157.28442383,0.02824458
1159.21323120,0.02922230
1161.14203857,0.03039270
1163.07084595,0.03176231
1164.99965332,0.03283397
1166.92846069,0.03385738
1168.85726807,0.03518036
1170.78607544,0.03657833
1172.71488281,0.03796452
1174.64369019,0.03938098
1176.57249756,0.04067988
1178.50130493,0.04220949
1180.43011230,0.04408722
1182.35891968,0.04570517
1184.28772705,0.04781507
1186.21653442,0.05014619
1188.14534180,0.05215741
1190.07414917,0.05468487
1192.00295654,0.05701743
1193.93176392,0.05988342
1195.86057129,0.06288221
1197.78937866,0.06538523
1199.71818604,0.06861253
1201.64699341,0.07146975
1203.57580078,0.07436770
1205.50460815,0.07738461
1207.43341553,0.08005405
1209.36222290,0.08283844
1211.29103027,0.08529195
1213.21983765,0.08771403
1215.14864502,0.08995881
1217.07745239,0.09178418
1219.00625977,0.09334531
1220.93506714,0.09497905
1222.86387451,0.09609272
1224.79268188,0.09692517
1226.72148926,0.09780975
1228.65029663,0.09816702
1230.57910400,0.09884894
1232.50791138,0.09891956
1234.43671875,0.09878401
1236.36552612,0.09896214
1238.29433350,0.09867992
1240.22314087,0.09849316
1242.15194824,0.09807599
1244.08075562,0.09776060
1246.00956299,0.09710106
1247.93837036,0.09653194
1249.86717773,0.09604904
1251.79598511,0.09494130
1253.72479248,0.09419401
1255.65359985,0.09293467
1257.58240723,0.09141676
1259.51121460,0.09002295
1261.44002197,0.08872790
1263.36882935,0.08778027
1265.29763672,0.08661768
1267.22644409,0.08558307
1269.15525146,0.08422434
1271.08405884,0.08282503
1273.01286621,0.08170348
1274.94167358,0.08016069
1276.87048096,0.07849756
1278.79928833,0.07696879
1280.72809570,0.07535734
1282.65690308,0.07381992
1284.58571045,0.07256629
1286.51451782,0.07113245
1288.44332520,0.06989369
1290.37213257,0.06926739
1292.30093994,0.06859882
1294.22974731,0.06784669
1296.15855469,0.06740454
1298.08736206,0.06729768
1300.01616943,0.06739560
1301.94497681,0.06761292
1303.87378418,0.06828976
1305.80259155,0.06904124
1307.73139893,0.06965433
1309.66020630,0.07101862
1311.58901367,0.07194126
1313.51782104,0.07313406
1315.44662842,0.07540715
1317.37543579,0.07664408
1319.30424316,0.07847151
1321.23305054,0.08143884
1323.16185791,0.08397430
1325.09066528,0.08624673
1327.01947266,0.08866273
1328.94828003,0.09108682
1330.87708740,0.09326009
1332.80589478,0.09566443
1334.73470215,0.09746438
1336.66350952,0.09825967
1338.59231689,0.09725863
1340.52112427,0.09834555
1342.44993164,0.10276540
1344.37873901,0.10330047
1346.30754639,0.10319594
1348.23635376,0.10329720
1350.16516113,0.10221691
1352.09396851,0.10251366
1354.02277588,0.10071301
1355.95158325,0.09989595
1357.88039062,0.09965365
1359.80919800,0.09774354
1361.73800537,0.09355447
1363.66681274,0.09187555
1365.59562012,0.09691769
1367.52442749,0.09466016
1369.45323486,0.09337860
1371.38204224,0.09534454
1373.31084961,0.08966905
1375.23965698,0.09044636
1377.16846436,0.09297360
1379.09727173,0.09221197
1381.02607910,0.09243032
1382.95488647,0.09249266
1384.88369385,0.09247006
1386.81250122,0.08775987
1388.74130859,0.08891095
1390.67011597,0.09676131
1392.59892334,0.09422019
1394.52773071,0.08775543
1396.45653809,0.09237282
1398.38534546,0.09235564
1400.31415283,0.09181492
1402.24296021,0.09963107
1404.17176758,0.09366895
1406.10057495,0.09407945
1408.02938232,0.09832327
1409.95818970,0.09456239
1411.88699707,0.09650727
1413.81580444,0.09289028
1415.74461182,0.09454259
1417.67341919,0.08514290
1419.60222656,0.07556113
1421.53103394,0.08791363
1423.45984131,0.08532871
1425.38864868,0.08225997
1427.31745605,0.08383922
1429.24626343,0.07741003
1431.17507080,0.07484370
1433.10387817,0.07625910
1435.03268555,0.06955500
1436.96149292,0.05824515
1438.89030029,0.06658433
1440.81910767,0.06872077
1442.74791504,0.06324863
1444.67672241,0.06655841
1446.60552979,0.06099270
1448.53433716,0.06163643
1450.46314453,0.06387787
1452.39195190,0.06504029
1454.32075928,0.06750536
1456.24956665,0.05517570
1458.17837402,0.05732220
1460.10718140,0.07734354
1462.03598877,0.08255495
1463.96479614,0.08165024
1465.89360352,0.08505521
1467.82241089,0.09743781
1469.75121826,0.10488497
1471.68002563,0.09255783
1473.60883301,0.09756581
1475.53764038,0.11190373
1477.46644775,0.12063665
1479.39525513,0.13308543
1481.32406250,0.13485709
1483.25286987,0.14364743
1485.18167725,0.14818822
1487.11048462,0.14538372
1489.03929199,0.14474180
1490.96809937,0.14550745
1492.89690674,0.17060126
1494.82571411,0.16662170
1496.75452148,0.14895742
1498.68332886,0.16920404
1500.61213623,0.17451656
1502.54094360,0.18792853
1504.46975098,0.17738631
1506.39855835,0.12695475
1508.32736572,0.15626252
1510.25617310,0.18498249
1512.18498047,0.17890255
1514.11378784,0.19448861
1516.04259521,0.17456093
1517.97140259,0.18215293
1519.90020996,0.17602921
1521.82901733,0.15118550
1523.75782471,0.18680486
1525.68663208,0.18354760
1527.61543945,0.18260486
1529.54424683,0.20335659
1531.47305420,0.19503173
1533.40186157,0.17766175
1535.33066895,0.18895838
1537.25947632,0.20346944
1539.18828369,0.14353508
1541.11709106,0.14955951
1543.04589844,0.18121397
1544.97470581,0.17337793
1546.90351318,0.20687260
1548.83232056,0.19237331
1550.76112793,0.19837612
1552.68993530,0.19787841
1554.61874268,0.17854622
1556.54755005,0.19180696
1558.47635742,0.13317420
1560.40516479,0.14382711
1562.33397217,0.20827287
1564.26277954,0.19634807
1566.19158691,0.20219918
1568.12039429,0.20020396
1570.04920166,0.17615834
1571.97800903,0.20469199
1573.90681641,0.20770198
1575.83562378,0.16270241
1577.76443115,0.18492231
1579.69323853,0.21025249
1581.62204590,0.20045301
1583.55085327,0.20589963
1585.47966064,0.20267099
1587.40846802,0.20414606
1589.33727539,0.20241237
1591.26608276,0.20235118
1593.19489014,0.20278451
1595.12369751,0.20005262
1597.05250488,0.20304728
1598.98131226,0.20159164
1600.91011963,0.20275247
1602.83892700,0.19897467
1604.76773437,0.20245790
1606.69654175,0.19955854
1608.62534912,0.19887576
1610.55415649,0.19881138
1612.48296387,0.20014566
1614.41177124,0.20298788
1616.34057861,0.16444546
1618.26938599,0.17883718
1620.19819336,0.20979154
1622.12700073,0.18485498
1624.05580811,0.18573108
1625.98461548,0.19551137
1627.91342285,0.19440943
1629.84223022,0.19329667
1631.77103760,0.20699871
1633.69984497,0.19025296
1635.62865234,0.15516411
1637.55745972,0.18191090
1639.48626709,0.20136911
1641.41507446,0.19625698
1643.34388184,0.20186168
1645.27268921,0.18114880
1647.20149658,0.15755108
1649.13030396,0.19806038
1651.05911133,0.18797323
1652.98791870,0.11748577
1654.91672607,0.16229749
1656.84553345,0.20643756
1658.77434082,0.19696012
1660.70314819,0.20279002
1662.63195557,0.18334156
1664.56076294,0.19380507
1666.48957031,0.20895691
1668.41837769,0.18092531
1670.34718506,0.17541668
1672.27599243,0.20028129
1674.20479980,0.18435241
1676.13360718,0.17598680
1678.06241455,0.20414446
1679.99122192,0.19648130
1681.92002930,0.19397333
1683.84883667,0.15647507
1685.77764404,0.15428907
1687.70645142,0.21467541
1689.63525879,0.18541139
1691.56406616,0.20435908
1693.49287354,0.20871015
1695.42168091,0.14976963
1697.35048828,0.18679465
1699.27929565,0.16361284
1701.20810303,0.14581305
1703.13691040,0.20207827
1705.06571777,0.18481353
1706.99452515,0.18598166
1708.92333252,0.20318645
1710.85213989,0.19480723
1712.78094727,0.19826686
1714.70975464,0.18336177
1716.63856201,0.16375205
1718.56736938,0.16070276
1720.49617676,0.19198421
1722.42498413,0.20010589
1724.35379150,0.18482730
1726.28259888,0.20193167
1728.21140625,0.18583092
1730.14021362,0.18701576
1732.06902100,0.18273222
1733.99782837,0.13702184
1735.92663574,0.17200173
1737.85544312,0.19149508
1739.78425049,0.16932315
1741.71305786,0.18491057
1743.64186523,0.18739623
1745.57067261,0.18782672
1747.49947998,0.18940803
1749.42828735,0.18074282
1751.35709473,0.17257938
1753.28590210,0.19205129
1755.21470947,0.20149207
1757.14351685,0.18273506
1759.07232422,0.20194611
1761.00113159,0.18938962
1762.92993896,0.18196829
1764.85874634,0.20976640
1766.78755371,0.18797179
1768.71636108,0.18955341
1770.64516846,0.18840435
1772.57397583,0.16816437
1774.50278320,0.18864694
1776.43159058,0.19999868
1778.36039795,0.19697908
1780.28920532,0.19443794
1782.21801270,0.19619177
1784.14682007,0.19574475
1786.07562744,0.19154060
1788.00443481,0.20213932
1789.93324219,0.19682887
1791.86204956,0.17701901
1793.79085693,0.18504396
1795.71966431,0.19919020
1797.64847168,0.19634694
1799.57727905,0.19331095
1801.50608643,0.18953252
1803.43489380,0.19590503
1805.36370117,0.20078628
1807.29250854,0.19775146
1809.22131592,0.19851211
1811.15012329,0.19295374
1813.07893066,0.19903277
1815.00773804,0.20018792
1816.93654541,0.19767612
1818.86535278,0.19941151
1820.79416016,0.19843930
1822.72296753,0.20153636
1824.65177490,0.18771914
1826.58058228,0.19462870
1828.50938965,0.19519836
1830.43819702,0.18210754
1832.36700439,0.19908819
1834.29581177,0.19797057
1836.22461914,0.19763014
1838.15342651,0.19687790
1840.08223389,0.19792689
1842.01104126,0.19845709
1843.93984863,0.17476383
1845.86865601,0.18685351
1847.79746338,0.19796237
1849.72627075,0.19326627
1851.65507812,0.19945754
1853.58388550,0.19521183
1855.51269287,0.19722344
1857.44150024,0.19590907
1859.37030762,0.19467717
1861.29911499,0.19617246
1863.22792236,0.19371171
1865.15672974,0.19612373
1867.08553711,0.18911585
1869.01434448,0.18068922
1870.94315186,0.18817821
1872.87195923,0.19581513
1874.80076660,0.19250500
1876.72957397,0.19343528
1878.65838135,0.19296461
1880.58718872,0.19184232
1882.51599609,0.19354734
1884.44480347,0.19013996
1886.37361084,0.19309999
1888.30241821,0.18845311
1890.23122559,0.18441343
1892.16003296,0.19195108
1894.08884033,0.18894815
1896.01764771,0.18805516
1897.94645508,0.19049895
1899.87526245,0.18938890
1901.80406982,0.18973416
1903.73287720,0.18847805
1905.66168457,0.18931860
1907.59049194,0.18725115
1909.51929932,0.18595482
1911.44810669,0.18725090
1913.37691406,0.18749650
1915.30572144,0.18926750
1917.23452881,0.18054193
1919.16333618,0.18051626
1921.09214355,0.18794766
1923.02095093,0.18152431
1924.94975830,0.18537632
1926.87856567,0.18760650
1928.80737305,0.18492344
1930.73618042,0.18742932
1932.66498779,0.18458056
1934.59379517,0.18656790
1936.52260254,0.18510336
1938.45140991,0.18547131
1940.38021729,0.18564035
1942.30902466,0.17920163
1944.23783203,0.18288384
1946.16663940,0.18466240
1948.09544678,0.18422358
1950.02425415,0.18499160
1951.95306152,0.18431595
1953.88186890,0.18467748
1955.81067627,0.18355276
1957.73948364,0.18423493
1959.66829102,0.18376613
1961.59709839,0.18345354
1963.52590576,0.18405448
1965.45471313,0.18275493
1967.38352051,0.18077515
1969.31232788,0.18221280
1971.24113525,0.18387404
1973.16994263,0.18229431
1975.09875000,0.18311742
1977.02755737,0.18217173
1978.95636475,0.18211474
1980.88517212,0.18217498
1982.81397949,0.18115188
1984.74278687,0.18218116
1986.67159424,0.18033464
1988.60040161,0.18066730
1990.52920898,0.17909518
1992.45801636,0.17687008
1994.38682373,0.17963141
1996.31563110,0.17982247
1998.24443848,0.17905527
2000.17324585,0.17901763
2002.10205322,0.17862205
2004.03086060,0.17827001
2005.95966797,0.17783606
2007.88847534,0.17746362
2009.81728271,0.17733000
2011.74609009,0.17688794
2013.67489746,0.17668536
2015.60370483,0.17574678
2017.53251221,0.17394173
2019.46131958,0.17496841
2021.39012695,0.17504930
2023.31893433,0.17423789
2025.24774170,0.17408538
2027.17654907,0.17348683
2029.10535645,0.17353037
2031.03416382,0.17284916
2032.96297119,0.17288780
2034.89177856,0.17233309
2036.82058594,0.17178583
2038.74939331,0.17163944
2040.67820068,0.17055987
2042.60700806,0.17047505
2044.53581543,0.17028570
2046.46462280,0.17012058
2048.39343018,0.16967729
2050.32223755,0.16929264
2052.25104492,0.16907659
2054.17985229,0.16853629
2056.10865967,0.16840081
2058.03746704,0.16792822
2059.96627441,0.16750163
2061.89508179,0.16737366
2063.82388916,0.16669607
2065.75269653,0.16587290
2067.68150391,0.16642208
2069.61031128,0.16609462
2071.53911865,0.16543058
2073.46792603,0.16547674
2075.39673340,0.16476095
2077.32554077,0.16483857
2079.25434814,0.16445419
2081.18315552,0.16418433
2083.11196289,0.16389695
2085.04077026,0.16341361
2086.96957764,0.16337326
2088.89838501,0.16254488
2090.82719238,0.16241837
2092.75599976,0.16218846
2094.68480713,0.16194092
2096.61361450,0.16163021
2098.54242187,0.16125663
2100.47122925,0.16101804
2102.40003662,0.16057341
2104.32884399,0.16062142
2106.25765137,0.16010082
2108.18645874,0.16001961
2110.11526611,0.15970211
2112.04407349,0.15931603
2113.97288086,0.15911227
2115.90168823,0.15870316
2117.83049561,0.15880170
2119.75930298,0.15821704
2121.68811035,0.15816346
2123.61691772,0.15793693
2125.54572510,0.15764521
2127.47453247,0.15749356
2129.40333984,0.15709227
2131.33214722,0.15710938
2133.26095459,0.15658996
2135.18976196,0.15653539
2137.11856934,0.15633559
2139.04737671,0.15616229
2140.97618408,0.15593857
2142.90499146,0.15557136
2144.83379883,0.15565433
2146.76260620,0.15532079
2148.69141357,0.15520310
2150.62022095,0.15491010
2152.54902832,0.15475054
2154.47783569,0.15442279
2156.40664307,0.15423670
2158.33545044,0.15409213
2160.26425781,0.15369354
2162.19306519,0.15377901
2164.12187256,0.15337075
2166.05067993,0.15329856
2167.97948730,0.15299653
2169.90829468,0.15289986
2171.83710205,0.15284172
2173.76590942,0.15236753
2175.69471680,0.15240151
2177.62352417,0.15197779
2179.55233154,0.15199055
2181.48113892,0.15176548
2183.40994629,0.15159965
2185.33875366,0.15141447
2187.26756104,0.15104404
2189.19636841,0.15107693
2191.12517578,0.15057728
2193.05398315,0.15064800
2194.98279053,0.15030423
2196.91159790,0.15006572
2198.84040527,0.15015295
2200.76921265,0.14981519
2202.69802002,0.14957535
2204.62682739,0.14921838
2206.55563477,0.14935270
2208.48444214,0.14897573
2210.41324951,0.14877711
2212.34205688,0.14869148
2214.27086426,0.14836793
2216.19967163,0.14834954
2218.12847900,0.14807241
2220.05728638,0.14799070
2221.98609375,0.14772639
2223.91490112,0.14757061
2225.84370850,0.14728358
2227.77251587,0.14701822
2229.70132324,0.14676115
2231.63013062,0.14638372
2233.55893799,0.14625971
2235.48774536,0.14592978
2237.41655273,0.14585319
2239.34536011,0.14544168
2241.27416748,0.14524868
2243.20297485,0.14515503
2245.13178223,0.14485765
2247.06058960,0.14464878
2248.98939697,0.14419839
2250.91820435,0.14418188
2252.84701172,0.14385387
2254.77581909,0.14361835
2256.70462646,0.14340343
2258.63343384,0.14315793
2260.56224121,0.14319000
2262.49104858,0.14290220
2264.41985596,0.14264549
2266.34866333,0.14231095
2268.27747070,0.14220850
2270.20627808,0.14201799
2272.13508545,0.14190881
2274.06389282,0.14173725
2275.99270020,0.14150400
2277.92150757,0.14141479
2279.85031494,0.14114869
2281.77912231,0.14111161
2283.70792969,0.14081746
2285.63673706,0.14070965
2287.56554443,0.14027041
2289.49435181,0.13982858
2291.42315918,0.13947678
2293.35196655,0.13899913
2295.28077393,0.13898027
2297.20958130,0.13830042
2299.13838867,0.13790445
2301.06719604,0.13719726
2302.99600342,0.13649726
2304.92481079,0.13598782
2306.85361816,0.13481463
2308.78242554,0.13394088
2310.71123291,0.13264927
2312.64004028,0.13137740
2314.56884766,0.12991524
2316.49765503,0.12852669
2318.42646240,0.12677410
2320.35526978,0.12478688
2322.28407715,0.12310705
2324.21288452,0.12115867
2326.14169189,0.12007467
2328.07049927,0.11842023
2329.99930664,0.11701022
2331.92811401,0.11601447
2333.85692139,0.11531775
2335.78572876,0.11513352
2337.71453613,0.11452185
2339.64334351,0.11459361
2341.57215088,0.11484088
2343.50095825,0.11673249
2345.42976562,0.11902687
2347.35857300,0.12413771
2349.28738037,0.12876362
2351.21618774,0.12366108
2353.14499512,0.11716461
2355.07380249,0.11283623
2357.00260986,0.10897590
2358.93141724,0.10703741
2360.86022461,0.10566774
2362.78903198,0.10557996
2364.71783936,0.10603045
2366.64664673,0.10761996
2368.57545410,0.10987194
2370.50426147,0.11266175
2372.43306885,0.11609390
2374.36187622,0.11937881
2376.29068359,0.12285636
2378.21949097,0.12558946
2380.14829834,0.12784109
2382.07710571,0.12922116
2384.00591309,0.13019818
2385.93472046,0.13074850
2387.86352783,0.13079947
2389.79233521,0.13087720
2391.72114258,0.13055786
2393.64994995,0.13050728
2395.57875732,0.13026068
2397.50756470,0.13005339
2399.43637207,0.12979946
2401.36517944,0.12963426
2403.29398682,0.12952259
2405.22279419,0.12921283
2407.15160156,0.12919745
2409.08040894,0.12886319
2411.00921631,0.12886497
2412.93802368,0.12865713
2414.86683105,0.12836191
2416.79563843,0.12836540
2418.72444580,0.12810591
2420.65325317,0.12797208
2422.58206055,0.12767968
2424.51086792,0.12743708
2426.43967529,0.12721325
2428.36848267,0.12714851
2430.29729004,0.12698410
2432.22609741,0.12678581
2434.15490479,0.12657273
2436.08371216,0.12647545
2438.01251953,0.12655377
2439.94132690,0.12593271
2441.87013428,0.12585324
2443.79894165,0.12583587
2445.72774902,0.12553513
2447.65655640,0.12544242
2449.58536377,0.12528837
2451.51417114,0.12524299
2453.44297852,0.12489298
2455.37178589,0.12479328
2457.30059326,0.12453903
2459.22940063,0.12439451
2461.15820801,0.12422198
2463.08701538,0.12395698
2465.01582275,0.12401202
2466.94463013,0.12365761
2468.87343750,0.12364534
2470.80224487,0.12338425
2472.73105225,0.12314682
2474.65985962,0.12300366
2476.58866699,0.12269061
2478.51747437,0.12275532
2480.44628174,0.12251320
2482.37508911,0.12238816
2484.30389648,0.12213427
2486.23270386,0.12202834
2488.16151123,0.12188675
2490.09031860,0.12153251
2492.01912598,0.12149635
2493.94793335,0.12132654
2495.87674072,0.12123978
2497.80554810,0.12093352
2499.73435547,0.12069190
2501.66316284,0.12057225
2503.59197021,0.12052512
2505.52077759,0.12039208
2507.44958496,0.12010173
2509.37839233,0.12008947
2511.30719971,0.11993816
2513.23600708,0.11977871
2515.16481445,0.11946127
2517.09362183,0.11939715
2519.02242920,0.11921835
2520.95123657,0.11894663
2522.88004395,0.11888160
2524.80885132,0.11849099
2526.73765869,0.11858740
2528.66646606,0.11835435
2530.59527344,0.11807980
2532.52408081,0.11804412
2534.45288818,0.11777540
2536.38169556,0.11777867
2538.31050293,0.11754589
2540.23931030,0.11737257
2542.16811768,0.11719318
2544.09692505,0.11705607
2546.02573242,0.11688095
2547.95453979,0.11660799
2549.88334717,0.11648680
2551.81215454,0.11632462
2553.74096191,0.11621005
2555.66976929,0.11598621
2557.59857666,0.11599661
2559.52738403,0.11576849
2561.45619141,0.11547609
2563.38499878,0.11534829
2565.31380615,0.11511967
2567.24261353,0.11518265
2569.17142090,0.11493333
2571.10022827,0.11463091
2573.02903564,0.11456110
2574.95784302,0.11442890
2576.88665039,0.11414944
2578.81545776,0.11405399
2580.74426514,0.11402600
2582.67307251,0.11378543
2584.60187988,0.11369020
2586.53068726,0.11338299
2588.45949463,0.11319855
2590.38830200,0.11311148
2592.31710937,0.11302532
2594.24591675,0.11281375
2596.17472412,0.11254524
2598.10353149,0.11255737
2600.03233887,0.11221120
2601.96114624,0.11211830
2603.88995361,0.11201112
2605.81876099,0.11180826
2607.74756836,0.11179349
2609.67637573,0.11151020
2611.60518311,0.11131957
2613.53399048,0.11116674
2615.46279785,0.11112387
2617.39160522,0.11088732
2619.32041260,0.11075366
2621.24921997,0.11064439
2623.17802734,0.11027454
2625.10683472,0.11013035
2627.03564209,0.10998072
2628.96444946,0.10994384
2630.89325684,0.10978514
2632.82206421,0.10960299
2634.75087158,0.10939579
2636.67967895,0.10927528
2638.60848633,0.10921983
2640.53729370,0.10887760
2642.46610107,0.10871972
2644.39490845,0.10850473
2646.32371582,0.10848132
2648.25252319,0.10836240
2650.18133057,0.10801921
2652.11013794,0.10790437
2654.03894531,0.10779405
2655.96775269,0.10771594
2657.89656006,0.10745107
2659.82536743,0.10729203
2661.75417480,0.10710827
2663.68298218,0.10690816
2665.61178955,0.10675175
2667.54059692,0.10662394
2669.46940430,0.10662109
2671.39821167,0.10639091
2673.32701904,0.10627121
2675.25582642,0.10597577
2677.18463379,0.10580084
2679.11344116,0.10580094
2681.04224854,0.10553555
2682.97105591,0.10537685
2684.89986328,0.10518854
2686.82867065,0.10503705
2688.75747803,0.10493797
2690.68628540,0.10485972
2692.61509277,0.10458581
2694.54390015,0.10440127
2696.47270752,0.10428312
2698.40151489,0.10401710
2700.33032227,0.10393968
2702.25912964,0.10369790
2704.18793701,0.10359462
2706.11674438,0.10343522
2708.04555176,0.10324648
2709.97435913,0.10318642
2711.90316650,0.10290845
2713.83197388,0.10284817
2715.76078125,0.10272974
2717.68958862,0.10246176
2719.61839600,0.10234500
2721.54720337,0.10227074
2723.47601074,0.10195173
2725.40481812,0.10172568
2727.33362549,0.10159943
2729.26243286,0.10137963
2731.19124023,0.10136835
2733.12004761,0.10117719
2735.04885498,0.10096477
2736.97766235,0.10072021
2738.90646973,0.10059352
2740.83527710,0.10053869
2742.76408447,0.10031566
2744.69289185,0.10016787
2746.62169922,0.09987667
2748.55050659,0.09976627
2750.47931396,0.09963170
2752.40812134,0.09958893
2754.33692871,0.09937049
2756.26573608,0.09903757
2758.19454346,0.09909716
2760.12335083,0.09879397
2762.05215820,0.09862988
2763.98096558,0.09850141
2765.90977295,0.09843483
2767.83858032,0.09833223
2769.76738770,0.09790044
2771.69619507,0.09783566
2773.62500244,0.09769037
2775.55380981,0.09751243
2777.48261719,0.09726114
2779.41142456,0.09706649
2781.34023193,0.09696591
2783.26903931,0.09675758
2785.19784668,0.09662810
2787.12665405,0.09642948
2789.05546143,0.09637751
2790.98426880,0.09616855
2792.91307617,0.09593350
2794.84188354,0.09564951
2796.77069092,0.09542205
2798.69949829,0.09536599
2800.62830566,0.09516816
2802.55711304,0.09506844
2804.48592041,0.09482658
2806.41472778,0.09472997
2808.34353516,0.09443690
2810.27234253,0.09410994
2812.20114990,0.09406279
2814.12995728,0.09378028
2816.05876465,0.09369266
2817.98757202,0.09356264
2819.91637939,0.09339248
2821.84518677,0.09317549
2823.77399414,0.09294043
2825.70280151,0.09279779
2827.63160889,0.09265345
2829.56041626,0.09255782
2831.48922363,0.09225664
2833.41803101,0.09202139
2835.34683838,0.09175189
2837.27564575,0.09165040
2839.20445312,0.09147148
2841.13326050,0.09104567
2843.06206787,0.09077811
2844.99087524,0.09036742
2846.91968262,0.08992215
2848.84848999,0.08938128
2850.77729736,0.08907923
2852.70610474,0.08893648
2854.63491211,0.08888013
2856.56371948,0.08884817
2858.49252686,0.08857095
2860.42133423,0.08854409
2862.35014160,0.08842258
2864.27894897,0.08835545
2866.20775635,0.08819463
2868.13656372,0.08795021
2870.06537109,0.08789624
2871.99417847,0.08762892
2873.92298584,0.08754735
2875.85179321,0.08746352
2877.78060059,0.08731478
2879.70940796,0.08717613
2881.63821533,0.08702500
2883.56702270,0.08690346
2885.49583008,0.08678968
2887.42463745,0.08660077
2889.35344482,0.08631083
2891.28225220,0.08630385
2893.21105957,0.08602106
2895.13986694,0.08578467
2897.06867432,0.08569200
2898.99748169,0.08534612
2900.92628906,0.08517048
2902.85509644,0.08491889
2904.78390381,0.08473277
2906.71271118,0.08448444
2908.64151855,0.08416370
2910.57032593,0.08382913
2912.49913330,0.08342710
2914.42794067,0.08312257
2916.35674805,0.08265994
2918.28555542,0.08234892
2920.21436279,0.08231167
2922.14317017,0.08217238
2924.07197754,0.08183751
2926.00078491,0.08177943
2927.92959229,0.08174150
2929.85839966,0.08167695
2931.78720703,0.08176331
2933.71601440,0.08147849
2935.64482178,0.08147907
2937.57362915,0.08159557
2939.50243652,0.08154450
2941.43124390,0.08154728
2943.36005127,0.08142594
2945.28885864,0.08135439
2947.21766602,0.08116463
2949.14647339,0.08106101
2951.07528076,0.08096912
2953.00408813,0.08074403
2954.93289551,0.08044241
2956.86170288,0.08015431
2958.79051025,0.07993619
2960.71931763,0.07972155
2962.64812500,0.07957764
2964.57693237,0.07933091
2966.50573975,0.07923898
2968.43454712,0.07915799
2970.36335449,0.07932464
2972.29216187,0.07953241
2974.22096924,0.07945772
2976.14977661,0.07959595
2978.07858398,0.07943015
2980.00739136,0.07943535
2981.93619873,0.07951178
2983.86500610,0.07935278
2985.79381348,0.07930458
2987.72262085,0.07909778
2989.65142822,0.07905721
2991.58023560,0.07893500
2993.50904297,0.07879320
2995.43785034,0.07866255
2997.36665771,0.07850592
2999.29546509,0.07843584
3001.22427246,0.07825217
3003.15307983,0.07815289
3005.08188721,0.07795706
3007.01069458,0.07786775
3008.93950195,0.07771936
3010.86830933,0.07738980
3012.79711670,0.07718443
3014.72592407,0.07703380
3016.65473145,0.07698421
3018.58353882,0.07687649
3020.51234619,0.07674854
3022.44115356,0.07657330
3024.36996094,0.07633029
3026.29876831,0.07611743
3028.22757568,0.07606025
3030.15638306,0.07578739
3032.08519043,0.07545055
3034.01399780,0.07545519
3035.94280518,0.07524998
3037.87161255,0.07528411
3039.80041992,0.07517747
3041.72922729,0.07485722
3043.65803467,0.07491605
3045.58684204,0.07468405
3047.51564941,0.07449150
3049.44445679,0.07429335
3051.37326416,0.07409948
3053.30207153,0.07411294
3055.23087891,0.07380579
3057.15968628,0.07353515
3059.08849365,0.07357331
3061.01730103,0.07351161
3062.94610840,0.07324225
3064.87491577,0.07299317
3066.80372314,0.07281284
3068.73253052,0.07281235
3070.66133789,0.07278486
3072.59014526,0.07264249
3074.51895264,0.07252519
3076.44776001,0.07230394
3078.37656738,0.07201372
3080.30537476,0.07178682
3082.23418213,0.07177790
3084.16298950,0.07166338
3086.09179687,0.07150342
3088.02060425,0.07137892
3089.94941162,0.07129423
3091.87821899,0.07127905
3093.80702637,0.07094368
3095.73583374,0.07074348
3097.66464111,0.07062083
3099.59344849,0.07037123
3101.52225586,0.07015600
3103.45106323,0.07010922
3105.37987061,0.07011972
3107.30867798,0.06974432
3109.23748535,0.06957918
3111.16629272,0.06952575
3113.09510010,0.06932881
3115.02390747,0.06911544
3116.95271484,0.06880220
3118.88152222,0.06866928
3120.81032959,0.06853774
3122.73913696,0.06840299
3124.66794434,0.06835897
3126.59675171,0.06817610
3128.52555908,0.06795865
3130.45436645,0.06793284
3132.38317383,0.06759599
3134.31198120,0.06733926
3136.24078857,0.06735712
3138.16959595,0.06702735
3140.09840332,0.06691846
3142.02721069,0.06670098
3143.95601807,0.06649991
3145.88482544,0.06639267
3147.81363281,0.06619733
3149.74244019,0.06612931
3151.67124756,0.06571545
3153.60005493,0.06561507
3155.52886230,0.06552313
3157.45766968,0.06536597
3159.38647705,0.06514059
3161.31528442,0.06479713
3163.24409180,0.06485707
3165.17289917,0.06453280
3167.10170654,0.06437087
3169.03051392,0.06419826
3170.95932129,0.06395636
3172.88812866,0.06391173
3174.81693604,0.06362176
3176.74574341,0.06350014
3178.67455078,0.06319046
3180.60335815,0.06314852
3182.53216553,0.06311072
3184.46097290,0.06276156
3186.38978027,0.06267451
3188.31858765,0.06259046
3190.24739502,0.06237865
3192.17620239,0.06218459
3194.10500977,0.06217707
3196.03381714,0.06181280
3197.96262451,0.06164504
3199.89143188,0.06167565
3201.82023926,0.06145696
3203.74904663,0.06133188
3205.67785400,0.06113240
3207.60666138,0.06105505
3209.53546875,0.06081047
3211.46427612,0.06071357
3213.39308350,0.06054449
3215.32189087,0.06045907
3217.25069824,0.06057299
3219.17950562,0.06009270
3221.10831299,0.05999422
3223.03712036,0.06001355
3224.96592773,0.05995446
3226.89473511,0.05979566
3228.82354248,0.05954721
3230.75234985,0.05959799
3232.68115723,0.05931084
3234.60996460,0.05919833
3236.53877197,0.05920082
3238.46757935,0.05911680
3240.39638672,0.05908787
3242.32519409,0.05901881
3244.25400146,0.05878853
3246.18280884,0.05862811
3248.11161621,0.05880392
3250.04042358,0.05867461
3251.96923096,0.05857833
3253.89803833,0.05836850
3255.82684570,0.05827448
3257.75565308,0.05831258
3259.68446045,0.05809866
3261.61326782,0.05817936
3263.54207520,0.05797578
3265.47088257,0.05789231
3267.39968994,0.05793922
3269.32849731,0.05776913
3271.25730469,0.05766817
3273.18611206,0.05752525
3275.11491943,0.05745617
3277.04372681,0.05736536
3278.97253418,0.05735484
3280.90134155,0.05724411
3282.83014893,0.05727207
3284.75895630,0.05716365
3286.68776367,0.05703354
3288.61657104,0.05713840
3290.54537842,0.05684739
3292.47418579,0.05674593
3294.40299316,0.05669644
3296.33180054,0.05667507
3298.26060791,0.05661412
3300.18941528,0.05650802
3302.11822266,0.05653757
3304.04703003,0.05629948
3305.97583740,0.05623753
3307.90464478,0.05611052
3309.83345215,0.05604173
3311.76225952,0.05601944
3313.69106689,0.05593823
3315.61987427,0.05590460
3317.54868164,0.05572581
3319.47748901,0.05578719
3321.40629639,0.05568463
3323.33510376,0.05554453
3325.26391113,0.05546187
3327.19271851,0.05531402
3329.12152588,0.05528251
3331.05033325,0.05524481
3332.97914062,0.05517386
3334.90794800,0.05496169
3336.83675537,0.05487696
3338.76556274,0.05488439
3340.69437012,0.05483966
3342.62317749,0.05463525
3344.55198486,0.05452009
3346.48079224,0.05452430
3348.40959961,0.05444714
3350.33840698,0.05425902
3352.26721436,0.05410618
3354.19602173,0.05417266
3356.12482910,0.05384929
3358.05363647,0.05389971
3359.98244385,0.05385929
3361.91125122,0.05353220
3363.84005859,0.05364170
3365.76886597,0.05333728
3367.69767334,0.05327794
3369.62648071,0.05315123
3371.55528809,0.05309897
3373.48409546,0.05311734
3375.41290283,0.05294133
3377.34171020,0.05300461
3379.27051758,0.05271944
3381.19932495,0.05278250
3383.12813232,0.05261476
3385.05693970,0.05238787
3386.98574707,0.05237703
3388.91455444,0.05230407
3390.84336182,0.05217434
3392.77216919,0.05176400
3394.70097656,0.05204297
3396.62978394,0.05182634
3398.55859131,0.05156112
3400.48739868,0.05150538
3402.41620605,0.05127808
3404.34501343,0.05144733
3406.27382080,0.05123892
3408.20262817,0.05125073
3410.13143555,0.05107099
3412.06024292,0.05108497
3413.98905029,0.05100564
3415.91785767,0.05077510
3417.84666504,0.05091266
3419.77547241,0.05036367
3421.70427979,0.05029216
3423.63308716,0.05036765
3425.56189453,0.05031306
3427.49070190,0.05017421
3429.41950928,0.05003174
3431.34831665,0.04997990
3433.27712402,0.04973455
3435.20593140,0.04987021
3437.13473877,0.04955336
3439.06354614,0.04968937
3440.99235352,0.04948710
3442.92116089,0.04914852
3444.84996826,0.04943341
3446.77877563,0.04861040
3448.70758301,0.04875790
3450.63639038,0.04936319
3452.56519775,0.04909464
3454.49400513,0.04899959
3456.42281250,0.04888985
3458.35161987,0.04874869
3460.28042725,0.04862687
3462.20923462,0.04849346
3464.13804199,0.04849212
3466.06684937,0.04857730
3467.99565674,0.04827354
3469.92446411,0.04832270
3471.85327148,0.04841291
3473.78207886,0.04823692
3475.71088623,0.04815655
3477.63969360,0.04813192
3479.56850098,0.04812874
3481.49730835,0.04750907
3483.42611572,0.04771992
3485.35492310,0.04803609
3487.28373047,0.04767712
3489.21253784,0.04765318
3491.14134521,0.04769175
3493.07015259,0.04781254
3494.99895996,0.04754418
3496.92776733,0.04750626
3498.85657471,0.04768354
3500.78538208,0.04760528
3502.71418945,0.04667363
3504.64299683,0.04666794
3506.57180420,0.04788659
3508.50061157,0.04709816
3510.42941895,0.04683843
3512.35822632,0.04737731
3514.28703369,0.04743169
3516.21584106,0.04750484
3518.14464844,0.04713194
3520.07345581,0.04728837
3522.00226318,0.04688919
3523.93107056,0.04630752
3525.85987793,0.04636245
3527.78868530,0.04641217
3529.71749268,0.04642763
3531.64630005,0.04684487
3533.57510742,0.04726659
3535.50391479,0.04667249
3537.43272217,0.04657649
3539.36152954,0.04708994
3541.29033691,0.04704722
3543.21914429,0.04663377
3545.14795166,0.04562671
3547.07675903,0.04489884
3549.00556641,0.04638836
3550.93437378,0.04670651
3552.86318115,0.04547631
3554.79198853,0.04654467
3556.72079590,0.04674625
3558.64960327,0.04643784
3560.57841064,0.04616818
3562.50721802,0.04595243
3564.43602539,0.04620733
3566.36483276,0.04299347
3568.29364014,0.04192012
3570.22244751,0.04544257
3572.15125488,0.04673061
3574.08006226,0.04602085
3576.00886963,0.04622914
3577.93767700,0.04613380
3579.86648437,0.04592884
3581.79529175,0.04602208
3583.72409912,0.04606984
3585.65290649,0.04501267
3587.58171387,0.04133370
3589.51052124,0.04257481
3591.43932861,0.04630060
3593.36813599,0.04499043
3595.29694336,0.04423609
3597.22575073,0.04501953
3599.15455811,0.04539365
3601.08336548,0.04490507
3603.01217285,0.04535871
3604.94098022,0.04627421
3606.86978760,0.04457235
3608.79859497,0.04181321
3610.72740234,0.04280264
3612.65620972,0.04376431
3614.58501709,0.04244944
3616.51382446,0.04561004
3618.44263184,0.04191758
3620.37143921,0.04047817
3622.30024658,0.04586837
3624.22905395,0.04452329
3626.15786133,0.04673977
3628.08666870,0.03940343
3630.01547607,0.03580134
3631.94428345,0.04540148
3633.87309082,0.04406606
3635.80189819,0.04479701
3637.73070557,0.04573521
3639.65951294,0.04507741
3641.58832031,0.04556081
3643.51712769,0.04484252
3645.44593506,0.04534666
3647.37474243,0.04055124
3649.30354980,0.03712527
3651.23235718,0.03769730
3653.16116455,0.04484420
3655.08997192,0.04429079
3657.01877930,0.03950289
3658.94758667,0.04564271
3660.87639404,0.04463164
3662.80520142,0.04519210
3664.73400879,0.04513668
3666.66281616,0.04460829
3668.59162354,0.04332125
3670.52043091,0.03514297
3672.44923828,0.04271789
3674.37804565,0.04076106
3676.30685303,0.03347915
3678.23566040,0.04239118
3680.16446777,0.04346031
3682.09327515,0.04340581
3684.02208252,0.04478663
3685.95088989,0.04408798
3687.87969727,0.03956765
3689.80850464,0.03618000
3691.73731201,0.04128415
3693.66611938,0.04254294
3695.59492676,0.04367363
3697.52373413,0.04365560
3699.45254150,0.04321724
3701.38134888,0.04207616
3703.31015625,0.04041690
3705.23896362,0.04454180
3707.16777100,0.04234178
3709.09657837,0.04130095
3711.02538574,0.03872425
3712.95419312,0.03615507
3714.88300049,0.04268942
3716.81180786,0.04211128
3718.74061523,0.04239841
3720.66942261,0.04144138
3722.59822998,0.03995377
3724.52703735,0.04152707
3726.45584473,0.03841898
3728.38465210,0.04168481
3730.31345947,0.04119951
3732.24226685,0.03775061
3734.17107422,0.03685737
3736.09988159,0.03492738
3738.02868896,0.03709305
3739.95749634,0.04027444
3741.88630371,0.04221851
3743.81511108,0.03264932
3745.74391846,0.03065596
3747.67272583,0.04012569
3749.60153320,0.03439985
3751.53034058,0.03157193
3753.45914795,0.03640721
3755.38795532,0.03921582
3757.31676270,0.04091112
3759.24557007,0.03776857
3761.17437744,0.03914559
3763.10318481,0.04165298
3765.03199219,0.03878671
3766.96079956,0.03962173
3768.88960693,0.03913037
3770.81841431,0.03727190
3772.74722168,0.04041026
3774.67602905,0.04050256
3776.60483643,0.04046655
3778.53364380,0.03932860
3780.46245117,0.03770363
3782.39125854,0.04032828
3784.32006592,0.03940456
3786.24887329,0.03904794
3788.17768066,0.03998437
3790.10648804,0.03977001
3792.03529541,0.03946294
3793.96410278,0.04013726
3795.89291016,0.03781814
3797.82171753,0.03724918
3799.75052490,0.03928843
3801.67933228,0.03104384
3803.60813965,0.03613906
3805.53694702,0.03940845
3807.46575439,0.03212992
3809.39456177,0.03908994
3811.32336914,0.03830910
3813.25217651,0.03965573
3815.18098389,0.03582918
3817.10979126,0.03122342
3819.03859863,0.03963123
3820.96740601,0.03181502
3822.89621338,0.03356943
3824.82502075,0.03937044
3826.75382812,0.03543287
3828.68263550,0.03828212
3830.61144287,0.03666833
3832.54025024,0.03552802
3834.46905762,0.03618371
3836.39786499,0.03433005
3838.32667236,0.03108840
3840.25547974,0.03358720
3842.18428711,0.03633823
3844.11309448,0.03458510
3846.04190186,0.03749197
3847.97070923,0.03687301
3849.89951660,0.03701592
3851.82832397,0.03324983
3853.75713135,0.02459126
3855.68593872,0.02942567
3857.61474609,0.03699516
3859.54355347,0.03607374
3861.47236084,0.03564336
3863.40116821,0.03478741
3865.32997559,0.03230413
3867.25878296,0.03612202
3869.18759033,0.03300196
3871.11639770,0.03035706
3873.04520508,0.03619958
3874.97401245,0.03324001
3876.90281982,0.03590747
3878.83162720,0.03657866
3880.76043457,0.03114937
3882.68924194,0.03610120
3884.61804932,0.03376612
3886.54685669,0.03076993
3888.47566406,0.03612752
3890.40447144,0.03430326
3892.33327881,0.03197219
3894.26208618,0.03506678
3896.19089355,0.03578094
3898.11970093,0.03396418
3900.04850830,0.03219684
3901.97731567,0.03176171
3903.90612305,0.03140426
3905.83493042,0.03197344
3907.76373779,0.03507406
3909.69254517,0.03506529
3911.62135254,0.03463928
3913.55015991,0.03529439
3915.47896728,0.03403027
3917.40777466,0.03306080
3919.33658203,0.03280942
3921.26538940,0.03404509
3923.19419678,0.03393917
3925.12300415,0.03317613
3927.05181152,0.03378631
3928.98061890,0.03427389
3930.90942627,0.03350809
3932.83823364,0.03226599
3934.76704102,0.03373959
3936.69584839,0.03400452
3938.62465576,0.03360808
3940.55346313,0.03395104
3942.48227051,0.03266547
3944.41107788,0.03294153
3946.33988525,0.03354317
3948.26869263,0.03274578
3950.19750000,0.03260755
3952.12630737,0.03324538
3954.05511475,0.03323843
3955.98392212,0.03311068
3957.91272949,0.03310607
3959.84153687,0.03291718
3961.77034424,0.03272063
3963.69915161,0.03262999
3965.62795898,0.03305199
3967.55676636,0.03268382
3969.48557373,0.03258199
3971.41438110,0.03257238
3973.34318848,0.03235503
3975.27199585,0.03238396
3977.20080322,0.03214351
3979.12961060,0.03247865
3981.05841797,0.03216089
3982.98722534,0.03218069
3984.91603271,0.03219670
3986.84484009,0.03201360
3988.77364746,0.03211265
3990.70245483,0.03169634
3992.63126221,0.03197223
3994.56006958,0.03171271
3996.48887695,0.03171138
3998.41768433,0.03177724
4000.34649170,0.03152012
4002.27529907,0.03158752
4004.20410645,0.03135412
4006.13291382,0.03147891
4008.06172119,0.03126568
4009.99052856,0.03134701
4011.91933594,0.03120977
4013.84814331,0.03108723
4015.77695068,0.03115684
4017.70575806,0.03089540
4019.63456543,0.03100833
4021.56337280,0.03079763
4023.49218018,0.03091847
4025.42098755,0.03060503
4027.34979492,0.03062145
4029.27860229,0.03077489
4031.20740967,0.03033052
4033.13621704,0.03049052
4035.06502441,0.03038613
4036.99383179,0.03046142
4038.92263916,0.03022365
4040.85144653,0.03021263
4042.78025391,0.03021790
4044.70906128,0.02994146
4046.63786865,0.03001098
4048.56667603,0.02976922
4050.49548340,0.03001283
4052.42429077,0.02977273
4054.35309814,0.02972253
4056.28190552,0.02978138
4058.21071289,0.02948103
4060.13952026,0.02963898
4062.06832764,0.02942549
4063.99713501,0.02940990
4065.92594238,0.02938866
4067.85474976,0.02939508
4069.78355713,0.02924349
4071.71236450,0.02915756
4073.64117187,0.02917885
4075.56997925,0.02898090
4077.49878662,0.02907154
4079.42759399,0.02883179
4081.35640137,0.02882006
4083.28520874,0.02875081
4085.21401611,0.02867274
4087.14282349,0.02861831
4089.07163086,0.02846019
4091.00043823,0.02854134
4092.92924561,0.02841377
4094.85805298,0.02848636
4096.78686035,0.02834300
4098.71566772,0.02836373
4100.64447510,0.02827913
4102.57328247,0.02813919
4104.50208984,0.02813170
4106.43089722,0.02791025
4108.35970459,0.02805581
4110.28851196,0.02782604
4112.21731934,0.02789171
4114.14612671,0.02780846
4116.07493408,0.02758588
4118.00374145,0.02766762
4119.93254883,0.02749419
4121.86135620,0.02761784
4123.79016357,0.02743424
4125.71897095,0.02746503
4127.64777832,0.02734109
4129.57658569,0.02714852
4131.50539307,0.02725360
4133.43420044,0.02710491
4135.36300781,0.02716094
4137.29181519,0.02700287
4139.22062256,0.02695212
4141.14942993,0.02691620
4143.07823730,0.02690354
4145.00704468,0.02674750
4146.93585205,0.02662442
4148.86465942,0.02672555
4150.79346680,0.02649475
4152.72227417,0.02651796
4154.65108154,0.02640574
4156.57988892,0.02644284
4158.50869629,0.02639967
4160.43750366,0.02628168
4162.36631103,0.02628228
4164.29511841,0.02607982
4166.22392578,0.02621925
4168.15273315,0.02602874
4170.08154053,0.02598370
4172.01034790,0.02591996
4173.93915527,0.02585351
4175.86796265,0.02593764
4177.79677002,0.02564926
4179.72557739,0.02570491
4181.65438477,0.02567182
4183.58319214,0.02561041
4185.51199951,0.02551227
4187.44080688,0.02543153
4189.36961426,0.02539175
4191.29842163,0.02533706
4193.22722900,0.02534466
4195.15603638,0.02514888
4197.08484375,0.02521737
4199.01365112,0.02507076
4200.94245850,0.02506307
4202.87126587,0.02508661
4204.80007324,0.02489557
4206.72888062,0.02488320
4208.65768799,0.02476894
4210.58649536,0.02482704
4212.51530273,0.02477787
4214.44411011,0.02474595
4216.37291748,0.02458857
4218.30172485,0.02457463
4220.23053223,0.02459149
4222.15933960,0.02438069
4224.08814697,0.02445176
4226.01695435,0.02434011
4227.94576172,0.02433022
4229.87456909,0.02417644
4231.80337646,0.02413862
4233.73218384,0.02418631
4235.66099121,0.02403209
4237.58979858,0.02405912
4239.51860596,0.02394952
4241.44741333,0.02398824
4243.37622070,0.02381345
4245.30502808,0.02376183
4247.23383545,0.02373862
4249.16264282,0.02365096
4251.09145020,0.02371030
4253.02025757,0.02351805
4254.94906494,0.02358688
4256.87787231,0.02347139
4258.80667969,0.02342010
4260.73548706,0.02339020
4262.66429443,0.02331328
4264.59310181,0.02332043
4266.52190918,0.02313914
4268.45071655,0.02316817
4270.37952393,0.02306944
4272.30833130,0.02306693
4274.23713867,0.02295576
4276.16594604,0.02295223
4278.09475342,0.02297969
4280.02356079,0.02283171
4281.95236816,0.02286930
4283.88117554,0.02269218
4285.80998291,0.02275755
4287.73879028,0.02258627
4289.66759766,0.02250087
4291.59640503,0.02258772
4293.52521240,0.02247126
4295.45401978,0.02246706
4297.38282715,0.02228403
4299.31163452,0.02233345
4301.24044189,0.02215202
4303.16924927,0.02216472
4305.09805664,0.02225981
4307.02686401,0.02207964
4308.95567139,0.02207660
4310.88447876,0.02193675
4312.81328613,0.02198218
4314.74209351,0.02184634
4316.67090088,0.02184343
4318.59970825,0.02181221
4320.52851562,0.02168082
4322.45732300,0.02171721
4324.38613037,0.02156981
4326.31493774,0.02161454
4328.24374512,0.02150103
4330.17255249,0.02154882
4332.10135986,0.02146054
4334.03016724,0.02131727
4335.95897461,0.02136944
4337.88778198,0.02120006
4339.81658936,0.02130248
4341.74539673,0.02120069
4343.67420410,0.02112171
4345.60301147,0.02108844
4347.53181885,0.02100313
4349.46062622,0.02101207
4351.38943359,0.02090100
4353.31824097,0.02090734
4355.24704834,0.02082550
4357.17585571,0.02079382
4359.10466309,0.02072369
4361.03347046,0.02068484
4362.96227783,0.02061661
4364.89108520,0.02055710
4366.81989258,0.02060575
4368.74869995,0.02045137
4370.67750732,0.02044300
4372.60631470,0.02040348
4374.53512207,0.02036325
4376.46392944,0.02038180
4378.39273682,0.02030471
4380.32154419,0.02016411
4382.25035156,0.02012270
4384.17915894,0.02010653
4386.10796631,0.01997939
4388.03677368,0.02000067
4389.96558105,0.01988106
4391.89438843,0.01993763
4393.82319580,0.01990486
4395.75200317,0.01977760
4397.68081055,0.01984106
4399.60961792,0.01972771
4401.53842529,0.01976388
4403.46723267,0.01962828
4405.39604004,0.01963256
4407.32484741,0.01964400
4409.25365478,0.01951959
4411.18246216,0.01950084
4413.11126953,0.01933794
4415.04007690,0.01941715
4416.96888428,0.01930276
4418.89769165,0.01925467
4420.82649902,0.01928186
4422.75530640,0.01913301
4424.68411377,0.01915722
4426.61292114,0.01910955
4428.54172852,0.01906774
4430.47053589,0.01899872
4432.39934326,0.01892368
4434.32815063,0.01884565
4436.25695801,0.01890643
4438.18576538,0.01883725
4440.11457275,0.01869089
4442.04338013,0.01870850
4443.97218750,0.01860715
4445.90099487,0.01860779
4447.82980225,0.01852731
4449.75860962,0.01854797
4451.68741699,0.01851337
4453.61622437,0.01845370
4455.54503174,0.01847338
4457.47383911,0.01836411
4459.40264648,0.01841687
4461.33145386,0.01824436
4463.26026123,0.01821695
4465.18906860,0.01819538
4467.11787598,0.01805803
4469.04668335,0.01809671
4470.97549072,0.01806879
4472.90429810,0.01803176
4474.83310547,0.01785502
4476.76191284,0.01794766
4478.69072021,0.01792261
4480.61952759,0.01781498
4482.54833496,0.01784147
4484.47714233,0.01768488
4486.40594971,0.01772431
4488.33475708,0.01768089
4490.26356445,0.01760992
4492.19237183,0.01755526
4494.12117920,0.01749114
4496.04998657,0.01747441
4497.97879395,0.01749621
4499.90760132,0.01749571
4501.83640869,0.01736530
4503.76521606,0.01731686
4505.69402344,0.01725882
4507.62283081,0.01729931
4509.55163818,0.01720069
4511.48044556,0.01718717
4513.40925293,0.01717653
4515.33806030,0.01699024
4517.26686768,0.01707336
4519.19567505,0.01703886
4521.12448242,0.01697433
4523.05328979,0.01687914
4524.98209717,0.01688982
4526.91090454,0.01681470
4528.83971191,0.01670382
4530.76851929,0.01679888
4532.69732666,0.01664482
4534.62613403,0.01661347
4536.55494141,0.01650183
4538.48374878,0.01657695
4540.41255615,0.01665532
4542.34136353,0.01643518
4544.27017090,0.01639695
4546.19897827,0.01633565
4548.12778564,0.01633710
4550.05659302,0.01625881
4551.98540039,0.01637346
4553.91420776,0.01629206
4555.84301514,0.01614754
4557.77182251,0.01622473
4559.70062988,0.01606403
4561.62943726,0.01615625
4563.55824463,0.01606122
4565.48705200,0.01595501
4567.41585937,0.01590453
4569.34466675,0.01586714
4571.27347412,0.01593255
4573.20228149,0.01577410
4575.13108887,0.01583727
4577.05989624,0.01575004
4578.98870361,0.01566246
4580.91751099,0.01568501
4582.84631836,0.01563686
4584.77512573,0.01558567
4586.70393311,0.01558154
4588.63274048,0.01561809
4590.56154785,0.01547956
4592.49035522,0.01549071
4594.41916260,0.01532093
4596.34796997,0.01531153
4598.27677734,0.01539851
4600.20558472,0.01530730
4602.13439209,0.01535301
4604.06319946,0.01522919
4605.99200684,0.01522249
4607.92081421,0.01513939
4609.84962158,0.01515728
4611.77842895,0.01511644
4613.70723633,0.01498637
4615.63604370,0.01503530
4617.56485107,0.01489983
4619.49365845,0.01496564
4621.42246582,0.01487623
4623.35127319,0.01479481
4625.28008057,0.01478314
4627.20888794,0.01467923
4629.13769531,0.01469822
4631.06650269,0.01467098
4632.99531006,0.01470997
4634.92411743,0.01457551
4636.85292480,0.01457097
4638.78173218,0.01456108
4640.71053955,0.01454401
4642.63934692,0.01450957
4644.56815430,0.01430831
4646.49696167,0.01442701
4648.42576904,0.01439469
4650.35457642,0.01436114
4652.28338379,0.01432620
4654.21219116,0.01422133
4656.14099853,0.01426321
4658.06980591,0.01421049
4659.99861328,0.01416627
4661.92742065,0.01409834
4663.85622803,0.01409168
4665.78503540,0.01402801
4667.71384277,0.01398636
4669.64265015,0.01398937
4671.57145752,0.01399781
4673.50026489,0.01397427
4675.42907227,0.01388912
4677.35787964,0.01393327
4679.28668701,0.01387451
4681.21549438,0.01383231
4683.14430176,0.01370899
4685.07310913,0.01370559
4687.00191650,0.01374563
4688.93072388,0.01362693
4690.85953125,0.01363873
4692.78833862,0.01353284
4694.71714600,0.01358323
4696.64595337,0.01349537
4698.57476074,0.01341881
4700.50356812,0.01351868
4702.43237549,0.01331221
4704.36118286,0.01327737
4706.28999023,0.01327642
4708.21879761,0.01324650
4710.14760498,0.01330203
4712.07641235,0.01323382
4714.00521973,0.01313844
4715.93402710,0.01314991
4717.86283447,0.01313792
4719.79164185,0.01312069
4721.72044922,0.01309903
4723.64925659,0.01298930
4725.57806396,0.01302239
4727.50687134,0.01294138
4729.43567871,0.01297467
4731.36448608,0.01296525
4733.29329346,0.01284758
4735.22210083,0.01293992
4737.15090820,0.01274438
4739.07971558,0.01273356
4741.00852295,0.01274365
4742.93733032,0.01260717
4744.86613770,0.01261169
4746.79494507,0.01255662
4748.72375244,0.01263620
4750.65255981,0.01262092
4752.58136719,0.01256383
4754.51017456,0.01258222
4756.43898193,0.01257237
4758.36778931,0.01248025
4760.29659668,0.01248466
4762.22540405,0.01253570
4764.15421143,0.01237847
4766.08301880,0.01230694
4768.01182617,0.01233891
4769.94063354,0.01234104
4771.86944092,0.01220922
4773.79824829,0.01227717
4775.72705566,0.01229530
4777.65586304,0.01216069
4779.58467041,0.01219492
4781.51347778,0.01206311
4783.44228516,0.01214103
4785.37109253,0.01213344
4787.29989990,0.01199376
4789.22870728,0.01198905
4791.15751465,0.01192151
4793.08632202,0.01192962
4795.01512939,0.01184672
4796.94393677,0.01186848
4798.87274414,0.01182563
4800.80155151,0.01176578
4802.73035889,0.01179772
4804.65916626,0.01176876
4806.58797363,0.01174862
4808.51678101,0.01166783
4810.44558838,0.01167757
4812.37439575,0.01165723
4814.30320312,0.01164197
4816.23201050,0.01155504
4818.16081787,0.01156609
4820.08962524,0.01155640
4822.01843262,0.01145110
4823.94723999,0.01151774
4825.87604736,0.01136742
4827.80485474,0.01139732
4829.73366211,0.01142165
4831.66246948,0.01134312
4833.59127686,0.01132639
4835.52008423,0.01126919
4837.44889160,0.01132073
4839.37769897,0.01117586
4841.30650635,0.01121399
4843.23531372,0.01117301
4845.16412109,0.01109729
4847.09292847,0.01115577
4849.02173584,0.01107314
4850.95054321,0.01109847
4852.87935059,0.01097473
4854.80815796,0.01097561
4856.73696533,0.01094789
4858.66577270,0.01088670
4860.59458008,0.01094817
4862.52338745,0.01092831
4864.45219482,0.01090157
4866.38100220,0.01075036
4868.30980957,0.01082231
4870.23861694,0.01083775
4872.16742432,0.01075132
4874.09623169,0.01073511
4876.02503906,0.01070180
4877.95384644,0.01072030
4879.88265381,0.01063440
4881.81146118,0.01068066
4883.74026855,0.01062693
4885.66907593,0.01051063
4887.59788330,0.01054579
4889.52669067,0.01055566
4891.45549805,0.01046948
4893.38430542,0.01037043
4895.31311279,0.01042145
4897.24192017,0.01045341
4899.17072754,0.01042749
4901.09953491,0.01032499
4903.02834228,0.01035303
4904.95714966,0.01034380
4906.88595703,0.01027859
4908.81476440,0.01031384
4910.74357178,0.01021156
4912.67237915,0.01021352
4914.60118652,0.01017599
4916.52999390,0.01017809
4918.45880127,0.01012890
4920.38760864,0.01000875
4922.31641602,0.01008496
4924.24522339,0.01004756
4926.17403076,0.01003353
4928.10283813,0.00999810
4930.03164551,0.00994007
4931.96045288,0.00991854
4933.88926025,0.00990630
4935.81806763,0.00991604
4937.74687500,0.00993846
4939.67568237,0.00988222
4941.60448975,0.00971880
4943.53329712,0.00977785
4945.46210449,0.00971894
4947.39091187,0.00968935
4949.31971924,0.00972940
4951.24852661,0.00969769
4953.17733398,0.00970850
4955.10614136,0.00956937
4957.03494873,0.00965605
4958.96375610,0.00959029
4960.89256348,0.00951602
4962.82137085,0.00957393
4964.75017822,0.00944759
4966.67898560,0.00953876
4968.60779297,0.00949759
4970.53660034,0.00939060
4972.46540771,0.00935285
4974.39421509,0.00933190
4976.32302246,0.00936236
4978.25182983,0.00929917
4980.18063721,0.00928716
4982.10944458,0.00928330
4984.03825195,0.00926399
4985.96705933,0.00924129
4987.89586670,0.00923321
4989.82467407,0.00916970
4991.75348145,0.00916878
4993.68228882,0.00913933
4995.61109619,0.00906577
4997.53990356,0.00912439
4999.46871094,0.00905848
5001.39751831,0.00897159
5003.32632568,0.00890853
5005.25513306,0.00896763
5007.18394043,0.00895648
5009.11274780,0.00886109
5011.04155518,0.00890751
5012.97036255,0.00884107
5014.89916992,0.00886513
5016.82797729,0.00884705
5018.75678467,0.00881538
5020.68559204,0.00883766
5022.61439941,0.00881388
5024.54320679,0.00880671
5026.47201416,0.00866657
5028.40082153,0.00866755
5030.32962891,0.00871537
5032.25843628,0.00863994
5034.18724365,0.00857075
5036.11605103,0.00858903
5038.04485840,0.00863024
5039.97366577,0.00860219
5041.90247314,0.00852025
5043.83128052,0.00849314
5045.76008789,0.00859093
5047.68889526,0.00848009
5049.61770264,0.00842382
5051.54651001,0.00838742
5053.47531738,0.00834450
5055.40412476,0.00846126
5057.33293213,0.00834790
5059.26173950,0.00833560
5061.19054687,0.00834216
5063.11935425,0.00825599
5065.04816162,0.00824524
5066.97696899,0.00822806
5068.90577637,0.00821623
5070.83458374,0.00816512
5072.76339111,0.00819149
5074.69219849,0.00818201
5076.62100586,0.00815190
5078.54981323,0.00809170
5080.47862061,0.00810005
5082.40742798,0.00811113
5084.33623535,0.00806646
5086.26504272,0.00810226
5088.19385010,0.00803342
5090.12265747,0.00803895
5092.05146484,0.00799161
5093.98027222,0.00798688
5095.90907959,0.00796351
5097.83788696,0.00791026
5099.76669434,0.00797674
5101.69550171,0.00783685
5103.62430908,0.00792357
5105.55311645,0.00789555
5107.48192383,0.00776919
5109.41073120,0.00785973
5111.33953857,0.00775038
5113.26834595,0.00772084
5115.19715332,0.00773283
5117.12596069,0.00771169
5119.05476807,0.00763307
5120.98357544,0.00765876
5122.91238281,0.00770826
5124.84119019,0.00759826
5126.76999756,0.00764909
5128.69880493,0.00764029
5130.62761230,0.00756764
5132.55641968,0.00752644
5134.48522705,0.00748831
5136.41403442,0.00748841
5138.34284180,0.00751079
5140.27164917,0.00750437
5142.20045654,0.00744500
5144.12926392,0.00738443
5146.05807129,0.00736646
5147.98687866,0.00748209
5149.91568603,0.00740030
5151.84449341,0.00729680
5153.77330078,0.00729690
5155.70210815,0.00725473
5157.63091553,0.00731069
5159.55972290,0.00724987
5161.48853027,0.00721427
5163.41733765,0.00721068
5165.34614502,0.00722949
5167.27495239,0.00725614
5169.20375977,0.00717366
5171.13256714,0.00712754
5173.06137451,0.00708671
5174.99018188,0.00711091
5176.91898926,0.00708958
5178.84779663,0.00706028
5180.77660400,0.00707147
5182.70541138,0.00703466
5184.63421875,0.00696393
5186.56302612,0.00695712
5188.49183350,0.00700926
5190.42064087,0.00689491
5192.34944824,0.00690992
5194.27825562,0.00702669
5196.20706299,0.00691058
5198.13587036,0.00679062
5200.06467773,0.00687980
5201.99348511,0.00689669
5203.92229248,0.00683341
5205.85109985,0.00676201
5207.77990723,0.00662357
5209.70871460,0.00676160
5211.63752197,0.00674167
5213.56632935,0.00668452
5215.49513672,0.00677406
5217.42394409,0.00665492
5219.35275146,0.00667440
5221.28155884,0.00666532
5223.21036621,0.00665552
5225.13917358,0.00652208
5227.06798096,0.00651410
5228.99678833,0.00668411
5230.92559570,0.00652960
5232.85440308,0.00654457
5234.78321045,0.00658143
5236.71201782,0.00660263
5238.64082520,0.00656732
5240.56963257,0.00655006
5242.49843994,0.00657180
5244.42724731,0.00637253
5246.35605469,0.00646035
5248.28486206,0.00636983
5250.21366943,0.00630191
5252.14247681,0.00647513
5254.07128418,0.00631233
5256.00009155,0.00626309
5257.92889893,0.00640418
5259.85770630,0.00641612
5261.78651367,0.00625022
5263.71532104,0.00617301
5265.64412842,0.00619459
5267.57293579,0.00628163
5269.50174316,0.00631996
5271.43055054,0.00623012
5273.35935791,0.00625512
5275.28816528,0.00620314
5277.21697266,0.00623855
5279.14578003,0.00619180
5281.07458740,0.00608894
5283.00339478,0.00618091
5284.93220215,0.00607824
5286.86100952,0.00611433
5288.78981689,0.00611883
5290.71862427,0.00596443
5292.64743164,0.00605925
5294.57623901,0.00603355
5296.50504639,0.00601464
5298.43385376,0.00613792
5300.36266113,0.00607612
5302.29146851,0.00599874
5304.22027588,0.00602585
5306.14908325,0.00601796
5308.07789062,0.00589522
5310.00669800,0.00587352
5311.93550537,0.00594364
5313.86431274,0.00588329
5315.79312012,0.00584572
5317.72192749,0.00582323
5319.65073486,0.00588860
5321.57954224,0.00588224
5323.50834961,0.00582909
5325.43715698,0.00584115
5327.36596436,0.00561828
5329.29477173,0.00567195
5331.22357910,0.00576520
5333.15238647,0.00564078
5335.08119385,0.00572486
5337.01000122,0.00567694
5338.93880859,0.00551591
5340.86761597,0.00559807
5342.79642334,0.00568096
5344.72523071,0.00541763
5346.65403809,0.00547826
5348.58284546,0.00563257
5350.51165283,0.00557580
5352.44046020,0.00557085
5354.36926758,0.00531811
5356.29807495,0.00553813
5358.22688232,0.00557424
5360.15568970,0.00542587
5362.08449707,0.00560933
5364.01330444,0.00540145
5365.94211182,0.00550702
5367.87091919,0.00554959
5369.79972656,0.00548694
5371.72853394,0.00554212
5373.65734131,0.00544390
5375.58614868,0.00543236
5377.51495605,0.00519897
5379.44376343,0.00525482
5381.37257080,0.00537909
5383.30137817,0.00532478
5385.23018555,0.00527785
5387.15899292,0.00517436
5389.08780029,0.00529145
5391.01660767,0.00528500
5392.94541504,0.00520525
5394.87422241,0.00517781
5396.80302978,0.00518820
5398.73183716,0.00519938
5400.66064453,0.00523496
5402.58945190,0.00521664
5404.51825928,0.00506767
5406.44706665,0.00520461
5408.37587402,0.00525314
5410.30468140,0.00517891
5412.23348877,0.00512163
5414.16229614,0.00496570
5416.09110352,0.00501271
5418.01991089,0.00510738
5419.94871826,0.00510052
5421.87752563,0.00508378
5423.80633301,0.00508590
5425.73514038,0.00508976
5427.66394775,0.00504490
5429.59275513,0.00487566
5431.52156250,0.00493017
5433.45036987,0.00498896
5435.37917725,0.00476125
5437.30798462,0.00491410
5439.23679199,0.00500894
5441.16559936,0.00482341
5443.09440674,0.00486143
5445.02321411,0.00487553
5446.95202148,0.00480782
5448.88082886,0.00482649
5450.80963623,0.00483445
5452.73844360,0.00485489
5454.66725098,0.00490192
5456.59605835,0.00482182
5458.52486572,0.00486281
5460.45367310,0.00481610
5462.38248047,0.00470497
5464.31128784,0.00474105
5466.24009521,0.00465974
5468.16890259,0.00469249
5470.09770996,0.00466638
5472.02651733,0.00471623
5473.95532471,0.00472167
5475.88413208,0.00456449
5477.81293945,0.00468093
5479.74174683,0.00467472
5481.67055420,0.00468737
5483.59936157,0.00470099
5485.52816895,0.00461641
5487.45697632,0.00458849
5489.38578369,0.00450838
5491.31459106,0.00449812
5493.24339844,0.00449345
5495.17220581,0.00454254
5497.10101318,0.00449969
5499.02982056,0.00449208
5500.95862793,0.00451673
5502.88743530,0.00443606
5504.81624268,0.00449117
5506.74505005,0.00448767
5508.67385742,0.00447763
5510.60266479,0.00448195
5512.53147217,0.00450943
5514.46027954,0.00452872
5516.38908691,0.00445543
5518.31789429,0.00444732
5520.24670166,0.00442410
5522.17550903,0.00440128
5524.10431641,0.00437193
5526.03312378,0.00437285
5527.96193115,0.00432788
5529.89073853,0.00427846
5531.81954590,0.00434307
5533.74835327,0.00435614
5535.67716064,0.00435149
5537.60596802,0.00430054
5539.53477539,0.00427153
5541.46358276,0.00429382
5543.39239014,0.00431100
5545.32119751,0.00428321
5547.25000488,0.00422826
5549.17881226,0.00427685
5551.10761963,0.00425495
5553.03642700,0.00418389
5554.96523437,0.00416441
5556.89404175,0.00417727
5558.82284912,0.00417534
5560.75165649,0.00413173
5562.68046387,0.00418776
5564.60927124,0.00415355
5566.53807861,0.00404357
5568.46688599,0.00409110
5570.39569336,0.00408264
5572.32450073,0.00407909
5574.25330811,0.00412892
5576.18211548,0.00404544
5578.11092285,0.00405340
5580.03973022,0.00407357
5581.96853760,0.00402584
5583.89734497,0.00401804
5585.82615234,0.00397965
5587.75495972,0.00400443
5589.68376709,0.00397368
5591.61257446,0.00395874
5593.54138184,0.00397683
5595.47018921,0.00395494
5597.39899658,0.00400770
5599.32780395,0.00398622
5601.25661133,0.00394309
5603.18541870,0.00391183
5605.11422607,0.00390094
5607.04303345,0.00391172
5608.97184082,0.00391590
5610.90064819,0.00390347
5612.82945557,0.00388784
5614.75826294,0.00393905
5616.68707031,0.00384761
5618.61587769,0.00377506
5620.54468506,0.00384902
5622.47349243,0.00391261
5624.40229980,0.00383298
5626.33110718,0.00371850
5628.25991455,0.00380261
5630.18872192,0.00380385
5632.11752930,0.00376877
5634.04633667,0.00375015
5635.97514404,0.00374529
5637.90395142,0.00375984
5639.83275879,0.00371875
5641.76156616,0.00379901
5643.69037353,0.00374557
5645.61918091,0.00366457
5647.54798828,0.00368394
5649.47679565,0.00366550
5651.40560303,0.00366627
5653.33441040,0.00361721
5655.26321777,0.00361096
5657.19202515,0.00363831
5659.12083252,0.00369720
5661.04963989,0.00368938
5662.97844727,0.00359808
5664.90725464,0.00359264
5666.83606201,0.00359535
5668.76486938,0.00357523
5670.69367676,0.00355806
5672.62248413,0.00355346
5674.55129150,0.00355172
5676.48009888,0.00354052
5678.40890625,0.00351660
5680.33771362,0.00355885
5682.26652100,0.00358272
5684.19532837,0.00355123
5686.12413574,0.00349008
5688.05294311,0.00339405
5689.98175049,0.00346026
5691.91055786,0.00347977
5693.83936523,0.00343143
5695.76817261,0.00343480
5697.69697998,0.00344032
5699.62578735,0.00346717
5701.55459473,0.00344015
5703.48340210,0.00339238
5705.41220947,0.00329664
5707.34101685,0.00334635
5709.26982422,0.00339013
5711.19863159,0.00333623
5713.12743896,0.00332820
5715.05624634,0.00327928
5716.98505371,0.00334030
5718.91386108,0.00330991
5720.84266846,0.00329337
5722.77147583,0.00330509
5724.70028320,0.00325432
5726.62909058,0.00331492
5728.55789795,0.00327588
5730.48670532,0.00324939
5732.41551270,0.00325504
5734.34432007,0.00323464
5736.27312744,0.00319423
5738.20193481,0.00323597
5740.13074219,0.00327328
5742.05954956,0.00318894
5743.98835693,0.00325392
5745.91716431,0.00323021
5747.84597168,0.00317114
5749.77477905,0.00318434
5751.70358643,0.00316632
5753.63239380,0.00316383
5755.56120117,0.00316581
5757.49000854,0.00316807
5759.41881592,0.00310643
5761.34762329,0.00314912
5763.27643066,0.00311463
5765.20523804,0.00307347
5767.13404541,0.00306840
5769.06285278,0.00302554
5770.99166016,0.00311067
5772.92046753,0.00304987
5774.84927490,0.00306364
5776.77808228,0.00306933
5778.70688965,0.00301010
5780.63569702,0.00306868
5782.56450439,0.00303145
5784.49331177,0.00307091
5786.42211914,0.00307863
5788.35092651,0.00300553
5790.27973389,0.00298181
5792.20854126,0.00299601
5794.13734863,0.00296790
5796.06615601,0.00292991
5797.99496338,0.00296251
5799.92377075,0.00293862
5801.85257812,0.00291624
5803.78138550,0.00291150
5805.71019287,0.00297877
5807.63900024,0.00291557
5809.56780762,0.00281141
5811.49661499,0.00287899
5813.42542236,0.00284710
5815.35422974,0.00285640
5817.28303711,0.00286697
5819.21184448,0.00279621
5821.14065186,0.00278039
5823.06945923,0.00281045
5824.99826660,0.00274971
5826.92707397,0.00270829
5828.85588135,0.00281517
5830.78468872,0.00283409
5832.71349609,0.00284338
5834.64230347,0.00283013
5836.57111084,0.00285241
5838.49991821,0.00280374
5840.42872559,0.00271418
5842.35753296,0.00277410
5844.28634033,0.00273655
5846.21514770,0.00280052
5848.14395508,0.00272874
5850.07276245,0.00264502
5852.00156982,0.00273610
5853.93037720,0.00268753
5855.85918457,0.00276343
5857.78799194,0.00271903
5859.71679932,0.00263233
5861.64560669,0.00264416
5863.57441406,0.00263203
5865.50322144,0.00270193
5867.43202881,0.00268285
5869.36083618,0.00263104
5871.28964355,0.00262281
5873.21845093,0.00264882
5875.14725830,0.00258503
5877.07606567,0.00258635
5879.00487305,0.00262032
5880.93368042,0.00255131
5882.86248779,0.00261429
5884.79129517,0.00256558
5886.72010254,0.00251905
5888.64890991,0.00255416
5890.57771728,0.00256201
5892.50652466,0.00257525
5894.43533203,0.00250542
5896.36413940,0.00250038
5898.29294678,0.00248428
5900.22175415,0.00255662
5902.15056152,0.00255498
5904.07936890,0.00241051
5906.00817627,0.00248475
5907.93698364,0.00248584
5909.86579102,0.00245804
5911.79459839,0.00249194
5913.72340576,0.00243547
5915.65221313,0.00244111
5917.58102051,0.00242940
5919.50982788,0.00242966
5921.43863525,0.00248096
5923.36744263,0.00241324
5925.29625000,0.00235784
5927.22505737,0.00244110
5929.15386475,0.00242694
5931.08267212,0.00238006
5933.01147949,0.00249216
5934.94028686,0.00245610
5936.86909424,0.00232419
5938.79790161,0.00235017
5940.72670898,0.00231478
5942.65551636,0.00229005
5944.58432373,0.00237584
5946.51313110,0.00236213
5948.44193848,0.00234475
5950.37074585,0.00234598
5952.29955322,0.00231919
5954.22836060,0.00235957
5956.15716797,0.00230397
5958.08597534,0.00226087
5960.01478271,0.00233058
5961.94359009,0.00229597
5963.87239746,0.00230456
5965.80120483,0.00234669
5967.73001221,0.00232858
5969.65881958,0.00226250
5971.58762695,0.00217016
5973.51643433,0.00224886
5975.44524170,0.00230275
5977.37404907,0.00226897
5979.30285645,0.00222789
5981.23166382,0.00220633
5983.16047119,0.00227410
5985.08927856,0.00221780
5987.01808594,0.00223087
5988.94689331,0.00227854
5990.87570068,0.00216152
5992.80450806,0.00216440
5994.73331543,0.00223990
5996.66212280,0.00219662
5998.59093018,0.00213939
6000.51973755,0.00221215
