399.26312622,0.00170530
401.19193359,0.00235836
403.12074097,0.00232734
405.04954834,0.00261400
406.97835571,0.00260804
408.90716309,0.00224093
410.83597046,0.00285760
412.76477783,0.00307815
414.69358521,0.00281523
416.62239258,0.00322438
418.55119995,0.00249124
420.48000732,0.00232405
422.40881470,0.00324025
424.33762207,0.00274406
426.26642944,0.00301308
428.19523682,0.00368976
430.12404419,0.00304088
432.05285156,0.00289054
433.98165894,0.00294904
435.91046631,0.00287554
437.83927368,0.00294648
439.76808105,0.00269894
441.69688843,0.00254461
443.62569580,0.00253994
445.55450317,0.00282512
447.48331055,0.00306985
449.41211792,0.00273293
451.34092529,0.00215922
453.26973267,0.00200953
455.19854004,0.00233764
457.12734741,0.00216259
459.05615479,0.00194237
460.98496216,0.00191884
462.91376953,0.00152217
464.84257690,0.00143139
466.77138428,0.00159917
468.70019165,0.00153218
470.62899902,0.00134667
472.55780640,0.00112297
474.48661377,0.00100183
476.41542114,0.00119299
478.34422852,0.00081439
480.27303589,0.00033770
482.20184326,0.00058850
484.13065063,0.00058918
486.05945801,0.00055810
487.98826538,0.00025647
489.91707275,0.00057012
491.84588013,0.00073085
493.77468750,0.00017094
495.70349487,0.00094826
497.63230225,0.00037111
499.56110962,-0.00009999
501.48991699,0.00076553
503.41872437,0.00034095
505.34753174,0.00028471
507.27633911,0.00032060
509.20514648,0.00015224
511.13395386,0.00018577
513.06276123,0.00064034
514.99156860,0.00073665
516.92037598,0.00014551
518.84918335,0.00026999
520.77799072,0.00019315
522.70679810,0.00037495
524.63560547,0.00045218
526.56441284,0.00030438
528.49322021,0.00030062
530.42202759,-0.00006554
532.35083496,-0.00006408
534.27964233,0.00019352
536.20844971,0.00062934
538.13725708,0.00023133
540.06606445,0.00002332
541.99487183,0.00060332
543.92367920,0.00033108
545.85248657,-0.00006406
547.78129395,0.00002465
549.71010132,0.00024295
551.63890869,0.00047859
553.56771606,0.00053387
555.49652344,-0.00004966
557.42533081,0.00003490
559.35413818,0.00041058
561.28294556,0.00011418
563.21175293,0.00004842
565.14056030,0.00015337
567.06936768,0.00038322
568.99817505,0.00021065
570.92698242,0.00020453
572.85578979,0.00008178
574.78459717,0.00019325
576.71340454,0.00023751
578.64221191,-0.00014451
580.57101929,0.00018608
582.49982666,-0.00007185
584.42863403,-0.00006699
586.35744141,0.00033347
588.28624878,0.00029019
590.21505615,0.00056273
592.14386353,-0.00007417
594.07267090,-0.00012837
596.00147827,0.00068606
597.93028564,0.00032012
599.85909302,-0.00010350
601.78790039,0.00028751
603.71670776,0.00038219
605.64551514,-0.00014607
607.57432251,0.00017656
609.50312988,0.00016240
611.43193726,-0.00013278
613.36074463,0.00022240
615.28955200,-0.00034855
617.21835938,-0.00014422
619.14716675,0.00002695
621.07597412,-0.00030027
623.00478149,0.00049679
624.93358887,0.00019977
626.86239624,-0.00025618
628.79120361,0.00014554
630.72001099,0.00061817
632.64881836,0.00158389
634.57762573,0.00187534
636.50643311,0.00192685
638.43524048,0.00224627
640.36404785,0.00250399
642.29285522,0.00286619
644.22166260,0.00319403
646.15046997,0.00355742
648.07927734,0.00344460
650.00808472,0.00385440
651.93689209,0.00416453
653.86569946,0.00392695
655.79450684,0.00439526
657.72331421,0.00416428
659.65212158,0.00420867
661.58092896,0.00469635
663.50973633,0.00495177
665.43854370,0.00517575
667.36735107,0.00456783
669.29615845,0.00513236
671.22496582,0.00587822
673.15377319,0.00571955
675.08258057,0.00603083
677.01138794,0.00619832
678.94019531,0.00617985
680.86900269,0.00633637
682.79781006,0.00680469
684.72661743,0.00655806
686.65542480,0.00617599
688.58423218,0.00634708
690.51303955,0.00670976
692.44184692,0.00708369
694.37065430,0.00707559
696.29946167,0.00834989
698.22826904,0.00953719
700.15707642,0.00986350
702.08588379,0.01002574
704.01469116,0.00916246
705.94349854,0.00821697
707.87230591,0.00705974
709.80111328,0.00573259
711.72992065,0.00392229
713.65872803,0.00235891
715.58753540,0.00143086
717.51634277,0.00052459
719.44515015,0.00058737
721.37395752,0.00023356
723.30276489,0.00010388
725.23157227,0.00032374
727.16037964,0.00005368
729.08918701,0.00022790
731.01799438,0.00023182
732.94680176,0.00026019
734.87560913,0.00006016
736.80441650,0.00000641
738.73322388,0.00027684
740.66203125,0.00020946
742.59083862,0.00018729
744.51964600,0.00017485
746.44845337,0.00013776
748.37726074,0.00008384
750.30606812,0.00022393
752.23487549,0.00013337
754.16368286,0.00019582
756.09249023,0.00048881
758.02129761,0.00056435
759.95010498,0.00060411
761.87891235,0.00021363
763.80771973,0.00044969
765.73652710,0.00051520
767.66533447,-0.00002246
769.59414185,0.00044085
771.52294922,0.00054193
773.45175659,0.00026640
775.38056396,0.00067416
777.30937134,0.00055346
779.23817871,0.00021570
781.16698608,0.00075200
783.09579346,0.00071167
785.02460083,0.00041943
786.95340820,0.00068556
788.88221558,0.00059279
790.81102295,0.00070911
792.73983032,0.00071153
794.66863770,0.00063096
796.59744507,0.00088186
798.52625244,0.00114328
800.45505981,0.00132748
802.38386719,0.00124287
804.31267456,0.00111453
806.24148193,0.00079271
808.17028931,0.00081823
810.09909668,0.00080672
812.02790405,0.00057406
813.95671143,0.00066769
815.88551880,0.00045610
817.81432617,0.00056997
819.74313354,0.00069536
821.67194092,0.00052938
823.60074829,0.00069006
825.52955566,0.00057586
827.45836304,0.00055393
829.38717041,0.00110116
831.31597778,0.00152970
833.24478516,0.00187184
835.17359253,0.00202998
837.10239990,0.00190831
839.03120728,0.00218701
840.96001465,0.00218432
842.88882202,0.00209305
844.81762939,0.00195817
846.74643677,0.00142854
848.67524414,0.00146985
850.60405151,0.00130482
852.53285889,0.00115360
854.46166626,0.00128902
856.39047363,0.00123705
858.31928101,0.00116324
860.24808838,0.00077855
862.17689575,0.00072392
864.10570313,0.00077157
866.03451050,0.00067898
867.96331787,0.00070179
869.89212524,0.00056118
871.82093262,0.00061924
873.74973999,0.00062903
875.67854736,0.00036242
877.60735474,0.00062559
879.53616211,0.00067715
881.46496948,0.00029871
883.39377686,0.00048797
885.32258423,0.00050003
887.25139160,0.00058319
889.18019897,0.00058409
891.10900635,0.00030165
893.03781372,0.00064846
894.96662109,0.00070822
896.89542847,0.00065672
898.82423584,0.00077908
900.75304321,0.00058064
902.68185059,0.00063314
904.61065796,0.00075087
906.53946533,0.00072189
908.46827271,0.00077259
910.39708008,0.00076606
912.32588745,0.00082052
914.25469482,0.00096443
916.18350220,0.00108014
918.11230957,0.00152646
920.04111694,0.00167888
921.96992432,0.00138521
923.89873169,0.00172929
925.82753906,0.00181433
927.75634644,0.00189946
929.68515381,0.00241208
931.61396118,0.00240810
933.54276855,0.00254224
935.47157593,0.00266645
937.40038330,0.00289281
939.32919067,0.00309956
941.25799805,0.00305971
943.18680542,0.00333845
945.11561279,0.00318500
947.04442017,0.00306633
948.97322754,0.00304597
950.90203491,0.00294170
952.83084229,0.00321817
954.75964966,0.00300619
956.68845703,0.00292439
958.61726440,0.00307430
960.54607178,0.00294384
962.47487915,0.00305361
964.40368652,0.00293401
966.33249390,0.00308374
968.26130127,0.00332036
970.19010864,0.00343891
972.11891602,0.00380631
974.04772339,0.00368505
975.97653076,0.00418878
977.90533813,0.00468434
979.83414551,0.00493952
981.76295288,0.00585014
983.69176025,0.00594501
985.62056763,0.00656406
987.54937500,0.00763762
989.47818237,0.00826455
991.40698975,0.00926782
993.33579712,0.00990637
995.26460449,0.01088699
997.19341187,0.01186599
999.12221924,0.01252558
1001.05102661,0.01373017
1002.97983398,0.01463908
1004.90864136,0.01543415
1006.83744873,0.01658284
1008.76625610,0.01756524
1010.69506348,0.01852269
1012.62387085,0.01968482
1014.55267822,0.02046739
1016.48148560,0.02137591
1018.41029297,0.02277729
1020.33910034,0.02381070
1022.26790771,0.02469917
1024.19671509,0.02571978
1026.12552246,0.02658516
1028.05432983,0.02735246
1029.98313721,0.02837352
1031.91194458,0.02912145
1033.84075195,0.02949968
1035.76955933,0.03010508
1037.69836670,0.03053196
1039.62717407,0.03077290
1041.55598145,0.03054462
1043.48478882,0.03018108
1045.41359619,0.03008085
1047.34240356,0.02951593
1049.27121094,0.02900368
1051.20001831,0.02844903
1053.12882568,0.02782546
1055.05763306,0.02756034
1056.98644043,0.02684491
1058.91524780,0.02612540
1060.84405518,0.02554293
1062.77286255,0.02467069
1064.70166992,0.02396564
1066.63047729,0.02293097
1068.55928467,0.02205043
1070.48809204,0.02130990
1072.41689941,0.02007321
1074.34570679,0.01926178
1076.27451416,0.01833069
1078.20332153,0.01740254
1080.13212891,0.01676564
1082.06093628,0.01599594
1083.98974365,0.01536239
1085.91855103,0.01445878
1087.84735840,0.01388478
1089.77616577,0.01327709
1091.70497314,0.01248119
1093.63378052,0.01228063
1095.56258789,0.01180443
1097.49139526,0.01127007
1099.42020264,0.01105875
1101.34901001,0.01063780
1103.27781738,0.01027193
1105.20662476,0.01033100
1107.13543213,0.01016608
1109.06423950,0.00993682
1110.99304687,0.00989921
1112.92185425,0.00961182
1114.85066162,0.00964693
1116.77946899,0.00969156
1118.70827637,0.00956019
1120.63708374,0.00957008
1122.56589111,0.00969375
1124.49469849,0.00979583
1126.42350586,0.00982296
1128.35231323,0.01021558
1130.28112061,0.01043200
1132.20992798,0.01068105
1134.13873535,0.01114868
1136.06754272,0.01148640
1137.99635010,0.01202997
1139.92515747,0.01272818
1141.85396484,0.01360812
1143.78277222,0.01442620
1145.71157959,0.01529682
1147.64038696,0.01624199
1149.56919434,0.01710719
1151.49800171,0.01798121
1153.42680908,0.01868408
1155.35561646,0.01955670
1157.28442383,0.02054681
1159.21323120,0.02115601
1161.14203857,0.02181833
1163.07084595,0.02284563
1164.99965332,0.02361250
1166.92846069,0.02439911
1168.85726807,0.02539539
1170.78607544,0.02637302
1172.71488281,0.02732340
1174.64369019,0.02836260
1176.57249756,0.02952783
1178.50130493,0.03028036
1180.43011230,0.03164741
1182.35891968,0.03314418
1184.28772705,0.03435195
1186.21653442,0.03608346
1188.14534180,0.03755115
1190.07414917,0.03926568
1192.00295654,0.04107353
1193.93176392,0.04304195
1195.86057129,0.04493980
1197.78937866,0.04689173
1199.71818604,0.04918095
1201.64699341,0.05099202
1203.57580078,0.05352864
1205.50460815,0.05523164
1207.43341553,0.05688107
1209.36222290,0.05942846
1211.29103027,0.06080197
1213.21983765,0.06258431
1215.14864502,0.06422015
1217.07745239,0.06551965
1219.00625977,0.06683941
1220.93506714,0.06762570
1222.86387451,0.06853113
1224.79268188,0.06911806
1226.72148926,0.06966782
1228.65029663,0.07014762
1230.57910400,0.07041147
1232.50791138,0.07045080
1234.43671875,0.07063125
1236.36552612,0.07067008
1238.29433350,0.07014346
1240.22314087,0.07005232
1242.15194824,0.06981777
1244.08075562,0.06942550
1246.00956299,0.06923124
1247.93837036,0.06896371
1249.86717773,0.06847180
1251.79598511,0.06769578
1253.72479248,0.06705318
1255.65359985,0.06648494
1257.58240723,0.06571074
1259.51121460,0.06433576
1261.44002197,0.06328377
1263.36882935,0.06267960
1265.29763672,0.06177429
1267.22644409,0.06102303
1269.15525146,0.06020189
1271.08405884,0.05929031
1273.01286621,0.05838500
1274.94167358,0.05747336
1276.87048096,0.05647900
1278.79928833,0.05523359
1280.72809570,0.05400725
1282.65690308,0.05298786
1284.58571045,0.05207552
1286.51451782,0.05100382
1288.44332520,0.05016165
1290.37213257,0.04962428
1292.30093994,0.04904904
1294.22974731,0.04875164
1296.15855469,0.04872327
1298.08736206,0.04853572
1300.01616943,0.04846606
1301.94497681,0.04872193
1303.87378418,0.04924696
1305.80259155,0.04977554
1307.73139893,0.05018909
1309.66020630,0.05113088
1311.58901367,0.05182409
1313.51782104,0.05260673
1315.44662842,0.05418495
1317.37543579,0.05526198
1319.30424316,0.05633130
1321.23305054,0.05835301
1323.16185791,0.06055108
1325.09066528,0.06193500
1327.01947266,0.06363811
1328.94828003,0.06542320
1330.87708740,0.06678253
1332.80589478,0.06866411
1334.73470215,0.06982230
1336.66350952,0.07037289
1338.59231689,0.06976022
1340.52112427,0.07052204
1342.44993164,0.07363971
1344.37873901,0.07407889
1346.30754639,0.07403255
1348.23635376,0.07394019
1350.16516113,0.07328153
1352.09396851,0.07327880
1354.02277588,0.07214247
1355.95158325,0.07166067
1357.88039062,0.07119259
1359.80919800,0.07019494
1361.73800537,0.06711371
1363.66681274,0.06596339
1365.59562012,0.06946628
1367.52442749,0.06757440
1369.45323486,0.06682962
1371.38204224,0.06807362
1373.31084961,0.06440808
1375.23965698,0.06489836
1377.16846436,0.06646246
1379.09727173,0.06625415
1381.02607910,0.06637855
1382.95488647,0.06636491
1384.88369385,0.06601310
1386.81250122,0.06280074
1388.74130859,0.06396703
1390.67011597,0.06935005
1392.59892334,0.06756587
1394.52773071,0.06314881
1396.45653809,0.06638677
1398.38534546,0.06619771
1400.31415283,0.06582774
1402.24296021,0.07111503
1404.17176758,0.06700355
1406.10057495,0.06765622
1408.02938232,0.07027008
1409.95818970,0.06750745
1411.88699707,0.06909820
1413.81580444,0.06678587
1415.74461182,0.06779837
1417.67341919,0.06096384
1419.60222656,0.05464361
1421.53103394,0.06310642
1423.45984131,0.06104288
1425.38864868,0.05913987
1427.31745605,0.05996047
1429.24626343,0.05525021
1431.17507080,0.05387354
1433.10387817,0.05489997
1435.03268555,0.04970113
1436.96149292,0.04210622
1438.89030029,0.04802276
1440.81910767,0.04912927
1442.74791504,0.04579925
1444.67672241,0.04795320
1446.60552979,0.04379667
1448.53433716,0.04458568
1450.46314453,0.04605231
1452.39195190,0.04693121
1454.32075928,0.04846046
1456.24956665,0.03999105
1458.17837402,0.04214715
1460.10718140,0.05583258
1462.03598877,0.05925335
1463.96479614,0.05869111
1465.89360352,0.06120025
1467.82241089,0.07016357
1469.75121826,0.07501505
1471.68002563,0.06656034
1473.60883301,0.07040888
1475.53764038,0.08012457
1477.46644775,0.08644044
1479.39525513,0.09496732
1481.32406250,0.09592378
1483.25286987,0.10222603
1485.18167725,0.10530077
1487.11048462,0.10351229
1489.03929199,0.10315049
1490.96809937,0.10402070
1492.89690674,0.12127887
1494.82571411,0.11772063
1496.75452148,0.10613434
1498.68332886,0.12024049
1500.61213623,0.12379780
1502.54094360,0.13339365
1504.46975098,0.12484457
1506.39855835,0.09084634
1508.32736572,0.11225682
1510.25617310,0.13090417
1512.18498047,0.12697670
1514.11378784,0.13741539
1516.04259521,0.12360720
1517.97140259,0.12940726
1519.90020996,0.12425336
1521.82901733,0.10799064
1523.75782471,0.13250473
1525.68663208,0.12959668
1527.61543945,0.12976469
1529.54424683,0.14356972
1531.47305420,0.13747889
1533.40186157,0.12592459
1535.33066895,0.13411543
1537.25947632,0.14264014
1539.18828369,0.10136072
1541.11709106,0.10740359
1543.04589844,0.12826425
1544.97470581,0.12321015
1546.90351318,0.14604899
1548.83232056,0.13565773
1550.76112793,0.14053392
1552.68993530,0.13899952
1554.61874268,0.12661354
1556.54755005,0.13522816
1558.47635742,0.09435484
1560.40516479,0.10378027
1562.33397217,0.14702430
1564.26277954,0.13841066
1566.19158691,0.14305830
1568.12039429,0.14069732
1570.04920166,0.12473328
1571.97800903,0.14483286
1573.90681641,0.14552747
1575.83562378,0.11504509
1577.76443115,0.13143131
1579.69323853,0.14816412
1581.62204590,0.14129217
1583.55085327,0.14501071
1585.47966064,0.14282474
1587.40846802,0.14393049
1589.33727539,0.14276026
1591.26608276,0.14286312
1593.19489014,0.14276622
1595.12369751,0.14100303
1597.05250488,0.14310738
1598.98131226,0.14212659
1600.91011963,0.14273189
1602.83892700,0.13998073
1604.76773437,0.14254682
1606.69654175,0.14047118
1608.62534912,0.14014828
1610.55415649,0.13986047
1612.48296387,0.14095101
1614.41177124,0.14233601
1616.34057861,0.11608363
1618.26938599,0.12715727
1620.19819336,0.14714408
1622.12700073,0.12997451
1624.05580811,0.13125512
1625.98461548,0.13756688
1627.91342285,0.13670687
1629.84223022,0.13610309
1631.77103760,0.14540052
1633.69984497,0.13300692
1635.62865234,0.10987802
1637.55745972,0.12894741
1639.48626709,0.14138278
1641.41507446,0.13807157
1643.34388184,0.14164451
1645.27268921,0.12680268
1647.20149658,0.11200599
1649.13030396,0.14003535
1651.05911133,0.13087536
1652.98791870,0.08381437
1654.91672607,0.11611226
1656.84553345,0.14496359
1658.77434082,0.13846561
1660.70314819,0.14224449
1662.63195557,0.12900043
1664.56076294,0.13664049
1666.48957031,0.14612927
1668.41837769,0.12699091
1670.34718506,0.12422723
1672.27599243,0.14078796
1674.20479980,0.12923180
1676.13360718,0.12461659
1678.06241455,0.14342511
1679.99122192,0.13786203
1681.92002930,0.13615808
1683.84883667,0.10993785
1685.77764404,0.11044165
1687.70645142,0.15069409
1689.63525879,0.13004664
1691.56406616,0.14439452
1693.49287354,0.14527617
1695.42168091,0.10643299
1697.35048828,0.13223475
1699.27929565,0.11454856
1701.20810303,0.10450987
1703.13691040,0.14223969
1705.06571777,0.12953621
1706.99452515,0.13158394
1708.92333252,0.14261734
1710.85213989,0.13674560
1712.78094727,0.13917176
1714.70975464,0.12864245
1716.63856201,0.11517578
1718.56736938,0.11391463
1720.49617676,0.13553801
1722.42498413,0.13995688
1724.35379150,0.13017616
1726.28259888,0.14165395
1728.21140625,0.13037103
1730.14021362,0.13198715
1732.06902100,0.12760748
1733.99782837,0.09713347
1735.92663574,0.12217280
1737.85544312,0.13412714
1739.78425049,0.11931261
1741.71305786,0.13018340
1743.64186523,0.13160698
1745.57067261,0.13207403
1747.49947998,0.13296872
1749.42828735,0.12688975
1751.35709473,0.12156765
1753.28590210,0.13515610
1755.21470947,0.14103736
1757.14351685,0.12877400
1759.07232422,0.14166223
1761.00113159,0.13236520
1762.92993896,0.12867749
1764.85874634,0.14691505
1766.78755371,0.13157818
1768.71636108,0.13339850
1770.64516846,0.13188282
1772.57397583,0.11878626
1774.50278320,0.13315545
1776.43159058,0.14024656
1778.36039795,0.13803896
1780.28920532,0.13620096
1782.21801270,0.13748279
1784.14682007,0.13718531
1786.07562744,0.13458091
1788.00443481,0.14159197
1789.93324219,0.13745274
1791.86204956,0.12431341
1793.79085693,0.13019876
1795.71966431,0.13960496
1797.64847168,0.13743547
1799.57727905,0.13552731
1801.50608643,0.13313212
1803.43489380,0.13741425
1805.36370117,0.14056560
1807.29250854,0.13857101
1809.22131592,0.13891019
1811.15012329,0.13528048
1813.07893066,0.13961101
1815.00773804,0.13997853
1816.93654541,0.13843566
1818.86535278,0.13975853
1820.79416016,0.13921218
1822.72296753,0.14096960
1824.65177490,0.13143161
1826.58058228,0.13640559
1828.50938965,0.13627902
1830.43819702,0.12796912
1832.36700439,0.13957597
1834.29581177,0.13841832
1836.22461914,0.13834368
1838.15342651,0.13779463
1840.08223389,0.13887842
1842.01104126,0.13846290
1843.93984863,0.12274038
1845.86865601,0.13152224
1847.79746338,0.13828906
1849.72627075,0.13545632
1851.65507812,0.13940138
1853.58388550,0.13647994
1855.51269287,0.13799626
1857.44150024,0.13684717
1859.37030762,0.13620093
1861.29911499,0.13702300
1863.22792236,0.13547489
1865.15672974,0.13689065
1867.08553711,0.13194904
1869.01434448,0.12664479
1870.94315186,0.13176167
1872.87195923,0.13669604
1874.80076660,0.13443805
1876.72957397,0.13522014
1878.65838135,0.13464248
1880.58718872,0.13396797
1882.51599609,0.13500178
1884.44480347,0.13262820
1886.37361084,0.13490951
1888.30241821,0.13143413
1890.23122559,0.12888125
1892.16003296,0.13385792
1894.08884033,0.13173866
1896.01764771,0.13144040
1897.94645508,0.13268058
1899.87526245,0.13194482
1901.80406982,0.13223402
1903.73287720,0.13137572
1905.66168457,0.13200139
1907.59049194,0.13069157
1909.51929932,0.12986833
1911.44810669,0.13042369
1913.37691406,0.13076371
1915.30572144,0.13160279
1917.23452881,0.12577930
1919.16333618,0.12632143
1921.09214355,0.13076709
1923.02095093,0.12659162
1924.94975830,0.12923750
1926.87856567,0.13054365
1928.80737305,0.12883644
1930.73618042,0.13015246
1932.66498779,0.12857413
1934.59379517,0.12992787
1936.52260254,0.12863240
1938.45140991,0.12912914
1940.38021729,0.12917168
1942.30902466,0.12471415
1944.23783203,0.12730038
1946.16663940,0.12851560
1948.09544678,0.12806723
1950.02425415,0.12861723
1951.95306152,0.12801000
1953.88186890,0.12818971
1955.81067627,0.12763774
1957.73948364,0.12798300
1959.66829102,0.12769370
1961.59709839,0.12749308
1963.52590576,0.12783167
1965.45471313,0.12683386
1967.38352051,0.12561741
1969.31232788,0.12668735
1971.24113525,0.12734553
1973.16994263,0.12632349
1975.09875000,0.12703852
1977.02755737,0.12631445
1978.95636475,0.12636881
1980.88517212,0.12657920
1982.81397949,0.12581833
1984.74278687,0.12623337
1986.67159424,0.12514129
1988.60040161,0.12538520
1990.52920898,0.12418783
1992.45801636,0.12264123
1994.38682373,0.12459177
1996.31563110,0.12486792
1998.24443848,0.12411555
2000.17324585,0.12401851
2002.10205322,0.12373792
2004.03086060,0.12355049
2005.95966797,0.12329474
2007.88847534,0.12283315
2009.81728271,0.12264174
2011.74609009,0.12233888
2013.67489746,0.12224093
2015.60370483,0.12146950
2017.53251221,0.12040612
2019.46131958,0.12121719
2021.39012695,0.12107908
2023.31893433,0.12064755
2025.24774170,0.12048920
2027.17654907,0.11998177
2029.10535645,0.11997662
2031.03416382,0.11944240
2032.96297119,0.11947830
2034.89177856,0.11909778
2036.82058594,0.11885078
2038.74939331,0.11874415
2040.67820068,0.11789274
2042.60700806,0.11787711
2044.53581543,0.11769846
2046.46462280,0.11743118
2048.39343018,0.11716440
2050.32223755,0.11688149
2052.25104492,0.11665207
2054.17985229,0.11632191
2056.10865967,0.11617985
2058.03746704,0.11594516
2059.96627441,0.11571363
2061.89508179,0.11545312
2063.82388916,0.11490800
2065.75269653,0.11427723
2067.68150391,0.11466969
2069.61031128,0.11456997
2071.53911865,0.11397380
2073.46792603,0.11399171
2075.39673340,0.11368819
2077.32554077,0.11353318
2079.25434814,0.11309888
2081.18315552,0.11294760
2083.11196289,0.11272456
2085.04077026,0.11238991
2086.96957764,0.11238120
2088.89838501,0.11189191
2090.82719238,0.11189619
2092.75599976,0.11171485
2094.68480713,0.11148550
2096.61361450,0.11138908
2098.54242187,0.11100533
2100.47122925,0.11079580
2102.40003662,0.11066994
2104.32884399,0.11048020
2106.25765137,0.11007996
2108.18645874,0.11002670
2110.11526611,0.10982891
2112.04407349,0.10966992
2113.97288086,0.10943829
2115.90168823,0.10918713
2117.83049561,0.10914856
2119.75930298,0.10871743
2121.68811035,0.10868376
2123.61691772,0.10851908
2125.54572510,0.10833687
2127.47453247,0.10814103
2129.40333984,0.10804574
2131.33214722,0.10807823
2133.26095459,0.10760872
2135.18976196,0.10750771
2137.11856934,0.10734876
2139.04737671,0.10730346
2140.97618408,0.10712566
2142.90499146,0.10697172
2144.83379883,0.10694955
2146.76260620,0.10654679
2148.69141357,0.10649852
2150.62022095,0.10629296
2152.54902832,0.10624012
2154.47783569,0.10611455
2156.40664307,0.10594969
2158.33545044,0.10583574
2160.26425781,0.10560336
2162.19306519,0.10560115
2164.12187256,0.10529101
2166.05067993,0.10525203
2167.97948730,0.10507707
2169.90829468,0.10494526
2171.83710205,0.10484295
2173.76590942,0.10460629
2175.69471680,0.10465286
2177.62352417,0.10438509
2179.55233154,0.10435106
2181.48113892,0.10417390
2183.40994629,0.10401095
2185.33875366,0.10391915
2187.26756104,0.10369131
2189.19636841,0.10360034
2191.12517578,0.10344535
2193.05398315,0.10330818
2194.98279053,0.10302681
2196.91159790,0.10316400
2198.84040527,0.10288088
2200.76921265,0.10263042
2202.69802002,0.10277832
2204.62682739,0.10241476
2206.55563477,0.10238913
2208.48444214,0.10229300
2210.41324951,0.10218120
2212.34205688,0.10204121
2214.27086426,0.10189289
2216.19967163,0.10175285
2218.12847900,0.10144810
2220.05728638,0.10141648
2221.98609375,0.10126438
2223.91490112,0.10113525
2225.84370850,0.10091688
2227.77251587,0.10078076
2229.70132324,0.10062522
2231.63013062,0.10048757
2233.55893799,0.10032709
2235.48774536,0.10004425
2237.41655273,0.10006434
2239.34536011,0.09969801
2241.27416748,0.09956266
2243.20297485,0.09949324
2245.13178223,0.09933782
2247.06058960,0.09925608
2248.98939697,0.09887828
2250.91820435,0.09876086
2252.84701172,0.09859379
2254.77581909,0.09849349
2256.70462646,0.09823523
2258.63343384,0.09817548
2260.56224121,0.09809569
2262.49104858,0.09775539
2264.41985596,0.09779796
2266.34866333,0.09750971
2268.27747070,0.09738075
2270.20627808,0.09728461
2272.13508545,0.09708670
2274.06389282,0.09698015
2275.99270020,0.09689111
2277.92150757,0.09681394
2279.85031494,0.09666084
2281.77912231,0.09676793
2283.70792969,0.09645522
2285.63673706,0.09620100
2287.56554443,0.09597020
2289.49435181,0.09570080
2291.42315918,0.09554268
2293.35196655,0.09511475
2295.28077393,0.09496605
2297.20958130,0.09459706
2299.13838867,0.09425813
2301.06719604,0.09390824
2302.99600342,0.09339272
2304.92481079,0.09291871
2306.85361816,0.09241086
2308.78242554,0.09169962
2310.71123291,0.09064290
2312.64004028,0.08996872
2314.56884766,0.08903497
2316.49765503,0.08794823
2318.42646240,0.08679134
2320.35526978,0.08560423
2322.28407715,0.08447330
2324.21288452,0.08315600
2326.14169189,0.08234397
2328.07049927,0.08123570
2329.99930664,0.08028415
2331.92811401,0.07969929
2333.85692139,0.07928042
2335.78572876,0.07893707
2337.71453613,0.07861600
2339.64334351,0.07872429
2341.57215088,0.07898721
2343.50095825,0.08015637
2345.42976562,0.08160308
2347.35857300,0.08522055
2349.28738037,0.08792984
2351.21618774,0.08461562
2353.14499512,0.08042940
2355.07380249,0.07730582
2357.00260986,0.07483955
2358.93141724,0.07347054
2360.86022461,0.07260498
2362.78903198,0.07258859
2364.71783936,0.07301995
2366.64664673,0.07404089
2368.57545410,0.07536381
2370.50426147,0.07739256
2372.43306885,0.07952678
2374.36187622,0.08174135
2376.29068359,0.08407120
2378.21949097,0.08582721
2380.14829834,0.08744159
2382.07710571,0.08829091
2384.00591309,0.08896555
2385.93472046,0.08916642
2387.86352783,0.08916941
2389.79233521,0.08925277
2391.72114258,0.08894638
2393.64994995,0.08895734
2395.57875732,0.08872195
2397.50756470,0.08862631
2399.43637207,0.08844752
2401.36517944,0.08839661
2403.29398682,0.08835419
2405.22279419,0.08803597
2407.15160156,0.08810604
2409.08040894,0.08778983
2411.00921631,0.08773579
2412.93802368,0.08766001
2414.86683105,0.08749241
2416.79563843,0.08735938
2418.72444580,0.08705458
2420.65325317,0.08712885
2422.58206055,0.08688717
2424.51086792,0.08684373
2426.43967529,0.08673528
2428.36848267,0.08649419
2430.29729004,0.08652194
2432.22609741,0.08629090
2434.15490479,0.08613349
2436.08371216,0.08601335
2438.01251953,0.08594535
2439.94132690,0.08581229
2441.87013428,0.08564555
2443.79894165,0.08558386
2445.72774902,0.08550923
2447.65655640,0.08527028
2449.58536377,0.08513896
2451.51417114,0.08517598
2453.44297852,0.08493806
2455.37178589,0.08485645
2457.30059326,0.08475986
2459.22940063,0.08461680
2461.15820801,0.08446078
2463.08701538,0.08425233
2465.01582275,0.08416122
2466.94463013,0.08402486
2468.87343750,0.08398584
2470.80224487,0.08371933
2472.73105225,0.08354278
2474.65985962,0.08354364
2476.58866699,0.08352858
2478.51747437,0.08337633
2480.44628174,0.08307338
2482.37508911,0.08307581
2484.30389648,0.08285842
2486.23270386,0.08272299
2488.16151123,0.08274582
2490.09031860,0.08251365
2492.01912598,0.08241294
2493.94793335,0.08233200
2495.87674072,0.08209903
2497.80554810,0.08207530
2499.73435547,0.08209884
2501.66316284,0.08178802
2503.59197021,0.08174530
2505.52077759,0.08157842
2507.44958496,0.08140299
2509.37839233,0.08146620
2511.30719971,0.08125108
2513.23600708,0.08116928
2515.16481445,0.08093537
2517.09362183,0.08082370
2519.02242920,0.08074906
2520.95123657,0.08053138
2522.88004395,0.08044563
2524.80885132,0.08030042
2526.73765869,0.08030459
2528.66646606,0.08019719
2530.59527344,0.08010750
2532.52408081,0.07987777
2534.45288818,0.07973641
2536.38169556,0.07971832
2538.31050293,0.07949068
2540.23931030,0.07944933
2542.16811768,0.07929301
2544.09692505,0.07921740
2546.02573242,0.07906280
2547.95453979,0.07897913
2549.88334717,0.07891594
2551.81215454,0.07868053
2553.74096191,0.07869568
2555.66976929,0.07846501
2557.59857666,0.07847568
2559.52738403,0.07838768
2561.45619141,0.07805730
2563.38499878,0.07807755
2565.31380615,0.07791661
2567.24261353,0.07783121
2569.17142090,0.07772386
2571.10022827,0.07752143
2573.02903564,0.07748774
2574.95784302,0.07736477
2576.88665039,0.07722334
2578.81545776,0.07721256
2580.74426514,0.07706915
2582.67307251,0.07692283
2584.60187988,0.07686748
2586.53068726,0.07668518
2588.45949463,0.07657632
2590.38830200,0.07638150
2592.31710937,0.07628045
2594.24591675,0.07623544
2596.17472412,0.07599573
2598.10353149,0.07586566
2600.03233887,0.07583249
2601.96114624,0.07571772
2603.88995361,0.07555409
2605.81876099,0.07556395
2607.74756836,0.07544781
2609.67637573,0.07533683
2611.60518311,0.07522590
2613.53399048,0.07513733
2615.46279785,0.07503004
2617.39160522,0.07469557
2619.32041260,0.07473722
2621.24921997,0.07454979
2623.17802734,0.07451151
2625.10683472,0.07448662
2627.03564209,0.07413188
2628.96444946,0.07426178
2630.89325684,0.07404312
2632.82206421,0.07392305
2634.75087158,0.07377255
2636.67967895,0.07355527
2638.60848633,0.07357486
2640.53729370,0.07331721
2642.46610107,0.07338215
2644.39490845,0.07319430
2646.32371582,0.07298060
2648.25252319,0.07293777
2650.18133057,0.07284159
2652.11013794,0.07287519
2654.03894531,0.07264231
2655.96775269,0.07250776
2657.89656006,0.07242156
2659.82536743,0.07237107
2661.75417480,0.07225987
2663.68298218,0.07211305
2665.61178955,0.07197468
2667.54059692,0.07178388
2669.46940430,0.07182156
2671.39821167,0.07171052
2673.32701904,0.07154298
2675.25582642,0.07148661
2677.18463379,0.07144651
2679.11344116,0.07118593
2681.04224854,0.07098165
2682.97105591,0.07100919
2684.89986328,0.07088833
2686.82867065,0.07078308
2688.75747803,0.07060811
2690.68628540,0.07052764
2692.61509277,0.07034816
2694.54390015,0.07021884
2696.47270752,0.07018191
2698.40151489,0.06994633
2700.33032227,0.06994495
2702.25912964,0.06982985
2704.18793701,0.06971574
2706.11674438,0.06957606
2708.04555176,0.06948970
2709.97435913,0.06952551
2711.90316650,0.06921770
2713.83197388,0.06900075
2715.76078125,0.06890145
2717.68958862,0.06887212
2719.61839600,0.06876195
2721.54720337,0.06866333
2723.47601074,0.06858155
2725.40481812,0.06831726
2727.33362549,0.06826324
2729.26243286,0.06823976
2731.19124023,0.06814598
2733.12004761,0.06801131
2735.04885498,0.06794075
2736.97766235,0.06778991
2738.90646973,0.06756850
2740.83527710,0.06748291
2742.76408447,0.06735320
2744.69289185,0.06731442
2746.62169922,0.06715522
2748.55050659,0.06704514
2750.47931396,0.06696974
2752.40812134,0.06677161
2754.33692871,0.06676859
2756.26573608,0.06666417
2758.19454346,0.06639462
2760.12335083,0.06632879
2762.05215820,0.06637910
2763.98096558,0.06613515
2765.90977295,0.06606041
2767.83858032,0.06608521
2769.76738770,0.06582059
2771.69619507,0.06566738
2773.62500244,0.06545028
2775.55380981,0.06538706
2777.48261719,0.06543186
2779.41142456,0.06519653
2781.34023193,0.06499957
2783.26903931,0.06493556
2785.19784668,0.06479342
2787.12665405,0.06459574
2789.05546143,0.06449793
2790.98426880,0.06439862
2792.91307617,0.06426740
2794.84188354,0.06416281
2796.77069092,0.06415281
2798.69949829,0.06396657
2800.62830566,0.06378457
2802.55711304,0.06377521
2804.48592041,0.06347698
2806.41472778,0.06331931
2808.34353516,0.06329097
2810.27234253,0.06317282
2812.20114990,0.06312798
2814.12995728,0.06292363
2816.05876465,0.06274952
2817.98757202,0.06271887
2819.91637939,0.06251843
2821.84518677,0.06237433
2823.77399414,0.06235795
2825.70280151,0.06208410
2827.63160889,0.06199889
2829.56041626,0.06186987
2831.48922363,0.06161554
2833.41803101,0.06158207
2835.34683838,0.06140975
2837.27564575,0.06130110
2839.20445312,0.06099901
2841.13326050,0.06082985
2843.06206787,0.06073794
2844.99087524,0.06038848
2846.91968262,0.06009579
2848.84848999,0.05961818
2850.77729736,0.05950321
2852.70610474,0.05941398
2854.63491211,0.05937118
2856.56371948,0.05941796
2858.49252686,0.05913391
2860.42133423,0.05913771
2862.35014160,0.05905960
2864.27894897,0.05898787
2866.20775635,0.05897629
2868.13656372,0.05885478
2870.06537109,0.05862264
2871.99417847,0.05844758
2873.92298584,0.05849842
2875.85179321,0.05827969
2877.78060059,0.05820198
2879.70940796,0.05809972
2881.63821533,0.05808763
2883.56702270,0.05806987
2885.49583008,0.05778270
2887.42463745,0.05778706
2889.35344482,0.05755975
2891.28225220,0.05745250
2893.21105957,0.05742096
2895.13986694,0.05718657
2897.06867432,0.05711866
2898.99748169,0.05697218
2900.92628906,0.05680092
2902.85509644,0.05660387
2904.78390381,0.05647120
2906.71271118,0.05625638
2908.64151855,0.05604048
2910.57032593,0.05586777
2912.49913330,0.05554100
2914.42794067,0.05516377
2916.35674805,0.05487736
2918.28555542,0.05477834
2920.21436279,0.05461892
2922.14317017,0.05464108
2924.07197754,0.05464152
2926.00078491,0.05454583
2927.92959229,0.05449074
2929.85839966,0.05431408
2931.78720703,0.05427932
2933.71601440,0.05417728
2935.64482178,0.05430893
2937.57362915,0.05442696
2939.50243652,0.05430236
2941.43124390,0.05433477
2943.36005127,0.05416204
2945.28885864,0.05405790
2947.21766602,0.05404944
2949.14647339,0.05392272
2951.07528076,0.05386428
2953.00408813,0.05374495
2954.93289551,0.05347583
2956.86170288,0.05333077
2958.79051025,0.05330498
2960.71931763,0.05320201
2962.64812500,0.05298455
2964.57693237,0.05270331
2966.50573975,0.05281357
2968.43454712,0.05280121
2970.36335449,0.05267334
2972.29216187,0.05284449
2974.22096924,0.05283311
2976.14977661,0.05294847
2978.07858398,0.05290848
2980.00739136,0.05275088
2981.93619873,0.05277647
2983.86500610,0.05269131
2985.79381348,0.05271748
2987.72262085,0.05262821
2989.65142822,0.05246622
2991.58023560,0.05241277
2993.50904297,0.05234916
2995.43785034,0.05226593
2997.36665771,0.05218163
2999.29546509,0.05216603
3001.22427246,0.05209226
3003.15307983,0.05193333
3005.08188721,0.05175210
3007.01069458,0.05162992
3008.93950195,0.05154279
3010.86830933,0.05132756
3012.79711670,0.05110142
3014.72592407,0.05111039
3016.65473145,0.05107311
3018.58353882,0.05098596
3020.51234619,0.05097961
3022.44115356,0.05078456
3024.36996094,0.05064651
3026.29876831,0.05056049
3028.22757568,0.05049569
3030.15638306,0.05032999
3032.08519043,0.05004863
3034.01399780,0.04995675
3035.94280518,0.04986327
3037.87161255,0.04993720
3039.80041992,0.04983082
3041.72922729,0.04955292
3043.65803467,0.04951965
3045.58684204,0.04940807
3047.51564941,0.04931394
3049.44445679,0.04920706
3051.37326416,0.04915058
3053.30207153,0.04904456
3055.23087891,0.04877649
3057.15968628,0.04866188
3059.08849365,0.04865115
3061.01730103,0.04863210
3062.94610840,0.04853408
3064.87491577,0.04839454
3066.80372314,0.04826951
3068.73253052,0.04821018
3070.66133789,0.04808670
3072.59014526,0.04793608
3074.51895264,0.04791147
3076.44776001,0.04780092
3078.37656738,0.04756932
3080.30537476,0.04745017
3082.23418213,0.04751251
3084.16298950,0.04738782
3086.09179687,0.04729026
3088.02060425,0.04726730
3089.94941162,0.04706437
3091.87821899,0.04707217
3093.80702637,0.04695290
3095.73583374,0.04666934
3097.66464111,0.04665429
3099.59344849,0.04653414
3101.52225586,0.04634648
3103.45106323,0.04633478
3105.37987061,0.04617912
3107.30867798,0.04604663
3109.23748535,0.04594128
3111.16629272,0.04586187
3113.09510010,0.04590843
3115.02390747,0.04547982
3116.95271484,0.04528398
3118.88152222,0.04531434
3120.81032959,0.04504621
3122.73913696,0.04504248
3124.66794434,0.04494391
3126.59675171,0.04486082
3128.52555908,0.04478570
3130.45436645,0.04473595
3132.38317383,0.04460530
3134.31198120,0.04435015
3136.24078857,0.04440101
3138.16959595,0.04409257
3140.09840332,0.04396052
3142.02721069,0.04400130
3143.95601807,0.04373545
3145.88482544,0.04366259
3147.81363281,0.04359023
3149.74244019,0.04347522
3151.67124756,0.04323107
3153.60005493,0.04314323
3155.52886230,0.04310639
3157.45766968,0.04294242
3159.38647705,0.04288428
3161.31528442,0.04275788
3163.24409180,0.04260075
3165.17289917,0.04237674
3167.10170654,0.04220902
3169.03051392,0.04215098
3170.95932129,0.04213815
3172.88812866,0.04198218
3174.81693604,0.04187673
3176.74574341,0.04173860
3178.67455078,0.04143023
3180.60335815,0.04145399
3182.53216553,0.04140408
3184.46097290,0.04125344
3186.38978027,0.04102112
3188.31858765,0.04094863
3190.24739502,0.04097409
3192.17620239,0.04075529
3194.10500977,0.04076314
3196.03381714,0.04051061
3197.96262451,0.04038572
3199.89143188,0.04038720
3201.82023926,0.04025161
3203.74904663,0.04026931
3205.67785400,0.04008011
3207.60666138,0.03997146
3209.53546875,0.03987266
3211.46427612,0.03981629
3213.39308350,0.03960440
3215.32189087,0.03955727
3217.25069824,0.03961270
3219.17950562,0.03933236
3221.10831299,0.03934440
3223.03712036,0.03924816
3224.96592773,0.03934217
3226.89473511,0.03927410
3228.82354248,0.03898143
3230.75234985,0.03901035
3232.68115723,0.03877082
3234.60996460,0.03873131
3236.53877197,0.03872047
3238.46757935,0.03866477
3240.39638672,0.03864411
3242.32519409,0.03858080
3244.25400146,0.03847557
3246.18280884,0.03828776
3248.11161621,0.03833042
3250.04042358,0.03831243
3251.96923096,0.03827829
3253.89803833,0.03803686
3255.82684570,0.03807887
3257.75565308,0.03817789
3259.68446045,0.03796748
3261.61326782,0.03806958
3263.54207520,0.03788899
3265.47088257,0.03794341
3267.39968994,0.03796659
3269.32849731,0.03769022
3271.25730469,0.03764097
3273.18611206,0.03756160
3275.11491943,0.03765289
3277.04372681,0.03754078
3278.97253418,0.03746280
3280.90134155,0.03744167
3282.83014893,0.03732386
3284.75895630,0.03731061
3286.68776367,0.03731745
3288.61657104,0.03729130
3290.54537842,0.03705461
3292.47418579,0.03706999
3294.40299316,0.03714073
3296.33180054,0.03708798
3298.26060791,0.03697541
3300.18941528,0.03690833
3302.11822266,0.03695187
3304.04703003,0.03677503
3305.97583740,0.03670959
3307.90464478,0.03658315
3309.83345215,0.03650709
3311.76225952,0.03663252
3313.69106689,0.03662836
3315.61987427,0.03655170
3317.54868164,0.03652865
3319.47748901,0.03649238
3321.40629639,0.03639336
3323.33510376,0.03636038
3325.26391113,0.03612430
3327.19271851,0.03615066
3329.12152588,0.03616843
3331.05033325,0.03591544
3332.97914062,0.03605419
3334.90794800,0.03600777
3336.83675537,0.03578722
3338.76556274,0.03573060
3340.69437012,0.03574164
3342.62317749,0.03563274
3344.55198486,0.03560726
3346.48079224,0.03562880
3348.40959961,0.03545606
3350.33840698,0.03545456
3352.26721436,0.03531957
3354.19602173,0.03523848
3356.12482910,0.03522289
3358.05363647,0.03510559
3359.98244385,0.03504959
3361.91125122,0.03506110
3363.84005859,0.03503743
3365.76886597,0.03480161
3367.69767334,0.03472722
3369.62648071,0.03461174
3371.55528809,0.03468164
3373.48409546,0.03467721
3375.41290283,0.03453937
3377.34171020,0.03459708
3379.27051758,0.03436629
3381.19932495,0.03440417
3383.12813232,0.03436360
3385.05693970,0.03418390
3386.98574707,0.03409144
3388.91455444,0.03408382
3390.84336182,0.03395382
3392.77216919,0.03357473
3394.70097656,0.03379489
3396.62978394,0.03376484
3398.55859131,0.03364855
3400.48739868,0.03354738
3402.41620605,0.03339288
3404.34501343,0.03357974
3406.27382080,0.03340552
3408.20262817,0.03335301
3410.13143555,0.03329794
3412.06024292,0.03328528
3413.98905029,0.03315859
3415.91785767,0.03308001
3417.84666504,0.03314335
3419.77547241,0.03281675
3421.70427979,0.03280749
3423.63308716,0.03279083
3425.56189453,0.03285437
3427.49070190,0.03273199
3429.41950928,0.03265438
3431.34831665,0.03268802
3433.27712402,0.03242077
3435.20593140,0.03246062
3437.13473877,0.03220195
3439.06354614,0.03226243
3440.99235352,0.03215032
3442.92116089,0.03199849
3444.84996826,0.03212098
3446.77877563,0.03161862
3448.70758301,0.03186661
3450.63639038,0.03208904
3452.56519775,0.03192231
3454.49400513,0.03194824
3456.42281250,0.03188840
3458.35161987,0.03181859
3460.28042725,0.03162162
3462.20923462,0.03158655
3464.13804199,0.03154875
3466.06684937,0.03156973
3467.99565674,0.03146938
3469.92446411,0.03145104
3471.85327148,0.03148365
3473.78207886,0.03136486
3475.71088623,0.03134769
3477.63969360,0.03133555
3479.56850098,0.03122267
3481.49730835,0.03085901
3483.42611572,0.03109458
3485.35492310,0.03118400
3487.28373047,0.03097517
3489.21253784,0.03110274
3491.14134521,0.03107898
3493.07015259,0.03116486
3494.99895996,0.03100014
3496.92776733,0.03093429
3498.85657471,0.03092653
3500.78538208,0.03081023
3502.71418945,0.03029451
3504.64299683,0.03032563
3506.57180420,0.03112553
3508.50061157,0.03050392
3510.42941895,0.03039919
3512.35822632,0.03076020
3514.28703369,0.03073024
3516.21584106,0.03096419
3518.14464844,0.03060006
3520.07345581,0.03069457
3522.00226318,0.03048836
3523.93107056,0.03000838
3525.85987793,0.03016658
3527.78868530,0.03019273
3529.71749268,0.03030003
3531.64630005,0.03052443
3533.57510742,0.03067304
3535.50391479,0.03042714
3537.43272217,0.03022495
3539.36152954,0.03055911
3541.29033691,0.03059122
3543.21914429,0.03018079
3545.14795166,0.02956705
3547.07675903,0.02911830
3549.00556641,0.03016435
3550.93437378,0.03038818
3552.86318115,0.02953738
3554.79198853,0.03030303
3556.72079590,0.03034422
3558.64960327,0.03007675
3560.57841064,0.02989875
3562.50721802,0.02974546
3564.43602539,0.02989801
3566.36483276,0.02783762
3568.29364014,0.02741371
3570.22244751,0.02961352
3572.15125488,0.03022543
3574.08006226,0.02995658
3576.00886963,0.03007530
3577.93767700,0.02993814
3579.86648437,0.02986091
3581.79529175,0.02987859
3583.72409912,0.02987008
3585.65290649,0.02922105
3587.58171387,0.02699420
3589.51052124,0.02781234
3591.43932861,0.03009659
3593.36813599,0.02924703
3595.29694336,0.02881160
3597.22575073,0.02928776
3599.15455811,0.02947810
3601.08336548,0.02915068
3603.01217285,0.02943183
3604.94098022,0.03002407
3606.86978760,0.02890211
3608.79859497,0.02720219
3610.72740234,0.02789270
3612.65620972,0.02848633
3614.58501709,0.02767090
3616.51382446,0.02953760
3618.44263184,0.02732636
3620.37143921,0.02662329
3622.30024658,0.02977772
3624.22905395,0.02896385
3626.15786133,0.03031282
3628.08666870,0.02547600
3630.01547607,0.02352442
3631.94428345,0.02948201
3633.87309082,0.02858055
3635.80189819,0.02930279
3637.73070557,0.02976916
3639.65951294,0.02935078
3641.58832031,0.02957163
3643.51712769,0.02901301
3645.44593506,0.02934902
3647.37474243,0.02637418
3649.30354980,0.02424030
3651.23235718,0.02458489
3653.16116455,0.02915718
3655.08997192,0.02862907
3657.01877930,0.02582809
3658.94758667,0.02973072
3660.87639404,0.02889849
3662.80520142,0.02941641
3664.73400879,0.02911680
3666.66281616,0.02890573
3668.59162354,0.02806099
3670.52043091,0.02298496
3672.44923828,0.02799495
3674.37804565,0.02617109
3676.30685303,0.02190747
3678.23566040,0.02765517
3680.16446777,0.02799185
3682.09327515,0.02816543
3684.02208252,0.02902197
3685.95088989,0.02858096
3687.87969727,0.02556053
3689.80850464,0.02367761
3691.73731201,0.02708244
3693.66611938,0.02768051
3695.59492676,0.02837556
3697.52373413,0.02817442
3699.45254150,0.02796722
3701.38134888,0.02725184
3703.31015625,0.02631855
3705.23896362,0.02888718
3707.16777100,0.02731025
3709.09657837,0.02680897
3711.02538574,0.02519249
3712.95419312,0.02375356
3714.88300049,0.02769015
3716.81180786,0.02722110
3718.74061523,0.02745499
3720.66942261,0.02671376
3722.59822998,0.02603215
3724.52703735,0.02686318
3726.45584473,0.02497611
3728.38465210,0.02711064
3730.31345947,0.02658980
3732.24226685,0.02459997
3734.17107422,0.02398415
3736.09988159,0.02283134
3738.02868896,0.02422404
3739.95749634,0.02619854
3741.88630371,0.02726356
3743.81511108,0.02116225
3745.74391846,0.02030545
3747.67272583,0.02597990
3749.60153320,0.02219575
3751.53034058,0.02064730
3753.45914795,0.02369465
3755.38795532,0.02552958
3757.31676270,0.02641397
3759.24557007,0.02450574
3761.17437744,0.02547017
3763.10318481,0.02683332
3765.03199219,0.02516515
3766.96079956,0.02563035
3768.88960693,0.02525292
3770.81841431,0.02438699
3772.74722168,0.02618060
3774.67602905,0.02611513
3776.60483643,0.02620055
3778.53364380,0.02538529
3780.46245117,0.02447847
3782.39125854,0.02606023
3784.32006592,0.02544622
3786.24887329,0.02531230
3788.17768066,0.02579580
3790.10648804,0.02567240
3792.03529541,0.02551426
3793.96410278,0.02591791
3795.89291016,0.02437919
3797.82171753,0.02418678
3799.75052490,0.02528967
3801.67933228,0.02006415
3803.60813965,0.02366166
3805.53694702,0.02532642
3807.46575439,0.02081404
3809.39456177,0.02530248
3811.32336914,0.02461355
3813.25217651,0.02558102
3815.18098389,0.02303375
3817.10979126,0.02044444
3819.03859863,0.02559450
3820.96740601,0.02050920
3822.89621338,0.02191812
3824.82502075,0.02525683
3826.75382812,0.02275313
3828.68263550,0.02469184
3830.61144287,0.02367846
3832.54025024,0.02290600
3834.46905762,0.02334872
3836.39786499,0.02222865
3838.32667236,0.02011247
3840.25547974,0.02181922
3842.18428711,0.02343702
3844.11309448,0.02235873
3846.04190186,0.02425250
3847.97070923,0.02378077
3849.89951660,0.02386606
3851.82832397,0.02136142
3853.75713135,0.01607061
3855.68593872,0.01919482
3857.61474609,0.02386874
3859.54355347,0.02321287
3861.47236084,0.02288971
3863.40116821,0.02236918
3865.32997559,0.02084370
3867.25878296,0.02330038
3869.18759033,0.02119755
3871.11639770,0.01970357
3873.04520508,0.02335130
3874.97401245,0.02135502
3876.90281982,0.02325080
3878.83162720,0.02346325
3880.76043457,0.02010659
3882.68924194,0.02326623
3884.61804932,0.02167071
3886.54685669,0.02003283
3888.47566406,0.02320819
3890.40447144,0.02194836
3892.33327881,0.02068741
3894.26208618,0.02259125
3896.19089355,0.02301818
3898.11970093,0.02182754
3900.04850830,0.02069876
3901.97731567,0.02049465
3903.90612305,0.02021223
3905.83493042,0.02058329
3907.76373779,0.02251551
3909.69254517,0.02246958
3911.62135254,0.02229645
3913.55015991,0.02262197
3915.47896728,0.02183120
3917.40777466,0.02128576
3919.33658203,0.02109121
3921.26538940,0.02187476
3923.19419678,0.02171889
3925.12300415,0.02132925
3927.05181152,0.02167309
3928.98061890,0.02182464
3930.90942627,0.02147184
3932.83823364,0.02072231
3934.76704102,0.02159506
3936.69584839,0.02173460
3938.62465576,0.02155584
3940.55346313,0.02178584
3942.48227051,0.02087480
3944.41107788,0.02107097
3946.33988525,0.02151321
3948.26869263,0.02104380
3950.19750000,0.02091174
3952.12630737,0.02132481
3954.05511475,0.02124623
3955.98392212,0.02110263
3957.91272949,0.02118806
3959.84153687,0.02099840
3961.77034424,0.02095981
3963.69915161,0.02097853
3965.62795898,0.02116420
3967.55676636,0.02092364
3969.48557373,0.02079820
3971.41438110,0.02082393
3973.34318848,0.02071499
3975.27199585,0.02080432
3977.20080322,0.02067497
3979.12961060,0.02077906
3981.05841797,0.02061555
3982.98722534,0.02058332
3984.91603271,0.02055620
3986.84484009,0.02046584
3988.77364746,0.02048254
3990.70245483,0.02022390
3992.63126221,0.02039301
3994.56006958,0.02019057
3996.48887695,0.02020109
3998.41768433,0.02026268
4000.34649170,0.02006896
4002.27529907,0.02015047
4004.20410645,0.01994992
4006.13291382,0.02002497
4008.06172119,0.01993750
4009.99052856,0.01990679
4011.91933594,0.01994928
4013.84814331,0.01979261
4015.77695068,0.01979595
4017.70575806,0.01975605
4019.63456543,0.01968399
4021.56337280,0.01956854
4023.49218018,0.01963818
4025.42098755,0.01958140
4027.34979492,0.01962032
4029.27860229,0.01953918
4031.20740967,0.01944103
4033.13621704,0.01944062
4035.06502441,0.01925183
4036.99383179,0.01940726
4038.92263916,0.01928232
4040.85144653,0.01929327
4042.78025391,0.01928243
4044.70906128,0.01909921
4046.63786865,0.01912588
4048.56667603,0.01899720
4050.49548340,0.01902088
4052.42429077,0.01893471
4054.35309814,0.01898621
4056.28190552,0.01891355
4058.21071289,0.01886081
4060.13952026,0.01882170
4062.06832764,0.01869188
4063.99713501,0.01880810
4065.92594238,0.01857323
4067.85474976,0.01857094
4069.78355713,0.01851881
4071.71236450,0.01850950
4073.64117187,0.01854975
4075.56997925,0.01838436
4077.49878662,0.01848317
4079.42759399,0.01841229
4081.35640137,0.01840629
4083.28520874,0.01826401
4085.21401611,0.01823027
4087.14282349,0.01820655
4089.07163086,0.01818376
4091.00043823,0.01820709
4092.92924561,0.01794599
4094.85805298,0.01806124
4096.78686035,0.01794872
4098.71566772,0.01792609
4100.64447510,0.01799453
4102.57328247,0.01782519
4104.50208984,0.01778898
4106.43089722,0.01772668
4108.35970459,0.01774614
4110.28851196,0.01761274
4112.21731934,0.01767266
4114.14612671,0.01763579
4116.07493408,0.01754243
4118.00374145,0.01752598
4119.93254883,0.01750914
4121.86135620,0.01757067
4123.79016357,0.01738269
4125.71897095,0.01737165
4127.64777832,0.01719215
4129.57658569,0.01721885
4131.50539307,0.01727095
4133.43420044,0.01718780
4135.36300781,0.01724790
4137.29181519,0.01702165
4139.22062256,0.01709181
4141.14942993,0.01695035
4143.07823730,0.01691378
4145.00704468,0.01702037
4146.93585205,0.01693626
4148.86465942,0.01688832
4150.79346680,0.01673472
4152.72227417,0.01687580
4154.65108154,0.01670847
4156.57988892,0.01667045
4158.50869629,0.01670466
4160.43750366,0.01661449
4162.36631103,0.01665449
4164.29511841,0.01645197
4166.22392578,0.01652569
4168.15273315,0.01650697
4170.08154053,0.01643884
4172.01034790,0.01640001
4173.93915527,0.01637055
4175.86796265,0.01635971
4177.79677002,0.01633446
4179.72557739,0.01633934
4181.65438477,0.01613684
4183.58319214,0.01629275
4185.51199951,0.01619240
4187.44080688,0.01605401
4189.36961426,0.01609530
4191.29842163,0.01595766
4193.22722900,0.01609069
4195.15603638,0.01599856
4197.08484375,0.01592903
4199.01365112,0.01587709
4200.94245850,0.01578126
4202.87126587,0.01581737
4204.80007324,0.01584887
4206.72888062,0.01577382
4208.65768799,0.01564005
4210.58649536,0.01568825
4212.51530273,0.01556144
4214.44411011,0.01557515
4216.37291748,0.01559123
4218.30172485,0.01547625
4220.23053223,0.01541448
4222.15933960,0.01541298
4224.08814697,0.01547317
4226.01695435,0.01531873
4227.94576172,0.01532086
4229.87456909,0.01523462
4231.80337646,0.01520194
4233.73218384,0.01519222
4235.66099121,0.01512964
4237.58979858,0.01514635
4239.51860596,0.01503753
4241.44741333,0.01516844
4243.37622070,0.01499575
4245.30502808,0.01494123
4247.23383545,0.01494884
4249.16264282,0.01478731
4251.09145020,0.01490608
4253.02025757,0.01474727
4254.94906494,0.01475365
4256.87787231,0.01477208
4258.80667969,0.01471087
4260.73548706,0.01470272
4262.66429443,0.01462069
4264.59310181,0.01460031
4266.52190918,0.01454249
4268.45071655,0.01460456
4270.37952393,0.01452995
4272.30833130,0.01451183
4274.23713867,0.01442954
4276.16594604,0.01432393
4278.09475342,0.01434970
4280.02356079,0.01425011
4281.95236816,0.01432538
4283.88117554,0.01431478
4285.80998291,0.01417465
4287.73879028,0.01415418
4289.66759766,0.01422158
4291.59640503,0.01405044
4293.52521240,0.01400057
4295.45401978,0.01413417
4297.38282715,0.01401348
4299.31163452,0.01405082
4301.24044189,0.01394511
4303.16924927,0.01387526
4305.09805664,0.01388448
4307.02686401,0.01378223
4308.95567139,0.01383484
4310.88447876,0.01384976
4312.81328613,0.01381293
4314.74209351,0.01368760
4316.67090088,0.01367648
4318.59970825,0.01359617
4320.52851562,0.01358459
4322.45732300,0.01362848
4324.38613037,0.01350385
4326.31493774,0.01354252
4328.24374512,0.01349092
4330.17255249,0.01345897
4332.10135986,0.01344905
4334.03016724,0.01344051
4335.95897461,0.01340239
4337.88778198,0.01330671
4339.81658936,0.01328363
4341.74539673,0.01326195
4343.67420410,0.01325590
4345.60301147,0.01310604
4347.53181885,0.01314308
4349.46062622,0.01320012
4351.38943359,0.01312197
4353.31824097,0.01297987
4355.24704834,0.01296257
4357.17585571,0.01312047
4359.10466309,0.01292784
4361.03347046,0.01288848
4362.96227783,0.01289356
4364.89108520,0.01285930
4366.81989258,0.01282088
4368.74869995,0.01274252
4370.67750732,0.01283150
4372.60631470,0.01270115
4374.53512207,0.01269011
4376.46392944,0.01267453
4378.39273682,0.01265477
4380.32154419,0.01258836
4382.25035156,0.01253033
4384.17915894,0.01258844
4386.10796631,0.01244264
4388.03677368,0.01250730
4389.96558105,0.01243702
4391.89438843,0.01245257
4393.82319580,0.01242105
4395.75200317,0.01228987
4397.68081055,0.01241157
4399.60961792,0.01227889
4401.53842529,0.01227560
4403.46723267,0.01221440
4405.39604004,0.01219964
4407.32484741,0.01216820
4409.25365478,0.01206255
4411.18246216,0.01217066
4413.11126953,0.01211208
4415.04007690,0.01213188
4416.96888428,0.01203197
4418.89769165,0.01197852
4420.82649902,0.01204973
4422.75530640,0.01201171
4424.68411377,0.01189018
4426.61292114,0.01180967
4428.54172852,0.01184247
4430.47053589,0.01175765
4432.39934326,0.01181818
4434.32815063,0.01172319
4436.25695801,0.01172499
4438.18576538,0.01169628
4440.11457275,0.01153079
4442.04338013,0.01164507
4443.97218750,0.01157076
4445.90099487,0.01163201
4447.82980225,0.01160657
4449.75860962,0.01160666
4451.68741699,0.01158143
4453.61622437,0.01144090
4455.54503174,0.01155166
4457.47383911,0.01136556
4459.40264648,0.01135725
4461.33145386,0.01129502
4463.26026123,0.01115305
4465.18906860,0.01127712
4467.11787598,0.01121559
4469.04668335,0.01117611
4470.97549072,0.01120486
4472.90429810,0.01119548
4474.83310547,0.01108295
4476.76191284,0.01113544
4478.69072021,0.01113216
4480.61952759,0.01102469
4482.54833496,0.01106038
4484.47714233,0.01101740
4486.40594971,0.01091282
4488.33475708,0.01082808
4490.26356445,0.01092594
4492.19237183,0.01086968
4494.12117920,0.01084376
4496.04998657,0.01081078
4497.97879395,0.01071008
4499.90760132,0.01081008
4501.83640869,0.01072298
4503.76521606,0.01076056
4505.69402344,0.01075448
4507.62283081,0.01070787
4509.55163818,0.01067573
4511.48044556,0.01055336
4513.40925293,0.01059169
4515.33806030,0.01056551
4517.26686768,0.01054865
4519.19567505,0.01042609
4521.12448242,0.01047926
4523.05328979,0.01047814
4524.98209717,0.01034267
4526.91090454,0.01045532
4528.83971191,0.01038616
4530.76851929,0.01038598
4532.69732666,0.01037090
4534.62613403,0.01031558
4536.55494141,0.01029375
4538.48374878,0.01024141
4540.41255615,0.01023455
4542.34136353,0.01011082
4544.27017090,0.01007532
4546.19897827,0.01004768
4548.12778564,0.01005052
4550.05659302,0.01000392
4551.98540039,0.01000069
4553.91420776,0.01008744
4555.84301514,0.00998824
4557.77182251,0.00993659
4559.70062988,0.00993340
4561.62943726,0.00994013
4563.55824463,0.00988799
4565.48705200,0.00987446
4567.41585937,0.00986926
4569.34466675,0.00981999
4571.27347412,0.00978409
4573.20228149,0.00967341
4575.13108887,0.00969733
4577.05989624,0.00965658
4578.98870361,0.00963737
4580.91751099,0.00964826
4582.84631836,0.00960628
4584.77512573,0.00969461
4586.70393311,0.00958186
4588.63274048,0.00947229
4590.56154785,0.00955062
4592.49035522,0.00953260
4594.41916260,0.00949911
4596.34796997,0.00948788
4598.27677734,0.00941760
4600.20558472,0.00946290
4602.13439209,0.00943506
4604.06319946,0.00930917
4605.99200684,0.00932477
4607.92081421,0.00930523
4609.84962158,0.00931755
4611.77842895,0.00927988
4613.70723633,0.00922086
4615.63604370,0.00914904
4617.56485107,0.00916317
4619.49365845,0.00921272
4621.42246582,0.00904388
4623.35127319,0.00912250
4625.28008057,0.00912913
4627.20888794,0.00908506
4629.13769531,0.00912183
4631.06650269,0.00897804
4632.99531006,0.00900964
4634.92411743,0.00899678
4636.85292480,0.00892082
4638.78173218,0.00885615
4640.71053955,0.00882839
4642.63934692,0.00883687
4644.56815430,0.00885044
4646.49696167,0.00881109
4648.42576904,0.00869657
4650.35457642,0.00878214
4652.28338379,0.00875277
4654.21219116,0.00875244
4656.14099853,0.00868902
4658.06980591,0.00855024
4659.99861328,0.00861825
4661.92742065,0.00856516
4663.85622803,0.00856323
4665.78503540,0.00854553
4667.71384277,0.00861572
4669.64265015,0.00859558
4671.57145752,0.00843333
4673.50026489,0.00846744
4675.42907227,0.00841242
4677.35787964,0.00843203
4679.28668701,0.00846042
4681.21549438,0.00842689
4683.14430176,0.00835674
4685.07310913,0.00830218
4687.00191650,0.00835947
4688.93072388,0.00835034
4690.85953125,0.00832451
4692.78833862,0.00825084
4694.71714600,0.00823879
4696.64595337,0.00822579
4698.57476074,0.00818106
4700.50356812,0.00817339
4702.43237549,0.00818091
4704.36118286,0.00818881
4706.28999023,0.00814039
4708.21879761,0.00808426
4710.14760498,0.00800273
4712.07641235,0.00805956
4714.00521973,0.00804714
4715.93402710,0.00797782
4717.86283447,0.00798935
4719.79164185,0.00800780
4721.72044922,0.00802788
4723.64925659,0.00793916
4725.57806396,0.00795474
4727.50687134,0.00789067
4729.43567871,0.00787027
4731.36448608,0.00785543
4733.29329346,0.00781460
4735.22210083,0.00784986
4737.15090820,0.00769007
4739.07971558,0.00777495
4741.00852295,0.00775533
4742.93733032,0.00773730
4744.86613770,0.00779737
4746.79494507,0.00763571
4748.72375244,0.00771312
4750.65255981,0.00769812
4752.58136719,0.00765435
4754.51017456,0.00758902
4756.43898193,0.00759040
4758.36778931,0.00760588
4760.29659668,0.00750348
4762.22540405,0.00756764
4764.15421143,0.00748446
4766.08301880,0.00750220
4768.01182617,0.00744760
4769.94063354,0.00741347
4771.86944092,0.00745846
4773.79824829,0.00732736
4775.72705566,0.00737785
4777.65586304,0.00730538
4779.58467041,0.00739379
4781.51347778,0.00744389
4783.44228516,0.00729682
4785.37109253,0.00737620
4787.29989990,0.00728043
4789.22870728,0.00721097
4791.15751465,0.00727098
4793.08632202,0.00725246
4795.01512939,0.00721071
4796.94393677,0.00718953
4798.87274414,0.00716752
4800.80155151,0.00717442
4802.73035889,0.00714814
4804.65916626,0.00706325
4806.58797363,0.00710705
4808.51678101,0.00700948
4810.44558838,0.00696903
4812.37439575,0.00707929
4814.30320312,0.00699492
4816.23201050,0.00699258
4818.16081787,0.00700783
4820.08962524,0.00697270
4822.01843262,0.00701920
4823.94723999,0.00693023
4825.87604736,0.00687761
4827.80485474,0.00693534
4829.73366211,0.00682951
4831.66246948,0.00678780
4833.59127686,0.00683770
4835.52008423,0.00684929
4837.44889160,0.00682892
4839.37769897,0.00672805
4841.30650635,0.00673742
4843.23531372,0.00671455
4845.16412109,0.00662867
4847.09292847,0.00666564
4849.02173584,0.00671567
4850.95054321,0.00663998
4852.87935059,0.00658420
4854.80815796,0.00663213
4856.73696533,0.00658133
4858.66577270,0.00660183
4860.59458008,0.00659825
4862.52338745,0.00656799
4864.45219482,0.00660689
4866.38100220,0.00652358
4868.30980957,0.00648980
4870.23861694,0.00645324
4872.16742432,0.00643499
4874.09623169,0.00643434
4876.02503906,0.00643170
4877.95384644,0.00644274
4879.88265381,0.00639750
4881.81146118,0.00642009
4883.74026855,0.00639863
4885.66907593,0.00635644
4887.59788330,0.00628168
4889.52669067,0.00628972
4891.45549805,0.00634601
4893.38430542,0.00624646
4895.31311279,0.00624662
4897.24192017,0.00621121
4899.17072754,0.00615582
4901.09953491,0.00624316
4903.02834228,0.00627296
4904.95714966,0.00624974
4906.88595703,0.00621673
4908.81476440,0.00612289
4910.74357178,0.00613340
4912.67237915,0.00617642
4914.60118652,0.00604619
4916.52999390,0.00606084
4918.45880127,0.00611307
4920.38760864,0.00604134
4922.31641602,0.00607783
4924.24522339,0.00609589
4926.17403076,0.00601351
4928.10283813,0.00598609
4930.03164551,0.00596916
4931.96045288,0.00589224
4933.88926025,0.00592154
4935.81806763,0.00588286
4937.74687500,0.00586492
4939.67568237,0.00594445
4941.60448975,0.00586086
4943.53329712,0.00584108
4945.46210449,0.00583392
4947.39091187,0.00577144
4949.31971924,0.00579692
4951.24852661,0.00585466
4953.17733398,0.00576867
4955.10614136,0.00570542
4957.03494873,0.00578492
4958.96375610,0.00569948
4960.89256348,0.00562548
4962.82137085,0.00564141
4964.75017822,0.00571406
4966.67898560,0.00571200
4968.60779297,0.00561040
4970.53660034,0.00559863
4972.46540771,0.00559491
4974.39421509,0.00565770
4976.32302246,0.00563157
4978.25182983,0.00560972
4980.18063721,0.00553260
4982.10944458,0.00545836
4984.03825195,0.00553195
4985.96705933,0.00549481
4987.89586670,0.00553560
4989.82467407,0.00544382
4991.75348145,0.00542278
4993.68228882,0.00553413
4995.61109619,0.00546456
4997.53990356,0.00543310
4999.46871094,0.00536074
5001.39751831,0.00533027
5003.32632568,0.00529767
5005.25513306,0.00533690
5007.18394043,0.00534592
5009.11274780,0.00527173
5011.04155518,0.00530611
5012.97036255,0.00528664
5014.89916992,0.00529787
5016.82797729,0.00520578
5018.75678467,0.00518987
5020.68559204,0.00522345
5022.61439941,0.00514470
5024.54320679,0.00520569
5026.47201416,0.00524107
5028.40082153,0.00520141
5030.32962891,0.00514079
5032.25843628,0.00512369
5034.18724365,0.00508850
5036.11605103,0.00511382
5038.04485840,0.00511842
5039.97366577,0.00507556
5041.90247314,0.00511866
5043.83128052,0.00501468
5045.76008789,0.00504172
5047.68889526,0.00504963
5049.61770264,0.00495392
5051.54651001,0.00502547
5053.47531738,0.00504426
5055.40412476,0.00496165
5057.33293213,0.00492976
5059.26173950,0.00500698
5061.19054687,0.00494080
5063.11935425,0.00492010
5065.04816162,0.00489055
5066.97696899,0.00485601
5068.90577637,0.00495145
5070.83458374,0.00482044
5072.76339111,0.00482083
5074.69219849,0.00483671
5076.62100586,0.00477469
5078.54981323,0.00481831
5080.47862061,0.00479275
5082.40742798,0.00478654
5084.33623535,0.00472878
5086.26504272,0.00479552
5088.19385010,0.00485761
5090.12265747,0.00478959
5092.05146484,0.00476491
5093.98027222,0.00471206
5095.90907959,0.00468483
5097.83788696,0.00464643
5099.76669434,0.00464785
5101.69550171,0.00463992
5103.62430908,0.00457383
5105.55311645,0.00460610
5107.48192383,0.00463616
5109.41073120,0.00454932
5111.33953857,0.00452224
5113.26834595,0.00455150
5115.19715332,0.00451726
5117.12596069,0.00456200
5119.05476807,0.00458982
5120.98357544,0.00451892
5122.91238281,0.00453667
5124.84119019,0.00457630
5126.76999756,0.00443131
5128.69880493,0.00436995
5130.62761230,0.00446854
5132.55641968,0.00445290
5134.48522705,0.00448430
5136.41403442,0.00449364
5138.34284180,0.00442479
5140.27164917,0.00438381
5142.20045654,0.00436722
5144.12926392,0.00436721
5146.05807129,0.00435196
5147.98687866,0.00437055
5149.91568603,0.00429240
5151.84449341,0.00429952
5153.77330078,0.00434150
5155.70210815,0.00424315
5157.63091553,0.00423126
5159.55972290,0.00421294
5161.48853027,0.00417824
5163.41733765,0.00418765
5165.34614502,0.00424829
5167.27495239,0.00428217
5169.20375977,0.00422633
5171.13256714,0.00419862
5173.06137451,0.00420984
5174.99018188,0.00418128
5176.91898926,0.00414192
5178.84779663,0.00418506
5180.77660400,0.00420029
5182.70541138,0.00417113
5184.63421875,0.00406915
5186.56302612,0.00406196
5188.49183350,0.00413014
5190.42064087,0.00403433
5192.34944824,0.00406193
5194.27825562,0.00409960
5196.20706299,0.00401032
5198.13587036,0.00398061
5200.06467773,0.00402357
5201.99348511,0.00400940
5203.92229248,0.00397003
5205.85109985,0.00391166
5207.77990723,0.00382596
5209.70871460,0.00396533
5211.63752197,0.00396651
5213.56632935,0.00396038
5215.49513672,0.00401152
5217.42394409,0.00385322
5219.35275146,0.00388280
5221.28155884,0.00390522
5223.21036621,0.00388678
5225.13917358,0.00380568
5227.06798096,0.00379846
5228.99678833,0.00392035
5230.92559570,0.00383044
5232.85440308,0.00381754
5234.78321045,0.00381878
5236.71201782,0.00381487
5238.64082520,0.00376855
5240.56963257,0.00373832
5242.49843994,0.00375747
5244.42724731,0.00369271
5246.35605469,0.00374734
5248.28486206,0.00364130
5250.21366943,0.00360218
5252.14247681,0.00371585
5254.07128418,0.00367339
5256.00009155,0.00363884
5257.92889893,0.00371219
5259.85770630,0.00378958
5261.78651367,0.00365970
5263.71532104,0.00359746
5265.64412842,0.00363520
5267.57293579,0.00367528
5269.50174316,0.00364520
5271.43055054,0.00360865
5273.35935791,0.00370749
5275.28816528,0.00361729
5277.21697266,0.00360368
5279.14578003,0.00357857
5281.07458740,0.00353205
5283.00339478,0.00361433
5284.93220215,0.00349879
5286.86100952,0.00355681
5288.78981689,0.00359971
5290.71862427,0.00345673
5292.64743164,0.00346575
5294.57623901,0.00351933
5296.50504639,0.00357534
5298.43385376,0.00356612
5300.36266113,0.00349277
5302.29146851,0.00342517
5304.22027588,0.00345388
5306.14908325,0.00346416
5308.07789062,0.00337231
5310.00669800,0.00341779
5311.93550537,0.00346492
5313.86431274,0.00343210
5315.79312012,0.00342115
5317.72192749,0.00341775
5319.65073486,0.00343628
5321.57954224,0.00340270
5323.50834961,0.00339151
5325.43715698,0.00334693
5327.36596436,0.00328515
5329.29477173,0.00334179
5331.22357910,0.00332381
5333.15238647,0.00333271
5335.08119385,0.00337063
5337.01000122,0.00326980
5338.93880859,0.00315610
5340.86761597,0.00323924
5342.79642334,0.00333169
5344.72523071,0.00315634
5346.65403809,0.00314645
5348.58284546,0.00316047
5350.51165283,0.00314485
5352.44046020,0.00326321
5354.36926758,0.00317030
5356.29807495,0.00319237
5358.22688232,0.00320578
5360.15568970,0.00316324
5362.08449707,0.00320639
5364.01330444,0.00310844
5365.94211182,0.00309326
5367.87091919,0.00316782
5369.79972656,0.00320378
5371.72853394,0.00311187
5373.65734131,0.00314911
5375.58614868,0.00313218
5377.51495605,0.00295465
5379.44376343,0.00310147
5381.37257080,0.00318468
5383.30137817,0.00313233
5385.23018555,0.00304761
5387.15899292,0.00295229
5389.08780029,0.00299853
5391.01660767,0.00300681
5392.94541504,0.00299470
5394.87422241,0.00293446
5396.80302978,0.00290918
5398.73183716,0.00298925
5400.66064453,0.00301170
5402.58945190,0.00293116
5404.51825928,0.00298977
5406.44706665,0.00305538
5408.37587402,0.00294564
5410.30468140,0.00294000
5412.23348877,0.00289363
5414.16229614,0.00283919
5416.09110352,0.00286622
5418.01991089,0.00290353
5419.94871826,0.00292275
5421.87752563,0.00288893
5423.80633301,0.00291514
5425.73514038,0.00292241
5427.66394775,0.00285282
5429.59275513,0.00269694
5431.52156250,0.00281603
5433.45036987,0.00291836
5435.37917725,0.00268637
5437.30798462,0.00278285
5439.23679199,0.00287679
5441.16559936,0.00276874
5443.09440674,0.00282262
5445.02321411,0.00280749
5446.95202148,0.00270711
5448.88082886,0.00273726
5450.80963623,0.00273235
5452.73844360,0.00268251
5454.66725098,0.00272875
5456.59605835,0.00272994
5458.52486572,0.00277614
5460.45367310,0.00271922
5462.38248047,0.00266415
5464.31128784,0.00273700
5466.24009521,0.00271380
5468.16890259,0.00269242
5470.09770996,0.00264591
5472.02651733,0.00275177
5473.95532471,0.00274978
5475.88413208,0.00258386
5477.81293945,0.00258612
5479.74174683,0.00263384
5481.67055420,0.00269903
5483.59936157,0.00265311
5485.52816895,0.00263165
5487.45697632,0.00256948
5489.38578369,0.00258890
5491.31459106,0.00261782
5493.24339844,0.00248088
5495.17220581,0.00262775
5497.10101318,0.00259569
5499.02982056,0.00249472
5500.95862793,0.00259780
5502.88743530,0.00256462
5504.81624268,0.00256902
5506.74505005,0.00254352
5508.67385742,0.00251652
5510.60266479,0.00253650
5512.53147217,0.00257490
5514.46027954,0.00256986
5516.38908691,0.00251097
5518.31789429,0.00255114
5520.24670166,0.00252555
5522.17550903,0.00244716
5524.10431641,0.00248153
5526.03312378,0.00247065
5527.96193115,0.00242355
5529.89073853,0.00242563
5531.81954590,0.00236319
5533.74835327,0.00245933
5535.67716064,0.00251226
5537.60596802,0.00243222
5539.53477539,0.00248614
5541.46358276,0.00239412
5543.39239014,0.00237401
5545.32119751,0.00242866
5547.25000488,0.00241148
5549.17881226,0.00245548
5551.10761963,0.00247026
5553.03642700,0.00244894
5554.96523437,0.00233683
5556.89404175,0.00231637
5558.82284912,0.00235371
5560.75165649,0.00233762
5562.68046387,0.00232369
5564.60927124,0.00236863
5566.53807861,0.00234794
5568.46688599,0.00226743
5570.39569336,0.00236643
5572.32450073,0.00229492
5574.25330811,0.00229795
5576.18211548,0.00238597
5578.11092285,0.00228668
5580.03973022,0.00231724
5581.96853760,0.00232970
5583.89734497,0.00233301
5585.82615234,0.00221446
5587.75495972,0.00214399
5589.68376709,0.00223575
5591.61257446,0.00222108
5593.54138184,0.00227167
5595.47018921,0.00227057
5597.39899658,0.00222196
5599.32780395,0.00222538
5601.25661133,0.00223695
5603.18541870,0.00220913
5605.11422607,0.00218426
5607.04303345,0.00216722
5608.97184082,0.00216788
5610.90064819,0.00222911
5612.82945557,0.00218816
5614.75826294,0.00221241
5616.68707031,0.00217743
5618.61587769,0.00214967
5620.54468506,0.00218647
5622.47349243,0.00212546
5624.40229980,0.00217576
5626.33110718,0.00211841
5628.25991455,0.00211215
5630.18872192,0.00213106
5632.11752930,0.00213302
5634.04633667,0.00220323
5635.97514404,0.00209565
5637.90395142,0.00210676
5639.83275879,0.00211027
5641.76156616,0.00210647
5643.69037353,0.00212611
5645.61918091,0.00202334
5647.54798828,0.00199968
5649.47679565,0.00203746
5651.40560303,0.00210286
5653.33441040,0.00202118
5655.26321777,0.00199461
5657.19202515,0.00204760
5659.12083252,0.00202093
5661.04963989,0.00203470
5662.97844727,0.00195943
5664.90725464,0.00196102
5666.83606201,0.00199453
5668.76486938,0.00196170
5670.69367676,0.00197392
5672.62248413,0.00197539
5674.55129150,0.00197579
5676.48009888,0.00193587
5678.40890625,0.00190612
5680.33771362,0.00193067
5682.26652100,0.00192627
5684.19532837,0.00190055
5686.12413574,0.00194985
5688.05294311,0.00197290
5689.98175049,0.00199063
5691.91055786,0.00200218
5693.83936523,0.00187200
5695.76817261,0.00191100
5697.69697998,0.00200335
5699.62578735,0.00188334
5701.55459473,0.00187486
5703.48340210,0.00194560
5705.41220947,0.00185189
5707.34101685,0.00183270
5709.26982422,0.00190513
5711.19863159,0.00184064
5713.12743896,0.00183156
5715.05624634,0.00185252
5716.98505371,0.00186706
5718.91386108,0.00185817
5720.84266846,0.00179139
5722.77147583,0.00188586
5724.70028320,0.00188089
5726.62909058,0.00181391
5728.55789795,0.00179423
5730.48670532,0.00175599
5732.41551270,0.00185966
5734.34432007,0.00176661
5736.27312744,0.00169951
5738.20193481,0.00183231
5740.13074219,0.00177028
5742.05954956,0.00179956
5743.98835693,0.00182119
5745.91716431,0.00169882
5747.84597168,0.00174392
5749.77477905,0.00172391
5751.70358643,0.00169099
5753.63239380,0.00175027
5755.56120117,0.00169340
5757.49000854,0.00173336
5759.41881592,0.00171550
5761.34762329,0.00165202
5763.27643066,0.00176329
5765.20523804,0.00169664
5767.13404541,0.00170177
5769.06285278,0.00179304
5770.99166016,0.00172218
5772.92046753,0.00172287
5774.84927490,0.00167516
5776.77808228,0.00165473
5778.70688965,0.00162740
5780.63569702,0.00160919
5782.56450439,0.00169295
5784.49331177,0.00163618
5786.42211914,0.00168221
5788.35092651,0.00172678
5790.27973389,0.00164086
5792.20854126,0.00165313
5794.13734863,0.00162767
5796.06615601,0.00160914
5797.99496338,0.00163404
5799.92377075,0.00161234
5801.85257812,0.00160916
5803.78138550,0.00161172
5805.71019287,0.00153856
5807.63900024,0.00158074
5809.56780762,0.00164656
5811.49661499,0.00158455
5813.42542236,0.00162654
5815.35422974,0.00155541
5817.28303711,0.00150647
5819.21184448,0.00158699
5821.14065186,0.00155112
5823.06945923,0.00160071
5824.99826660,0.00162505
5826.92707397,0.00157695
5828.85588135,0.00152555
5830.78468872,0.00152874
5832.71349609,0.00162196
5834.64230347,0.00158497
5836.57111084,0.00150637
5838.49991821,0.00152902
5840.42872559,0.00156006
5842.35753296,0.00153917
5844.28634033,0.00157310
5846.21514770,0.00155019
5848.14395508,0.00148988
5850.07276245,0.00147493
5852.00156982,0.00143003
5853.93037720,0.00152258
5855.85918457,0.00150297
5857.78799194,0.00137824
5859.71679932,0.00143765
5861.64560669,0.00149924
5863.57441406,0.00141824
5865.50322144,0.00138101
5867.43202881,0.00146781
5869.36083618,0.00142832
5871.28964355,0.00146317
5873.21845093,0.00146198
5875.14725830,0.00136340
5877.07606567,0.00141452
5879.00487305,0.00140789
5880.93368042,0.00144343
5882.86248779,0.00141187
5884.79129517,0.00142658
5886.72010254,0.00146524
5888.64890991,0.00133811
5890.57771728,0.00139818
5892.50652466,0.00140473
5894.43533203,0.00137900
5896.36413940,0.00137363
5898.29294678,0.00136055
5900.22175415,0.00145477
5902.15056152,0.00133707
5904.07936890,0.00130156
5906.00817627,0.00136906
5907.93698364,0.00128181
5909.86579102,0.00129942
5911.79459839,0.00132469
5913.72340576,0.00131235
5915.65221313,0.00134255
5917.58102051,0.00128932
5919.50982788,0.00122298
5921.43863525,0.00128023
5923.36744263,0.00136622
5925.29625000,0.00137517
5927.22505737,0.00133245
5929.15386475,0.00128869
5931.08267212,0.00137722
5933.01147949,0.00141810
5934.94028686,0.00125706
5936.86909424,0.00132136
5938.79790161,0.00139484
5940.72670898,0.00123127
5942.65551636,0.00122508
5944.58432373,0.00129084
5946.51313110,0.00134096
5948.44193848,0.00128122
5950.37074585,0.00122480
5952.29955322,0.00129320
5954.22836060,0.00123219
5956.15716797,0.00122850
5958.08597534,0.00127031
5960.01478271,0.00127328
5961.94359009,0.00125110
5963.87239746,0.00120588
5965.80120483,0.00121838
5967.73001221,0.00120845
5969.65881958,0.00119118
5971.58762695,0.00114697
5973.51643433,0.00120181
5975.44524170,0.00121505
5977.37404907,0.00117397
5979.30285645,0.00125524
5981.23166382,0.00120049
5983.16047119,0.00114203
5985.08927856,0.00117882
5987.01808594,0.00118877
5988.94689331,0.00117011
5990.87570068,0.00116728
5992.80450806,0.00116048
5994.73331543,0.00114877
5996.66212280,0.00117756
5998.59093018,0.00119624
6000.51973755,0.00119552
